0,1,2,3,4,5,6,7,8,9,10,11,12,13,14,15,16,17,18,19,20,21,22,23,24,25,26,27,28,29,30,31,32,33,34,35,36,37,38,39,40,41,42,43,44,45,46,47,48,49,50,51,52,53,54,55,56,57,58,59,60,61,62,63,64,65,66,67,68,69,70,71,72,73,74,75,76,77,78,79,80,81,82,83,84,85,86,87,88,89,90,91,92,93,94,95,96,97,98,99,100,101,102,103,104,105,106,107,108,109,110,111,112,113,114,115,116,117,118,119,120,121,122,123,124,125,126,127,128,129,130,131,132,133,134,135,136,137,138,139,140,141,142,143,144,145,146,147,148,149,150,151,152,153,154,155,156,157,158,159,160,161,162,163,164,165,166,167,168,169,170,171,172,173,174,175,176,177,178,179,180,181,182,183,184,185,186,187,188,189,190,191,192,193,194,195,196,197,198,199,200,201,202,203,204,205,206,207,208,209,210,211,212,213,214,215,216,217,218,219,220,221,222,223,224,225,226,227,228,229,230,231,232,233,234,235,236,237,238,239,240,241,242,243,244,245,246,247,248,249,250,251,252,253,254,Target
0.028466502894516355,0.019160021360158597,0.018508943172032888,0.013244329305159175,0.0172190845594693,0.044463850578512654,0.08786342787598733,0.13891741011175607,0.19129946052401814,0.25017222167884934,0.300757761448488,0.36001487151543343,0.42042555526835623,0.4733978303890731,0.5290445903559922,0.5893816206398654,0.641987773257682,0.6979245568487287,0.7517731032101189,0.8064588155723278,0.863998704471187,0.9151828106931694,0.9613209594674361,0.9513872812259405,0.9000767216338155,0.8491206340582991,0.7910761511106823,0.730486964277733,0.6731573136511042,0.6216378855002447,0.5614778143233836,0.5008673356966391,0.4402879526929999,0.38443486206539323,0.3316543653985764,0.2712624119396725,0.2111070275803939,0.15955009380898288,0.10226986284213546,0.044806525593381386,0.0,0.00048566063964528006,0.006134381672342704,0.01744445110820414,0.041367869078577924,0.07961054296679193,0.11973670925096225,0.15145510860757017,0.1526391101546365,0.11769334077911364,0.0794531399505265,0.050206859497602396,0.033454910138529526,0.038914082199321465,0.04419912878411281,0.04598217824317241,0.0588581174902274,0.07173683908710671,0.0819587947872582,0.07825069080400593,0.05969065265901485,0.036998881313385246,0.021836311742883696,0.014665536207799645,0.007055881225791039,0.01426988489166825,0.013907374678265194,0.012895316502149035,0.017930697816342933,0.012667436134374599,0.023066634810961384,0.05848180387076041,0.10701509865139713,0.1581049153657521,0.21184030086510464,0.2652841499833969,0.3203107557372904,0.3808473751258987,0.43874443304764,0.4824478770054601,0.5221174731141118,0.5615413577454664,0.6018845623382847,0.6547247334831792,0.7150819942695119,0.76815851450951,0.822785295660067,0.8734711714753798,0.9305343790170533,0.9720748356253714,0.9665912293073322,0.9200824696469214,0.8619442140767488,0.8113151268749987,0.7517159253281813,0.6919934367654743,0.6411630587115205,0.5827179677844041,0.5221112077734549,0.46156695503318335,0.4065668147443373,0.3599207621230811,0.3169717942209289,0.2575693297777264,0.19743886353521245,0.1460050085353164,0.08856734687530277,0.030662338132338318,0.017591018441356576,0.03063189216572426,0.03936670384883256,0.054648404205508205,0.09095151626403752,0.12777901309444073,0.15604146611044656,0.14729767178147735,0.10907052686671492,0.08234476136017599,0.06006767105908817,0.06690997463712267,0.08037273712096193,0.08287311453093626,0.0897864119198084,0.10244313774398983,0.11859867971944227,0.11970509961904185,0.10340914119290567,0.07991525895237772,0.05961850409288627,0.04531213372599674,0.04425056244893999,0.044247579368263734,0.04264093687210324,0.032614749464784376,0.03146384494766141,0.03868731978837414,0.07611017450097157,0.12420669302110343,0.17542211864288615,0.22630308517531783,0.28398795447774927,0.3384813360771941,0.3925426307308817,0.4530434530592562,0.5133979418449306,0.5658210332112981,0.6220646977741298,0.682648430647782,0.7432589092745256,0.8037049066084634,0.8569995393895693,0.9114607306994642,0.9615187612008327,0.9999999999999998,0.98815103710139,0.9387041932291729,0.8844888627572234,0.8428190015317802,0.7995499067866783,0.7401370089050181,0.6797887822319055,0.6272616981438561,0.5711134386030048,0.5105327940822988,0.4499224076078814,0.38979733445869136,0.33839243916974016,0.28091790680715323,0.22031737710019894,0.16015044561326675,0.10853583785537624,0.05284468684513599,0.031952994279370595,0.04345239393685074,0.04769783222605661,0.0673604098709013,0.10138147477669857,0.14140294503047257,0.1693949910399548,0.16319840426415033,0.12986423727504603,0.09992824145672263,0.07324684830300243,0.06042381523346063,0.06907242797490176,0.07008250098048463,0.07734894435835726,0.08478256096751591,0.09813523129039425,0.10727562512333955,0.0975396302585596,0.0846681197882393,0.06730876080984216,0.048825476863971096,0.04427412623992777,0.044229239994995284,0.04040541896298078,0.03157094358827428,0.023862762363607404,0.0204082051058474,0.041126042749831226,0.07844758598083845,0.1274979794129416,0.18724365493215944,0.24750358066497902,0.29929850601069163,0.3562566350891794,0.4163902128203534,0.4678833406852452,0.5219291803114425,0.5633472068466714,0.6204006158505442,0.6720988889809616,0.7291719889887733,0.7868104598180536,0.8379874089329975,0.8916539403251325,0.9424688640658141,0.9763258561549508,0.9609005983270802,0.9068782887055613,0.8526758944560731,0.7983585455355227,0.7378220889325922,0.677300223002576,0.622766328122746,0.5687354004311322,0.5082171113440668,0.4476066327173218,0.38699615409057686,0.32638567546383457,0.26577519683708917,0.20540886480911014,0.15278853887986554,0.09675218274496866,0.040274449946702484,0.034270327815315804,0.05219554094997325,0.05192786911097147,0.06021351209080916,0.08279469979150256,0.12172407184587697,0.15805877976143567,0.1801953710511437,0.1619860526440171,0.12929399915739048,0.10141835064603666,0.07300944359253436,0.0686355557636309,0.06992104947731126,0.06995413728764066,0.07443323568365323,0.08274166866925747,0.09095063933302172,0.09000500285029855,HB
0.2164059851648763,0.23225536376642397,0.2861814279078243,0.3272057088455691,0.38291066168193977,0.42351687713000263,0.4488187646295372,0.4758092662979805,0.5059936065810002,0.518669906122379,0.5206776167154499,0.48376802955126497,0.4401804094383861,0.4210812097909904,0.39314847378547446,0.36249815900018234,0.3127119094725255,0.24736882770255342,0.1709010246437943,0.0943604824613935,0.024712522670594872,0.001198750736149723,0.0,0.0124144089237479,0.03743719212987173,0.0870535096282321,0.13864409880614925,0.18846179114400652,0.2433272193750473,0.28904840883193783,0.31736789413082755,0.32445564119800485,0.3084754482362455,0.26489839071512966,0.21409215900790057,0.17731189101878542,0.22263674064934902,0.28877818710348446,0.3292503626141299,0.3898239752409096,0.4577980138280884,0.5342475681635719,0.6108036784792001,0.687359709496663,0.7634664148974886,0.8277845699814836,0.8993328641564169,0.9670586327514488,0.9499323814187042,0.8772539972360653,0.8033584931255957,0.7420259995883147,0.6806415975606805,0.6161970501574396,0.5475847779957861,0.47935708834287816,0.41459770581514244,0.3573163473524992,0.3360540588588541,0.3237777491767746,0.3020633961213499,0.31018293521169893,0.31562427158478634,0.30376810106180185,0.31628273718881106,0.30944360974151675,0.2638359171291853,0.25601112735844644,0.2896770943431677,0.33617923919433634,0.37207803484897006,0.39321695561398906,0.425150821436898,0.442202816194317,0.44709516644438363,0.44076985247207423,0.41166565854540504,0.3928274052713152,0.39251391944184544,0.374894744619481,0.3852652499553919,0.3767265178516839,0.3808554942290563,0.3778958533778023,0.39264347927135157,0.406811422551685,0.4271328054464223,0.4572608905097324,0.4799502565819589,0.5153114803774561,0.5056015075218117,0.460256562958659,0.42319835579220255,0.39003594131900066,0.35279989264367817,0.32261178233169385,0.3451427170752406,0.33238903258943386,0.33261480242827224,0.3908389045673668,0.4670614260189403,0.5436175363345686,0.6201720209195556,0.6947519048578559,0.7574249521708825,0.8321444621778005,0.9084926744742008,0.9591291998446576,0.9181965011321669,0.8501117863093608,0.7779184559989498,0.714100851445119,0.641371634331287,0.5783090013405143,0.5051562862388042,0.44370485975825646,0.3900581591237109,0.33838718246032773,0.3093233784398559,0.28368342380841494,0.27123790047558094,0.28062187280680906,0.2951456464504667,0.28274673718705756,0.26947824695363254,0.27414521131624303,0.25581875082926286,0.2661308976337531,0.28956683236432434,0.2932974417404406,0.3344011149493329,0.3893053072353907,0.39443586371596107,0.40470525212172914,0.4369110134991421,0.4510316898689717,0.4489616271942176,0.43408894837703427,0.3949255743169191,0.37693360516390406,0.37820867461086793,0.34841768472339973,0.35092970031308557,0.3787668995509983,0.3755118791293772,0.34283748886384524,0.36347064789292904,0.3783169192530771,0.41731256758152524,0.430637710782813,0.43800584120549546,0.49433402805801174,0.5371589963335466,0.5147454673058083,0.48472534959295777,0.43634853528259265,0.38364032865766085,0.36044087056015783,0.379646205240753,0.3822378543744973,0.3482278418161808,0.29245817388315176,0.27273828885952156,0.3117769149985943,0.3758159416964961,0.45190791874891456,0.5182694889633068,0.5875953915302539,0.664108386296427,0.7406644966120561,0.8172206069276848,0.8937758422632722,0.9678876983761895,0.9794564905008891,0.9178570022740358,0.841818811341863,0.7750098599313815,0.7062614037098203,0.6402076966792136,0.5866880176438101,0.5133774672750153,0.45125910336729813,0.3965874033577208,0.35328124128553684,0.31264361198655566,0.29150873435523694,0.30365806015790797,0.3236897747754601,0.319611402078837,0.28689584991166317,0.29517321468646474,0.31597212102188754,0.2979562743856077,0.29140498391861946,0.2717607858669946,0.29477260515106085,0.3426851838842282,0.3640475892661845,0.40421911062987714,0.4271886805070997,0.45404764930117913,0.4415336205634053,0.40323346664422033,0.39756525009132915,0.3981802494975164,0.39894857539609907,0.39323210770692096,0.3727639324599026,0.33958679726063057,0.3539314994741214,0.3859553689947792,0.39001876585543593,0.4124213796776566,0.4125416367898662,0.44214443485537913,0.46669495332652833,0.4618460834387901,0.49531798142034367,0.5426009913483778,0.5484430627757066,0.5174927056286962,0.46500385162437796,0.40658502406266095,0.37514238414230583,0.37593410871907373,0.3572396217485614,0.3248515820054374,0.30880806405269823,0.35256797486801617,0.41453674551976727,0.48448590809488756,0.5495177671752174,0.625726220381158,0.7022823306967854,0.7788384410124145,0.8553945513280437,0.9319377596586453,1.0,0.9841148299597839,0.9159358790205379,0.8518747136920592,0.7811513079895867,0.7182867312825518,0.6447928715385771,0.5784765589557002,0.5108238662152975,0.4506468199642075,0.4014701990483216,0.35941645485173535,0.32902543488051705,0.3079777806310413,0.2930994034517891,0.2872272217972496,0.28810665554818904,0.30824683415416354,HB
0.6865149411795732,0.6277230058190773,0.5634278214681427,0.4991232388033078,0.43498207339037664,0.37847455868674773,0.3196312951472007,0.25537870417397235,0.19126731745291226,0.1349803100098974,0.07593663921930638,0.023754553665152667,0.04039209895687579,0.061974916741711183,0.0843440712156549,0.11667137991025855,0.15899817592021748,0.19005222481397377,0.1836478838441442,0.1638105589176595,0.1341452954443496,0.11626081599806026,0.1161615892865413,0.1236837910186761,0.11448024647144406,0.1073232695631936,0.09463457161018995,0.08731281026475468,0.09655479061183225,0.11720341036777704,0.14545194917502524,0.18349739610113636,0.2207422400178478,0.2531376837234043,0.28194901941647466,0.2873070025142863,0.26591723271309275,0.23366418605808326,0.19634419382696855,0.15791572124819853,0.12774155409384713,0.10665541214003627,0.08877154490884331,0.06652212462648732,0.05508917095619692,0.09522093501588413,0.15661671534138888,0.21106741044021593,0.2724005923201278,0.33668346611678857,0.397306251238684,0.45196607583268333,0.5023151521610738,0.545964192557097,0.5855013391332093,0.6418005494199401,0.7055345789795058,0.760348415720391,0.8211382695178098,0.8852166775580965,0.9407489367609521,0.9656190265732891,0.9232526126576244,0.8699374784967011,0.8073289850886685,0.7430278244254511,0.6801366441913062,0.6263247832113312,0.5635846606428898,0.49928174022165006,0.43501438611271137,0.3758843436685302,0.31962618919401375,0.25553721919280514,0.19142110904603538,0.13510617903492728,0.07605168519681804,0.013985833959770044,0.005414631067036435,0.03841931625059836,0.05137843911061424,0.07908031889053069,0.1185351975108957,0.1549896162050599,0.1620966743622967,0.1484914394934269,0.1206737109943612,0.09783537887597271,0.08731495928861222,0.08684930988608697,0.08246483296694596,0.06987678811032483,0.05712889747815941,0.05384154073251235,0.06054040963742224,0.07389296636038667,0.09790380934301268,0.13437847922223067,0.1696028155288931,0.1982970594427642,0.21832434765841535,0.21444823971105942,0.18802504075583926,0.15334785392327355,0.1210235491806726,0.0893145088670626,0.06542629807079159,0.04966472153769752,0.03466766033066948,0.014917893402776272,0.04403989316213108,0.10228624058909563,0.15750152873355017,0.22137257251805664,0.28099066020211083,0.3368139176721838,0.40084194332371004,0.46369638168783656,0.5174696618399777,0.5802703197126857,0.6407114694461526,0.695840257512812,0.7597233064660398,0.8237041636434652,0.8789183791357136,0.9264269652785364,0.91301028311302,0.8521878970132053,0.7878870067768049,0.7246776043120597,0.6707037038551809,0.6084438556796687,0.5441417872638814,0.4802586994521114,0.42512991138545164,0.3646867517489061,0.30039718518721825,0.2362238819064797,0.17905205387214496,0.12088729536473153,0.05666553913987826,0.0,0.007627864957925556,0.028061845857781265,0.04426701412178158,0.0799095950016584,0.12233335703484416,0.15112680200623752,0.1468722246479004,0.12054621702227175,0.09286330122907316,0.07977201936476597,0.08184467754216351,0.0832894264175974,0.07370042296222357,0.06564929322818891,0.05298740746613806,0.047840616657145674,0.059332744711813934,0.07640708935202101,0.10194205009092006,0.13426674535829486,0.17618897882203388,0.2082107194497862,0.23419726814590502,0.24560575332477486,0.22321294797357405,0.19963327190500646,0.17897877514643445,0.15345640435102137,0.1311324760156367,0.11633248821015929,0.10761516273406535,0.11046032733136624,0.16082451126311215,0.22006148595189456,0.28203504242169153,0.3360938206998054,0.3994238099536873,0.4584785161259779,0.5147934461370856,0.5788960616571122,0.6395687695108263,0.6919674875139381,0.7356955875412452,0.7957052072915141,0.8561616381525505,0.9112667935082928,0.9733216929165049,1.0,0.9636172570182664,0.9011125205292627,0.8470886226508583,0.7849772818626581,0.7206810097469494,0.6588646145941404,0.6047047453872705,0.5412353413486519,0.47693100515800335,0.4126264080599955,0.34832181096198767,0.2840172138639798,0.21971261676597198,0.15543830639757816,0.0979446292667312,0.09050112206444849,0.10129821320225618,0.11758725073818699,0.15631990184293487,0.1979526383056478,0.21828182645335303,0.20772202533070505,0.18222339833832368,0.15398917983601512,0.13520567848431986,0.12682982395663744,0.11686504031282086,0.10904599954203187,0.09389665538566039,0.0852939011571956,0.07696662781376196,0.08815783628385088,0.1118703361676614,0.14390240461379333,0.17605471736758904,0.20821859404921872,0.2426901999896871,0.2719602856574297,0.2689076343083996,0.2447822906153907,0.20824995691438897,0.16774144252328416,0.13959872192668543,0.11884402418670881,0.10082682937973564,0.07812659638366082,0.052721544429607636,0.05009172341483792,0.09830621860696587,0.15865144868505787,0.22144979876293824,0.2752346531634293,0.33807298911999384,0.40212777707322944,0.45809816040712725,0.5175443573947835,0.5818156602439091,0.6461202573419165,0.7104234225785464,0.7733122015067035,0.8270739007490295,0.8894799589065334,0.9307148858648979,0.9097827448687688,0.8551316059467053,HB
0.6144282788638571,0.605957294290262,0.5856177781081002,0.5711511737660735,0.566389767189031,0.582162588902158,0.6009727347120122,0.6436214338962141,0.7033013980827465,0.771330213239946,0.8440883282802099,0.892572701126491,0.8561632589894734,0.772785847928398,0.6941843195427215,0.6245291816900527,0.5453502739868834,0.48148520562134856,0.44256842227229765,0.4351288518097389,0.4355548540503431,0.35880572100270003,0.272272229514408,0.1857299106089445,0.0992284935237766,0.024014627067863614,0.0020326213566566054,0.0,0.003609586881337279,0.02583751708376747,0.05709222019324267,0.11282013801980417,0.17737966645668424,0.22231888437815517,0.29328088596609847,0.3498056197271149,0.4037743726562826,0.4454202025361855,0.47183185774697023,0.5221224900238468,0.5656517938938426,0.6238926984809328,0.6887593935553302,0.7223572234371534,0.7704450532209237,0.7580721989268109,0.6988218017794812,0.660006504396462,0.6180035166690101,0.6074107050105346,0.6074043286230792,0.6147822955570281,0.6094865281734907,0.5892556210437561,0.6001544580376632,0.5731432453719454,0.5570891131512536,0.5579765971011574,0.577601345722687,0.5828981142739846,0.6102593757571468,0.6581401494598427,0.7144892159764162,0.7815094811140146,0.8564729256231804,0.9141273306142863,0.88863118128844,0.8067047639175295,0.7204328042248407,0.6498332807222478,0.5776889832589212,0.5276166749347451,0.477122341082997,0.43523339149021734,0.43053389533146724,0.4457218507869598,0.4566394711865862,0.47476456978051296,0.44497358217651906,0.430350311784792,0.4389579157230319,0.46051493077918737,0.497524048870555,0.5407771911742727,0.5857677507645112,0.6301058169245093,0.6485601643156111,0.6282624486945658,0.5915082061839212,0.5584134736368207,0.5320483841009009,0.5141746761423218,0.5259199971771995,0.5550273104417962,0.5573589870455051,0.5793663669054463,0.6128186030778955,0.6177169763704504,0.6078152647245374,0.6271200283881613,0.6814785297552652,0.753523842198462,0.8222580125328096,0.8734792317161131,0.8187603387999842,0.749172089334118,0.6836281824251045,0.6177525203182879,0.5530612376878516,0.5034763102561706,0.4943093866365498,0.49257060416907894,0.4809293217494588,0.4793786550690675,0.4591360699539653,0.45559201242957226,0.4649455435711518,0.4866516460891348,0.530175279968808,0.5811271174459693,0.6350383525447714,0.6791719688988302,0.7070209516379307,0.6930429031885326,0.6577474488097086,0.6329930933687913,0.6103367253965524,0.5777896777822131,0.5570560596148062,0.5699406020868865,0.5981736704148832,0.6240576722357276,0.6798229576400847,0.7376670897304938,0.8015693479365011,0.8703120301068918,0.9480885618940369,0.9999999999999996,0.9383982683215044,0.853264884229699,0.7867061635902481,0.7043323484099608,0.6314667329760675,0.5735756077112781,0.5160533176772759,0.47404405331106947,0.4560162042828728,0.4487923943915737,0.4325899468164116,0.4521015297916704,0.466253196939042,0.46435135366358216,0.4787845395854471,0.4962444239032773,0.5317022475600948,0.5690522548287951,0.6216743572392578,0.6711408816717852,0.70594997621544,0.6871768444718129,0.6618623695577113,0.6208916434122016,0.5956244645234698,0.5617486103079812,0.5799890793964111,0.584201098969142,0.6046508605964518,0.6197602717138193,0.6325599777131505,0.6327049781332668,0.6399742081994888,0.671238470542241,0.7286332281859056,0.8001849423275327,0.8202342288712852,0.74802570076104,0.6692872016696119,0.6009993937565183,0.5414717736014212,0.4880544938009086,0.4578264576144635,0.4742836003705526,0.46898097730382293,0.45564374610251823,0.45015657561780076,0.4110130402493981,0.4049568311798999,0.41360614493622183,0.45278907461495566,0.4894939288192508,0.549693611641286,0.5954172164668052,0.6410795776948848,0.678098284794745,0.6546564125969998,0.6334669263885,0.6218271982757373,0.6072780019458288,0.5906730370713116,0.5985801670314541,0.643055431481415,0.7131252615272801,0.785233829389671,0.8511113067565472,0.9200991235744529,0.9899806991763458,0.9731918642201776,0.8890844395078612,0.8027263604125037,0.7304329939618861,0.6556140889721038,0.5884384027536966,0.5262003647616904,0.47435593897767614,0.43493823493135775,0.45733147371200156,0.49700513229897725,0.5061137396313433,0.5005629692325781,0.49391513253083597,0.5409505265979209,0.5567177316623995,0.5632038284379832,0.5977348039990509,0.6258455789754183,0.701385190593482,0.7559229191829915,0.7991592685905844,0.8300871153421014,0.7850916947960358,0.739787966605562,0.725452807204364,0.6921351024560027,0.6437035426683173,0.610707059596248,0.5704616166689429,0.5776247006960662,0.6068075098048236,0.6501869303960848,0.6860096427835649,0.7359657351657307,0.7977852052698071,0.8569315555442611,0.8376785593696909,0.7725351399765858,0.6902085028381664,0.6243067726381697,0.547094825879896,0.5091772961695629,0.5001960215024703,0.4657246153182548,0.45069835546119474,0.42213223481314754,0.3828491725427967,0.37960868809373594,HB
0.34230776653796413,0.4014200941207777,0.463150103763621,0.5019049847198294,0.4779620125241091,0.4250293566019314,0.356963170902445,0.2876730988151488,0.23404525777235508,0.18507795710474095,0.15104952072263034,0.1103878893429493,0.06582159974965851,0.0816528530013132,0.16220362718352987,0.2579365043280144,0.3441137990044223,0.43690665836816045,0.5343745104943829,0.6309980714648935,0.7165748641317249,0.8102235411835883,0.9067600639765274,0.9643712777531337,0.9182656070814104,0.8238699613657388,0.7305947675271214,0.6447594385130602,0.5480230037410441,0.45136403345866905,0.3657672264794556,0.27280302607810425,0.18687393314954015,0.10996482905971217,0.11962343135458742,0.18112780016138874,0.23324501400497955,0.25279885810852276,0.22132504568088418,0.16573101070932061,0.13482613011589262,0.13438338674809103,0.18046591192534267,0.24018817315111907,0.3008082575769424,0.3672725219173212,0.41723129314103913,0.4301985841606504,0.38413733815489914,0.3228679333378017,0.2589299594547638,0.1954561838811295,0.13940121598783284,0.10532185582430298,0.07226458841299443,0.04757424464098747,0.09493698032233189,0.1898215467192479,0.2761335387658703,0.3687379748253985,0.46619837540366493,0.561947340000184,0.6468138634219502,0.7420356630655034,0.8382844800487574,0.9230836478120046,1.0,0.9843394046356266,0.8955291701340986,0.8103028105087446,0.7160975641342633,0.6186132814017733,0.5212015730044555,0.4307077032308251,0.34253515321810335,0.24752990442588363,0.16332842659340807,0.10448775905442087,0.13638066077455147,0.19276158015063327,0.25505514205742763,0.28426342048120956,0.25174914402210113,0.20764772019871103,0.16865317125745038,0.13918836200280538,0.17722506306449048,0.24100681520166045,0.3027587804132623,0.3658428056118703,0.4154640846957447,0.44382060211412977,0.40735924927662426,0.3516551723324626,0.29185328015964984,0.2312563584935008,0.16798182747030754,0.11545404624321343,0.07667846716507443,0.04125841286394305,0.00914331910442856,0.053257939546543565,0.14269224088054466,0.22955383887982528,0.32658564085736685,0.42277977981133663,0.5077419964049992,0.602426187146976,0.6995335865060834,0.7866955113367418,0.8780011274390978,0.9602810798192802,0.9707050921255536,0.8991995011661018,0.8057490409858419,0.7082716738005579,0.6107771509663382,0.5132826281321168,0.41578852990242154,0.31908119867661755,0.23342681997278802,0.14142319041685214,0.07666114870658003,0.09647303665764229,0.15280333980101402,0.20783627629098156,0.23325120915497077,0.20571234660106485,0.16489061571838892,0.1208370088587376,0.12014776938699168,0.16744638381129295,0.23227708596277585,0.30100401192443993,0.35897837593649484,0.38801093549158283,0.3621476999341109,0.30152726764720894,0.24440342945912708,0.17529199796181194,0.11995958106130677,0.07441884733845283,0.031635134620183525,0.0019745558289234744,0.0,0.0777840551782405,0.16804430263902903,0.2562325949481412,0.3534881540706847,0.4489690551240799,0.5337779673505216,0.6293258070720906,0.726133274306656,0.8121319694129476,0.9020133239295363,0.947742904690978,0.8922725260821314,0.8082611795251684,0.7122534029682841,0.6147609938077809,0.5180953265092616,0.43249051893047463,0.3389353872142449,0.24591957537428666,0.15997706245614562,0.07405664928477229,0.06672748557086017,0.12442205432210551,0.1819480978593595,0.21585216520331096,0.1989600048626441,0.16027927195504965,0.11753321081306378,0.11281534257457349,0.15093267730665438,0.20863187874767553,0.27217525298765066,0.34399947397301656,0.40162047822672786,0.41573488504150813,0.38141954308280335,0.3177660770287538,0.24862196675344084,0.18805884404639972,0.1357287699515317,0.09261341101684506,0.057558967599057986,0.02593465896930125,0.038919686051311686,0.12142398745347727,0.21259368099648013,0.2999204103572013,0.3970467420896986,0.49454121617402746,0.5920357390082507,0.6894657295183801,0.7805983006233093,0.8680279494888383,0.9518669465992757,0.9706589076303129,0.8986594751821966,0.8142146818566949,0.7186519950097217,0.6211601337021349,0.5242519710976898,0.43800638780814705,0.3453138355262686,0.25152665513651806,0.1666031600521296,0.1019607494856154,0.1336003057309294,0.19367410727808698,0.24169727847885714,0.24967877780597014,0.21351070830112606,0.16454929042544553,0.1294948116284922,0.14255321929682552,0.19451990085429482,0.2571598339462904,0.3219387697258149,0.382127330009451,0.42066583275019065,0.4094249870884479,0.35548096475423074,0.2908627579618148,0.22376138308095017,0.16639609571934288,0.12486812631004662,0.09343117820723723,0.0565169738882223,0.04643073664075459,0.11775439066498006,0.20399434557374185,0.295624089784869,0.3924065457702075,0.47847230935462415,0.5714232856399653,0.6678832209730334,0.7531374190345868,0.8452976611680922,0.9077941863439261,0.8656707883234929,0.7823687131874664,0.6869154427917126,0.5894454361669532,0.496325594125103,0.41037857023277047,0.31461031037214804,0.22923917135464578,0.1382536530994929,0.10232494450563312,0.15202706437574554,0.21834009718242653,0.26973719236646687,HB
0.11447674241535744,0.08113734196293443,0.07848283191594341,0.09801088378120237,0.1439638328631201,0.21946057729998802,0.2952353399517387,0.3900785424817039,0.46782892722142844,0.5687542262769822,0.6522094940379022,0.7387271113819658,0.7718377224596207,0.7189540910385306,0.663868256431897,0.5877707562922385,0.5187843762084929,0.4355225165357588,0.36673913840038974,0.302503656460571,0.2599279468246536,0.22847588133076702,0.18827829361149728,0.17674848190670023,0.20158861732789557,0.2521428735182898,0.26825661080915797,0.3102921387441002,0.3011696359198952,0.3208722394428829,0.3229146206139717,0.34525807115539653,0.38467410112109945,0.40850971429662586,0.3917548719091801,0.37614296580790985,0.34238135598440067,0.3019882841619612,0.2405418414472127,0.18932635674481357,0.16183245205539087,0.148847279324122,0.13233669565646444,0.1583766120210992,0.1612544697443692,0.1682695980447919,0.20109943545047226,0.249375315284313,0.32709416745965836,0.4241791258210581,0.5021653207625025,0.6035233408409661,0.7039456091550038,0.7796968220274776,0.8360392003731745,0.816480766457305,0.7664058266111562,0.7249781856299924,0.6565499347367902,0.5609464295276236,0.4769855235603915,0.3901911810403087,0.33162394464902345,0.33364971362141116,0.35452652644034544,0.3545378363692153,0.330525256591752,0.2929340212767908,0.3114811836589846,0.32355526706693993,0.35401581471471655,0.4186552209630596,0.45938761840577325,0.5042426703108749,0.5163876339151781,0.5076396840107309,0.4610616113141699,0.396246821880891,0.3423679264707049,0.29745156858064536,0.28234686216864,0.25620775441866694,0.24695433352894014,0.26727021596774403,0.28831032645935295,0.2639897856343385,0.25808473879740923,0.2472936441197069,0.24815067881196118,0.31236584717471594,0.39390763432702425,0.4905733999843278,0.5687937204137468,0.6701569101371581,0.752435268336697,0.8389222132074563,0.8708282651230199,0.8472502764554317,0.7823756040363197,0.7136126348636251,0.630712988766712,0.5553603986105058,0.4839641027442143,0.40752038254661826,0.3571448742723655,0.3550012158130995,0.3550012158130995,0.35516114153356604,0.3730195724901657,0.3895711918356799,0.41606857850415935,0.4022712678298932,0.37819262246515173,0.3733705489821926,0.40616755327563503,0.39466424402811473,0.3873006228411908,0.38730019722929754,0.3944848126604974,0.4147122070477458,0.37475100034300723,0.348124639074733,0.32379188644436496,0.3242972166876914,0.358710216715477,0.4073297777341516,0.4317074422280571,0.4668232124420353,0.5109902489350331,0.5399379922513985,0.499219136084041,0.42802380789355876,0.399274878487482,0.33919041611678846,0.2972697036547238,0.24701701829760392,0.20938452834650967,0.16727666211609815,0.15193754849925512,0.13126644264626197,0.15716501356514367,0.15987816167639046,0.1398507432505598,0.18015046325831996,0.25021376033433107,0.34721894132937337,0.44978008460601426,0.5307686559730733,0.6241990053341189,0.7270699174314892,0.8115353463114001,0.8983268923581678,0.9620329548111881,0.9959612889309142,0.9596582732167098,0.8913041279201037,0.8029648347186518,0.7259134187984531,0.6266766849438934,0.549225732468626,0.4540841853490436,0.3785960249230138,0.30197096621257025,0.22558428937195263,0.19173829527569275,0.1720400078905886,0.19279611178557676,0.20430024801525626,0.2263768527814296,0.26536072840625025,0.2973111036612446,0.3211140277354305,0.298145533454905,0.283132831499052,0.22962421202460526,0.15516692303970725,0.10291366750087239,0.06611561135348332,0.04846633969033309,0.029831180485068387,0.003959498093977665,0.0,0.020049014222819572,0.03583676293578009,0.06701610611277609,0.11846749318640448,0.20649641555317721,0.2853353582047289,0.36642264734190366,0.4578251688203734,0.5370060924692579,0.6309642984936152,0.7052885236952546,0.7404704484230891,0.7071594575550106,0.6422154442158243,0.5818977828471805,0.5091872802869526,0.40850506922468277,0.3073031882220141,0.2384624446444885,0.19755212609277883,0.195449694988433,0.21719110546367126,0.20703323624965186,0.23073849226082022,0.2564886283542043,0.2764008963382034,0.2903509789091192,0.2911256984183579,0.31404268702283566,0.338423717975906,0.35659578769929556,0.39222103846851475,0.40398660919140017,0.3884272715379353,0.4122611648096397,0.4369852941966119,0.45384439702074,0.4812627245566041,0.5115441655364954,0.5460795323957734,0.5240385525698246,0.462918712976899,0.42196753532437725,0.3725157874461713,0.3547007690698578,0.33449074956543967,0.31091028162480683,0.29063186206811054,0.2904950301809013,0.3055666524693743,0.34788045684065594,0.3568203630912903,0.3862537770137724,0.44271987319604555,0.5237627483582497,0.6023348732264555,0.6982507871935608,0.7923724165104051,0.8727089613298071,0.9693375793935219,1.0,0.9761385400987246,0.9219127720358866,0.853329496038663,0.7825012290100997,0.6861473324395835,0.604047599141901,0.5386455312943861,0.47813611587188465,0.46435422250266,0.4837782462441078,0.4843415249834093,0.502115492697607,HB
0.7421317994731464,0.6879745994806234,0.628101992651958,0.5740155989118358,0.5226344346913465,0.462842475941188,0.402937701596656,0.3471967348467575,0.2972429674231951,0.23770629661489018,0.1802605886796349,0.13156860618620714,0.07275793771995831,0.024228667043757923,0.0055096209400637974,0.023301554263718494,0.05822250370952675,0.10112411685212708,0.13251671921881014,0.1444456259002247,0.12424050587826185,0.10572913763704239,0.08615816255056519,0.05737624974061317,0.03094321994129068,0.01257549307584771,0.0025275563486872876,0.002203441241707349,0.0022204589652514706,0.006949377417858393,0.02165114835082127,0.03755159781687256,0.06108807558888474,0.08738308341863377,0.11533201070593035,0.15262356859170945,0.1663822506289967,0.16960443511842582,0.14951506208263998,0.13048731854707585,0.10395372233759259,0.0785929219392103,0.06317998931363578,0.04820799241568441,0.0338803597902575,0.022095802089424854,0.01677883153924542,0.015513449976327198,0.004894562862908014,0.018777575743967656,0.06086579085296684,0.10984091998005585,0.16198482300307449,0.21468731094667248,0.27451207706758485,0.33443538580009546,0.3943586945326052,0.45428200326511536,0.5138811968906447,0.5641496785923703,0.6195229624512071,0.6794224346458315,0.739227933978019,0.7909790120285223,0.8414100085530611,0.855312458700519,0.8200645820518395,0.7641625076164495,0.7063917768342729,0.6577861703484635,0.5989536193640426,0.5392899217813589,0.4889333570880958,0.43371985111899614,0.37381564062943395,0.3156963413815048,0.2671771109033161,0.20859574636937284,0.14871287171692416,0.09444263653127072,0.043306337139015216,0.0,0.002917699676895147,0.01872705313885703,0.057391507630065064,0.09784338460405939,0.1373276715452545,0.16042670239740087,0.1469272522011118,0.12587592541355308,0.09925174057841213,0.07867115734027097,0.05672132739938496,0.04167037634790738,0.03164598523957585,0.035389540513891315,0.047311306128129615,0.05928606930407687,0.06271572986022012,0.07691607276730084,0.09927110406231954,0.12410815772524275,0.149662426618419,0.1720735391544852,0.16521455337930524,0.14543767637584182,0.12277945008901536,0.09883990826058753,0.07532224813113286,0.05892332714537396,0.039086950865527825,0.02344012650045979,0.027312198580669023,0.02209515764526726,0.021506090604103356,0.031049968800106242,0.03251292522630145,0.06033118581212982,0.10829685370924125,0.16391294782370025,0.21341188195539162,0.2710382645793197,0.3194134420131336,0.37809423502596884,0.4380171051805761,0.4979404139130863,0.5578637226455969,0.6177870313781071,0.6776975183183755,0.7335544856935363,0.7834003459113288,0.8429274760490615,0.9028506120084585,0.9618014333882083,1.0,0.9920856995163851,0.9483654020089358,0.8917145801343289,0.8317992071163953,0.7728794336468012,0.7244917179632817,0.6665801839639443,0.6066584168992128,0.5467379125311105,0.4888431437207412,0.4402663292374722,0.3815175070698764,0.3216397219235052,0.2677371696289126,0.21617632304967271,0.15682049234697937,0.10709238877388572,0.05415661730206223,0.043303303775350965,0.05413518138366147,0.06655253194364574,0.10154978045873397,0.1405460886241272,0.16127503095272555,0.16070103178745798,0.14729680281187196,0.1258608386201714,0.10000719553583348,0.07092231857091758,0.05791538769092286,0.0462611756800162,0.03587395449296915,0.031325389207778276,0.03240076298568484,0.04497668061412696,0.05890429325801616,0.07143551818741001,0.09188183762486712,0.1221921950133642,0.14938097859878985,0.1561846031182048,0.15830720652933516,0.1444296401588101,0.11783743902117028,0.09865435728618932,0.0724732794941989,0.048656830497686876,0.025938226272121945,0.016870243319252243,0.013114845981895051,0.00273011003689394,0.00859010175282826,0.01446117533929625,0.005471095842117357,0.04051323828642772,0.09794899308420701,0.14629724811846812,0.202712614002162,0.25140640870141606,0.3101422262951381,0.3604104289018344,0.4157837127606716,0.47568318495529605,0.5356064936878062,0.5949143334993034,0.6437200418790203,0.7008289541579384,0.7607469250685228,0.8203161858982813,0.8689010065007547,0.8971819274581461,0.8734438536926068,0.8277852673260737,0.7701696207887578,0.7136950425683466,0.6643707037011097,0.6049463223639999,0.545188513081222,0.4934736215361255,0.4397201652371745,0.38734435364121644,0.3477085593745639,0.28941391418032136,0.23945329794979253,0.18375719592614725,0.1238477579687034,0.06396139170360637,0.014162439814682681,0.015881254966737313,0.03274884036030734,0.06129395188754616,0.10576698061779988,0.14412474807319553,0.1459206828084012,0.13381549995873865,0.11659085718035955,0.0928487241456657,0.06638012551898509,0.0507981779738067,0.0455304730352144,0.03578683478705669,0.040799260472922594,0.05221988892496254,0.06026254735689651,0.060414655439002374,0.060958686956523955,0.07686835161875294,0.10644690562908865,0.13126721669139885,0.15447762003967558,0.16208303413978564,0.14975485379786058,0.13130558474127874,0.1169319143444505,0.09473813239457085,0.07685409822214595,0.06490944970496759,0.0534347441319567,0.038640133209081995,0.03139300628560404,HB
0.11839213943224536,0.12229992959299629,0.10438518533585794,0.08668777970271435,0.04774902097271472,0.026953078052529555,0.09573884101000019,0.17266282454299597,0.24263666627132752,0.32507074088876964,0.40793850518136443,0.4908063064159114,0.5731332659543602,0.642796958724611,0.7201995197728497,0.8029408088340868,0.8757092771420116,0.9095262215344313,0.8761832911732776,0.8059213676455825,0.7236260775662675,0.6536027150413788,0.5766633581769365,0.4938225485942822,0.41154394712013254,0.3422050040447999,0.2644307171034779,0.18327947119301413,0.11974853387041762,0.10390831231348274,0.10985227290408695,0.12504349621362199,0.14728164021860035,0.19794080108791023,0.2433834333726379,0.28539488952693004,0.3165307029444775,0.29437414373875104,0.2517762880884167,0.21592270389437873,0.17167603522874852,0.1478891686837711,0.13613578870560294,0.12842472660169335,0.14428984698648506,0.1706923135526388,0.19234837902461077,0.22019413665130916,0.22124553086959287,0.2025752826219982,0.18124023911674803,0.14683519069183415,0.1176860106821076,0.09073457327684631,0.08149454716250748,0.08568109511362154,0.06018958208778491,0.03173376415481277,0.0,0.010403161236091751,0.07485094074928256,0.15346147782783515,0.22253046971506496,0.3006543032386073,0.38348290374581673,0.4605867813744142,0.5304615815096319,0.6128837683452693,0.6955546903011425,0.7674882570416259,0.8399380859508105,0.868313968994896,0.8160642189521599,0.7343981931252848,0.6580280028777632,0.5875105482475544,0.5049825661851606,0.4231918789630793,0.3548484692820306,0.2762362017269284,0.20699544545083937,0.12956941221765694,0.07402361478330244,0.056434241400503016,0.05376943614696916,0.08001216277959244,0.11417094912077141,0.16251805015899423,0.20863155721781412,0.26151294459588037,0.29374991799743944,0.2838314286808563,0.2448909544630964,0.21498939802574668,0.1892743471239302,0.17280711642768942,0.17075822036217403,0.17910704544188105,0.19301522460030096,0.2210268083374376,0.23872681981304522,0.2690218635527031,0.2816033533272013,0.2653885273851966,0.2525854126301823,0.20940891082707713,0.17751829685752085,0.15786521651360141,0.14986706646318648,0.1369626900100589,0.11663341949275274,0.10363755218093207,0.10103003889392559,0.05961308180301472,0.07136699659113299,0.14894006261038895,0.22961102327314098,0.2973362464651741,0.378305066228799,0.45912552857972777,0.5268926158356808,0.6076825433878588,0.6905249298805396,0.7677384880185745,0.8375056389173752,0.9154349468349516,0.9624674104777147,0.9412449685392335,0.8736117682310414,0.8040110537824656,0.7217058020036871,0.643990005190159,0.5745811667064658,0.49231597631088375,0.4115261169592359,0.3437590297032802,0.2629370439828116,0.1802433930661267,0.11889477855994812,0.1257671614423268,0.12919998503048857,0.149870059031028,0.18557909578743503,0.23286297051310312,0.28517874878300464,0.32139329737271005,0.3542162591533793,0.31897864400875786,0.2806039868158483,0.25786426610474855,0.21898565050095842,0.19502327997263036,0.18590090525818947,0.18722882294205645,0.21488173750836292,0.2474972987919779,0.27006164706872493,0.29733448930961126,0.29796551464224974,0.2815688281575395,0.25993003832382167,0.22682154230378027,0.18966237822206855,0.16306904627280971,0.15987779452556072,0.15642288833276385,0.15299122504185902,0.13474421322560204,0.11163128715717274,0.14591601722559844,0.21863112061141754,0.2904795606477455,0.37310235380132406,0.45597017824299657,0.5388380097888881,0.6217058413347827,0.704180157800895,0.7744682435732049,0.8511160448731596,0.9335987526548584,0.9970097995286169,0.9999999999999996,0.939432930967385,0.8672619692656967,0.7845762722570502,0.7021808329304728,0.6325288763797601,0.555178217604932,0.47242890457759934,0.39861934181499503,0.3257405590248519,0.2504888535269596,0.18192431126458564,0.14821828244838153,0.147550290806576,0.1589933907958221,0.19331294685280564,0.24326230739853294,0.2910440845756024,0.33643877281476664,0.35580013384287046,0.33697705313004933,0.2978308873547584,0.2569383153181315,0.2314262801781135,0.21533480273758343,0.2053300615307867,0.21527722356085377,0.2358792961629015,0.26048001942625776,0.2865926053375256,0.30175838709075187,0.31366766460516615,0.2865885403889159,0.25373822168682825,0.2192291907670434,0.18973342941220483,0.16998648506801972,0.16452420026114956,0.15704226675945865,0.1470088402575711,0.1182136808141605,0.08171604174146196,0.06647885201157422,0.12573553675928606,0.20638940319670507,0.2742517702879397,0.3543797725212401,0.4253264784567108,0.5011887134880437,0.5839622549652259,0.659364315111465,0.7307959774941466,0.8133408376807671,0.8885923501451227,0.9272751462281863,0.879432963058457,0.8121298157381567,0.7320996798676527,0.6526621516569628,0.5845716818959796,0.5027203576789674,0.42106669635472693,0.3530022814476643,0.2733453455960846,0.19362682590969538,0.1391423643562355,0.12824439382720243,0.13697150369692546,0.15984625998789248,0.1891207296815125,0.23905500463094187,0.2918074289807908,0.3404585789016994,0.35459158112063704,HB
0.43365765040934257,0.4750364178767792,0.5137731926183426,0.5367038555899577,0.532298190710057,0.5019395871616954,0.4717977329424716,0.44830359105821715,0.47201747079448797,0.5232146346325686,0.5695521788851501,0.6132390284869436,0.6284978966530339,0.5991136870841722,0.5533688954190379,0.512201913570415,0.46668090034575593,0.42098417577942815,0.38708791462345316,0.36990748100014237,0.3420453287481062,0.2963276872325835,0.24224579308705962,0.18171516793885045,0.1166092178874667,0.053767427989177996,0.057701655366261484,0.13208500764259368,0.2088651037611462,0.2762628595980474,0.3531872763697286,0.43171240620511053,0.5102245586418785,0.5851174645333557,0.6534460253161258,0.7313418979650712,0.809824668265199,0.8831794788132714,0.9470227609799329,0.9609659295418282,0.9017135533002087,0.8241171576294368,0.7543265981494773,0.6812114715586444,0.6036481868083525,0.5358896447536412,0.46025206756044446,0.39024497495547195,0.36335201736915934,0.37320415108346605,0.4009103909755507,0.4465958436495674,0.48642892679672656,0.5123298344122862,0.49469493433456835,0.4655019509863374,0.43104647254450557,0.42331487955380265,0.45542249372113597,0.4997643625452328,0.5486675412992992,0.5911196862106385,0.6121429272358236,0.5844416722897994,0.5401334643620319,0.4904413161492469,0.43940415781247744,0.40111140868870043,0.3718756514005328,0.35842104070862835,0.3480630790274941,0.30273012150581513,0.2441679300685804,0.17811356385389532,0.10096184952955367,0.03355148583830503,0.0,0.0623179738941384,0.14077028913018985,0.21874717982758662,0.28721791738888225,0.3618937148747259,0.44039978400931146,0.5189251880064982,0.5960195107251471,0.663439795916037,0.740032936231263,0.8185555142713143,0.8959216500147535,0.9577322686201999,0.9636007944798424,0.9060876637517659,0.8296767828292566,0.7565938214780981,0.6868072360229451,0.6085260956317957,0.5299991293204624,0.4520665907783892,0.39161245031019076,0.3878902712795633,0.39524486463037656,0.42075807541216603,0.4725191283892176,0.506609332485072,0.5478291437225242,0.5644282656341111,0.5286125578638909,0.49945100210130144,0.4648743481554076,0.4517568188028336,0.4769945844299843,0.5201736973711064,0.5647059180451839,0.6117682473296218,0.6292130982421535,0.600966306258155,0.5590395157995203,0.5083556508624723,0.4597297057750387,0.41669983691052037,0.38494260658024215,0.3635987334119686,0.3491407184869546,0.3116832348106535,0.2614003014010122,0.20663468531870022,0.1425026006346899,0.07382480602343611,0.007910805127989251,0.021508809531209927,0.09767537819030281,0.17620129431683695,0.2547283760371659,0.3332554577574962,0.4117646671675028,0.4862138421678859,0.5548660058382655,0.632820769865631,0.7030936305405748,0.7618868491301884,0.8302674362530884,0.9035233236794276,0.9716570473565951,0.9783969036587452,0.9159811927871813,0.8431835922125823,0.7733444611756597,0.6951381578835285,0.6227330630709682,0.5522901981670594,0.47480543116535623,0.4071866417688721,0.35356316940710864,0.3625159672056051,0.38821652970141773,0.4268524270944578,0.4743124700400019,0.516159166985509,0.5187229987108046,0.5038159952703984,0.46951695637404045,0.4453684158005289,0.43735084381749445,0.4618604810949334,0.5098408167053403,0.5581064822335131,0.592745900872719,0.6205098975954524,0.6026448044871868,0.5623718313061308,0.5172277055487555,0.4699666943499823,0.4218530095823474,0.3862433234341527,0.36854286948168724,0.3462580342656434,0.3079343081574826,0.2567300137140629,0.19186030030850265,0.12877849172988887,0.06591260045821978,0.018269934877582994,0.06923244030011677,0.14275257253743723,0.21198732128665476,0.2901570009450345,0.36706499101463397,0.4344362254210101,0.5112640198928915,0.5897886140933228,0.6683156958136531,0.7468427775339843,0.8253698592543115,0.9038244762795253,0.9743155602009619,1.0,0.9457576154403862,0.8785348398711519,0.802241712189053,0.7289139283479726,0.6593426855561915,0.5825115372532164,0.5150462798241278,0.43976898542416576,0.37903959654002506,0.3744697260188663,0.40432573929041915,0.42909965037828446,0.4680849959933848,0.506039650891815,0.511953490808652,0.49500965539430064,0.4594796751200869,0.4394594894751038,0.4394134155198044,0.4766744772765441,0.5290033112791312,0.5724330778869167,0.6055935011136011,0.6206711110705383,0.5858085362458354,0.5473905660763863,0.4978920962278903,0.4485551471368212,0.4097074798402711,0.3880294385965475,0.3677625385528174,0.33335123865645766,0.28254161967005675,0.22861064847131773,0.2048213883794996,0.2525588059054824,0.31181031499073875,0.3819591551900072,0.4603296507365999,0.5388421494118076,0.6137872589375322,0.6820777487923495,0.7599591393773957,0.8380411259194127,0.9069048244099411,0.9755011201934041,0.992302445578475,0.9314159086147229,0.8547955357329546,0.7874173844099164,0.7105617995277873,0.6340124867931456,0.566583578332664,0.4897618837232991,0.42081892252959197,0.37728903224248,0.3925588546572536,0.4215464830037714,0.46580911562811345,HB
0.15729557838311692,0.18101602962522634,0.2683665010291656,0.38486533897256914,0.47505337036620787,0.5655672961809728,0.6692226148711589,0.7731289436255979,0.8838322627179318,0.9852380491010484,0.9384447068273198,0.8367667434842838,0.7175995256489847,0.6139035936363895,0.5072955588325856,0.41570386379648205,0.3575011930757528,0.3957717390291422,0.4092823009245632,0.3298391109622876,0.23132317258318658,0.14867415605653855,0.059677405076761225,0.008294466271888012,0.009255421333188796,0.09528166759283208,0.18845790968646936,0.27548798530011576,0.3429112558610816,0.3766404113005617,0.4423536944497437,0.467233270857232,0.44645663216923825,0.34050813183572615,0.22017492002151284,0.1004286486214756,0.014405061703178568,0.0,0.006676461916980347,0.03746899914025148,0.1003220172522381,0.18690546831056798,0.2598089736583833,0.3500992666605449,0.42221685092987915,0.4694968077840942,0.48084393795223335,0.45255546589186846,0.38206856170940373,0.30271603103350797,0.27011526342275616,0.36665937434386153,0.4612460857829941,0.48415307927081397,0.5349004634770447,0.5856473806413289,0.6477081588048419,0.7253853824573318,0.8253806480353871,0.9201511210502851,0.979849269862406,0.9390368547373216,0.8879378554959025,0.8110536846437739,0.727283045437157,0.6626616729390609,0.6129631380985074,0.5976882731129249,0.5938957927904234,0.6202747752509676,0.5870496777870002,0.6142707154468585,0.6172105705596245,0.6546891516319757,0.7137112679612034,0.7797197302000036,0.8215753790978884,0.7856743498693399,0.7250878524236475,0.6681822800630881,0.5988121979190986,0.5525471954985512,0.4939506493746819,0.4559450978855688,0.5095519912219304,0.5894178030585397,0.6955476908094056,0.7959221950451232,0.9113161339930755,0.9917369677199126,0.9263039836857407,0.8099757325666506,0.7037154891125317,0.5950585777012254,0.47550124505785707,0.3861064330719559,0.3765254403742788,0.4298544663945636,0.456442864183046,0.45552205746780405,0.49768890880080097,0.5524132688559105,0.5888870020981329,0.644744830227193,0.719576415265327,0.7945363367834029,0.8749543102900343,0.938914426355276,1.0,0.9295083158040613,0.8427182547486449,0.7579821506864688,0.6731835464433855,0.6215586020143409,0.5788057471237966,0.5522461140374446,0.5251294322258779,0.4949420386836785,0.495689530062287,0.529545568950871,0.5048539928903075,0.5396111758817774,0.5718301055934409,0.6438607758782027,0.7111156074142784,0.7308918830634648,0.6905219332564512,0.6132753744245125,0.5337368829385536,0.47761604420942927,0.4247647336805187,0.40285394299670996,0.44086188042707875,0.5318891038856162,0.6358967703273164,0.7450066598362417,0.8645063777855881,0.963256088637988,0.9697350629636325,0.8563730194379344,0.7512745340077256,0.6414039168992272,0.5220628363324336,0.4221075701799588,0.34531684531118856,0.333263387797579,0.3497287246379388,0.3808296581554842,0.3816693312812012,0.3779860368553303,0.37895851083817567,0.4446887247806277,0.4999582236329232,0.5544816550955396,0.6305170889451892,0.708348379833752,0.7966915442745153,0.8717541199076297,0.9256746222453742,0.8736171175604364,0.8002734777477878,0.7181744231752427,0.6271366868819133,0.55503748303114,0.5189454326466265,0.4964109592712509,0.46110849630557027,0.46776510379234804,0.4960622955124405,0.5135361192799994,0.5088609042533436,0.5363543223967593,0.5926199721052736,0.6496450841665888,0.6999391410697475,0.7445307216897898,0.680317667833493,0.6133593381725699,0.5411910539441287,0.46856755884266477,0.42410141397805745,0.3972794828048323,0.4387454614615818,0.5182202852303615,0.6108606766761149,0.7282179025471374,0.7820038570846446,0.6920445450245776,0.5784101969766802,0.48145889694512967,0.3942462674240077,0.36874334745767845,0.40776673812243835,0.42924050140230907,0.4516524592235003,0.476155193819225,0.5127090909321215,0.5837610470160888,0.6329439317687298,0.7083045566282076,0.7772120581313473,0.8625795650402122,0.9280732321295853,0.9950479615179448,0.942452167792891,0.8680036819058685,0.7866635249817273,0.6973388838002368,0.6167712060115811,0.5768958454157733,0.5556202706712341,0.541863664003368,0.535541244635727,0.5723207867254985,0.59701402451822,0.6176015116657929,0.6367412819014069,0.7040106806973174,0.7569982262108068,0.8103992379294604,0.8289319283420822,0.7585857485764347,0.6750845553727309,0.6215492327554522,0.5707555521096968,0.5060235630768224,0.45565613631681146,0.4832349249697536,0.5695059419047155,0.6736602732258152,0.7768510837554565,0.8881647812597162,0.9626855820894251,0.8829364826117221,0.7797830571092605,0.6605939206690792,0.557714649792258,0.4520520732214379,0.4033537075605671,0.4369424542718523,0.45174185618194773,0.4773789562780175,0.5186099715849695,0.5303748100609811,0.5698221084452202,0.6291376011238503,0.7169469969929985,0.7960382321605559,0.8761439797483623,0.9313036763074152,0.9104220541719785,0.8236996481910426,0.7272370051555779,0.6736400917495429,0.6026991156490258,HB
0.04018644591011045,0.047750503817337364,0.0624104166338606,0.12258889036272613,0.19000414473784222,0.2632336435886482,0.3341037591807319,0.4054105841108435,0.48249308525904544,0.5492031830054471,0.6259570579328986,0.7025512788244161,0.7694367330167005,0.8465846297731208,0.9197006957869882,0.953541226065211,0.9092343537608869,0.8388042338624917,0.772045197642131,0.6973412725987602,0.6302764999768171,0.5542064197064409,0.4873238721628943,0.41250634004967335,0.34654376513200047,0.2834142870009546,0.24654167456082643,0.2659280387781413,0.3176334374783165,0.37092049299884033,0.40357728422592976,0.39072594293927665,0.35242627585111297,0.31999839602747215,0.3114864819242844,0.3376331920124276,0.35661071332848726,0.3491736054055177,0.316751817071784,0.26437883071918966,0.21379428279519397,0.1665848850646241,0.11939258122888985,0.07255986575922524,0.038363879588188876,0.03299647578440412,0.04480438348805649,0.04488979664779169,0.04184102666739031,0.06500683737132684,0.128388828465424,0.1947758181188739,0.2696804600890115,0.33647537365735536,0.41344282902633367,0.4921171061518157,0.570793517464907,0.6489917236028848,0.7171712508691619,0.7914684978139541,0.87006503466093,0.9420803159685054,0.987124949212395,0.9626080217090207,0.8932454802372205,0.8258932938089427,0.7526861544992336,0.7045726562928261,0.636743235018808,0.5626911030956578,0.49484148386493354,0.4269308901707798,0.3585415374503822,0.3005242696506536,0.27631296951786144,0.30996977089801137,0.36369854525415724,0.4110835383550473,0.415135571071632,0.3849657977921215,0.3475218326815597,0.3149384958182879,0.3118139582463204,0.3336359500970216,0.3417119942956863,0.3097182445872999,0.26310909865162246,0.21727231097650757,0.16817090592268258,0.11791460578501667,0.071154278791695,0.022816881396142463,0.0,0.00978548269483559,0.02005036143594996,0.03762519859678859,0.050418776448878155,0.09429766505769521,0.15758314184026068,0.22576399193156016,0.2968975818765536,0.37238059393962786,0.4395953064436706,0.517438286923182,0.5952751731998189,0.6626664561543114,0.7381041540828934,0.8156080586754757,0.8819382155708864,0.926779882404114,0.895078537651187,0.8203796602942504,0.7421444125666214,0.6736193876057568,0.5997148898866902,0.5243046759337222,0.4576132449572672,0.39109405984744994,0.3256058359695375,0.2702990602852391,0.268274381217287,0.3101069029861008,0.36605969550627826,0.415085021401004,0.435200358014904,0.4012898903920421,0.357168414043028,0.3195168633428871,0.2946372812270033,0.30096562283500417,0.32505859292374417,0.34336190860859706,0.3167129037796599,0.2809348115253658,0.22747369529400085,0.1732443575805518,0.12708240541915172,0.08185118711172779,0.047650831526921955,0.028125798857404405,0.045423848136752376,0.05900434209285521,0.0709737092888636,0.08525647153246174,0.1404150619520994,0.20865923609140813,0.27597050598642525,0.35096388848941373,0.42268013031205864,0.4931946372172322,0.5716978440317235,0.6503742553448144,0.7290506666579053,0.807102787720178,0.874753078626402,0.9487727601082936,1.0,0.9774606672159387,0.9131459484018021,0.8418442854112764,0.7744134211239602,0.6994987032404616,0.6305302486799182,0.5576253695874205,0.48914578458949887,0.4182439917774201,0.35430838232787476,0.29666891867816414,0.2822333924409328,0.31894605137742316,0.3772436435496318,0.4205485615385389,0.43082816281687775,0.40047931858894525,0.36730011566580023,0.3389552059576828,0.3490975383454966,0.37120947825494577,0.3701777936307167,0.33471035613272493,0.29453057565419494,0.24601173789123365,0.2003748376667227,0.1514077003651897,0.10188565040839936,0.06382559262835263,0.05664623509141764,0.056593431572683706,0.05661153615344805,0.06364317821501153,0.1147600771089845,0.18444601218400258,0.2529859547311353,0.3261818089885211,0.39432666651544324,0.4686149840280778,0.5438101465855878,0.6113172806987275,0.6892600578647894,0.7669358224812117,0.8341326834197171,0.9094270620092142,0.967288278048994,0.9563936439538581,0.8950716907719558,0.8194757482866923,0.7408081359474004,0.6634898139350547,0.5965460736463304,0.5208139450152287,0.4531538323610729,0.3846500079953583,0.3188776529105617,0.266406384952687,0.26141087353854786,0.3059489342073456,0.3665050681668931,0.40506549490722854,0.39497504379294623,0.3664301627833253,0.3312340586929565,0.3311731600146728,0.3537362001618578,0.37523828153618854,0.3655800085887515,0.3337106084699464,0.28552468193948144,0.2346679928144022,0.17638180786364366,0.13151717206707847,0.11680541711262737,0.09169119413444005,0.05340110040655066,0.05095735494748199,0.07795199782452666,0.10609018563059536,0.08063373837447685,0.07405262138855084,0.10819900052678255,0.1702338383031723,0.24174889870105343,0.3090747685288098,0.3845078129119295,0.46058367639959563,0.5227551232889769,0.5773896718768352,0.6529123666455519,0.7228638745558729,0.7951357620857102,0.8737424745428104,0.9509055982706771,0.9880904105053521,0.9480209447663119,0.8827876972677937,0.8131333306587827,HB
0.04296397079449488,0.06587824453091007,0.1169103136191103,0.17127492274012734,0.2268006359697532,0.2826910005887684,0.3457526673748239,0.40237421483944447,0.465328407434912,0.530279661504061,0.5872829378863269,0.6333211255464941,0.6914034155316426,0.7511761992137438,0.8095705518514831,0.8569697446847786,0.8458123680519654,0.7847349511159392,0.719832523126644,0.6620106697434829,0.6007085117004696,0.542042932640495,0.4925972464619637,0.43505196312861116,0.3745359020486254,0.30939379935870326,0.24711610695839958,0.19005675554753565,0.1286626171804055,0.07445398142788662,0.05683170495180856,0.0676248265963777,0.06799745054437367,0.05092650415614974,0.032871489366129936,0.01637481392375606,0.019146099481895495,0.018128455133012533,0.033956235404554835,0.06218215568316343,0.09656497898194494,0.12071573288720838,0.14254509652991243,0.16864229491344318,0.15022173870559197,0.11304742185568872,0.09333276323706086,0.07393008922447275,0.07753096147845895,0.08938980093841131,0.10681622233014298,0.15221442858208145,0.20365220517431193,0.261282012709005,0.31802292242616526,0.38047855316666235,0.4418408428208904,0.4996394204464556,0.564543730120699,0.6292754394242746,0.684999275134436,0.7297062814548569,0.7739658913170366,0.8320147869261367,0.8870644918336423,0.9164710814575434,0.8774535718783483,0.819296678501634,0.7591976212732328,0.6940553033033732,0.6288712812415294,0.5672391735465951,0.5096641584932331,0.4447954507212093,0.379587924422752,0.3159319015730424,0.25955520096759344,0.19735402628412602,0.1446615743042774,0.11204371452647321,0.09878162817847613,0.09343888937454836,0.09839441720230946,0.0946411251694792,0.10216725594429543,0.12102041415714204,0.11626505253603692,0.15240031874589643,0.19526492014129349,0.2494894465730284,0.30745040458380446,0.3634899727247385,0.4111046164449328,0.4151077128677696,0.3739253399587579,0.33251451512164376,0.29091735946344244,0.256340390462662,0.2121535676722326,0.1812667554571492,0.18023212172986458,0.16709908020267972,0.14734774281502583,0.15380866301665863,0.1904350141530029,0.24444988602069317,0.3017249836539744,0.358935763512791,0.41704558253016,0.4745671254759114,0.53818480561092,0.5945536578885995,0.658273610939633,0.7232873429992797,0.7817616761775956,0.8423695159884064,0.9073547266027027,0.9650517226359567,1.0,0.9741696514999219,0.9170987658881349,0.8579933207120876,0.7929146035532133,0.7278374461471713,0.668873393589914,0.6087963659010658,0.5436547509710494,0.47844484965788014,0.41323494834470953,0.34803338885072765,0.2852674961626027,0.22900176099128244,0.18462985008651178,0.18566174839214034,0.1940571771524302,0.17824814375956688,0.1558276645280683,0.1579275471286563,0.15915543876995897,0.1756164612629787,0.20356338250212236,0.23124397528399498,0.23809779184765745,0.21155226849390685,0.17009629064727672,0.12389409860216616,0.08708470664001688,0.04769725039932515,0.0182605317970419,0.02202868727400431,0.029482434605943464,0.033666765344593674,0.057270040891779894,0.10193180941278168,0.15593581795812184,0.21324773958032983,0.2723750491444319,0.3286768954749384,0.3917328998390497,0.4483758256449053,0.5112733641473994,0.5738289579162692,0.630710543628044,0.6953251437754675,0.7592165671362259,0.8155508042924269,0.8731750570620194,0.872603354619724,0.8214594943617683,0.7618630317153907,0.6968365573581106,0.637265437318776,0.577797111661841,0.5126858081232535,0.44855442919136834,0.39217844505959176,0.3321368115553649,0.28415524030182704,0.2229560613562871,0.16659419238248696,0.10602273967085796,0.06853523332148503,0.0756226269075746,0.0678785803065236,0.06768063874443486,0.0873608363444498,0.11238104853976472,0.11390601424229563,0.1212743832059231,0.1437383656518212,0.158736709982519,0.14038212301415154,0.11194337169427082,0.07477144310817718,0.03459799531079799,0.007128452889667569,0.010962115250171767,0.0001902442335741661,0.0058940380881618015,0.018451241922992523,0.05942203065310525,0.10977535620014645,0.1699324468687915,0.23406165840219684,0.29048280374513524,0.3537238611601099,0.4120487682099845,0.47280364443552747,0.5357344799565849,0.592375161808492,0.6567421167268304,0.7165505592437138,0.7757452524809363,0.8364749405899219,0.8730723321439058,0.8468292607016044,0.7887397828282032,0.7248865930200425,0.6685470128206097,0.6048204765597265,0.5396744852055289,0.47931490721703485,0.4206028477132713,0.3555769359581422,0.2933160926867324,0.236222873150832,0.17156740751251154,0.11681082895885742,0.11312284972695319,0.11192528663656165,0.09264849690911858,0.08217255148479397,0.09163212741841509,0.11137404417089569,0.13949124130584867,0.1720849051269835,0.18217386415260695,0.1583505103557139,0.12129412096720937,0.07992813568893586,0.03353437743419074,0.0,0.011245912760537768,0.020540457763569275,0.003887448669251281,0.01937370162081531,0.03453110004389437,0.07064779112581676,0.12193970082622774,0.1778590908561697,0.23441770618068714,0.29411248151125413,0.3508467738566652,0.41536196172415796,0.4750986005430464,HB
0.07871230462666023,0.027728132277805795,0.011326301123632643,0.06574916356736482,0.11733365617463809,0.1611277891633498,0.18054771974798145,0.2249377942943398,0.28608582794024695,0.3426599891234048,0.39555273992984397,0.4591493101059587,0.49495672893036424,0.5206100576848058,0.5588115899971986,0.5710142334465642,0.5806300578951578,0.601442587593159,0.6358043881456386,0.6663718358652968,0.7135034365846704,0.7663970959668074,0.8033037326840446,0.8452368263670635,0.8775556868067693,0.9183442678279752,0.9593232827443265,0.9848937161457529,0.9783310246528911,0.9435505830800444,0.89867681149298,0.8573882036314218,0.8037542489005145,0.7551263422869687,0.717660918931494,0.6920841271484277,0.6493255487768064,0.6032065405053078,0.5561831929422159,0.4934382878614598,0.43652752725393285,0.3815068526369756,0.3246450786253239,0.26406616198973554,0.1973098710033674,0.1448205012213677,0.08333308080651314,0.03232918345610081,0.041890799732398065,0.09745421980498703,0.15782102959398792,0.19033192170729807,0.2192074143123217,0.2738863255772026,0.32675650197663364,0.3835704071645267,0.43833464960622726,0.4948463375811043,0.5399701222873028,0.570796815139103,0.5920486697808856,0.5987618993713153,0.5911795335129706,0.6021514585603032,0.613989070985991,0.6433799209617423,0.6816997708026453,0.7342609768714223,0.7748499094059569,0.8004543025331055,0.8157286279656741,0.8145732179963434,0.7989994454150211,0.7762537095960944,0.7379669804791869,0.7073495683326998,0.6690179534741412,0.6327952236132623,0.617019173058996,0.5864950830625562,0.5377181920445269,0.4869858340303592,0.4280963265820166,0.37004108821480575,0.31726516980027597,0.2703474490088933,0.21648274968701742,0.17972067744804976,0.13670773221585497,0.1375697849208537,0.18049015604577257,0.2128101070201618,0.2580552064268007,0.3056735722283501,0.3615543904624152,0.4126097682395291,0.46316747716734685,0.5087215632473954,0.5329894325280056,0.5435115167007782,0.535536707325285,0.5558052921641905,0.5940191314399557,0.6204020721404961,0.6568252053347434,0.7038255631978005,0.7510837895901168,0.7970853952002632,0.8424806180869417,0.8874729325315167,0.9376240586628564,0.9809767674549539,1.0,0.9814704756378272,0.9485841494356655,0.9101552873693617,0.8558785150287211,0.8112155806364383,0.7741713731961894,0.7388824958444307,0.6925071970248284,0.6546575707310303,0.621522120958685,0.5810893895593914,0.5311756829042396,0.48037128259172457,0.4240802862905064,0.36055437742733343,0.3003388841174104,0.23960673061954862,0.17790972992420961,0.11669329438272946,0.055676038367425296,0.0,0.011044324195088606,0.06628096950079732,0.1224197862287646,0.17300109890736826,0.21153975303036932,0.24935797097440915,0.29984236551055776,0.35563086136693833,0.40776880904710877,0.46355178776402806,0.5094207847253172,0.5473166192267933,0.5771668538724919,0.589742816888418,0.597560868064376,0.6240971640694664,0.6505829656741469,0.6963691375627583,0.7373132747781206,0.7801111241054834,0.8187584889504658,0.8666491994656127,0.8950422131729643,0.9140022073668224,0.9236996638350976,0.8965615429093674,0.8662087273531442,0.8255833063134848,0.7872886075147858,0.7511201191710146,0.7205404591900106,0.6830295748490216,0.6457327274479829,0.6146169189473984,0.5634968773251754,0.5066568212191398,0.4499576755176853,0.39747629485192926,0.33641182065867303,0.27321390494553377,0.2004458979096304,0.1402562086790775,0.07998227711572525,0.01872102958934896,0.022936224469444433,0.06013900105449066,0.10850716427731832,0.16351153011113828,0.20021126761268748,0.22364595469202708,0.26880006521884026,0.3247004227865742,0.377145458685773,0.4323447748898652,0.4766322684425668,0.5140777739891695,0.5378865183855783,0.5517183252814459,0.5641753648983454,0.6001290187500863,0.6434026633395873,0.6997413239721149,0.75502539265073,0.8090928978838647,0.8674123792032615,0.9151727338426756,0.9448326417276256,0.9691828235084339,0.9776550923100129,0.9431015645005769,0.9007267480797627,0.8723511433539857,0.834009627698836,0.7927216670876533,0.762914077581184,0.7379657490492706,0.7090255259236455,0.6753899099993661,0.6424332694516348,0.6026810233221345,0.5613745988081158,0.5088066695262508,0.4519724674660939,0.3977372452418688,0.3467988034484528,0.2821562350802056,0.20688039776039524,0.14389609506733692,0.08270038010626646,0.037315796556345315,0.04276173823732776,0.08646239197720407,0.14752536156990637,0.19317314137669017,0.24807542683272965,0.29924986897430905,0.3447602913794898,0.37334085200212774,0.3813549862995127,0.37095151512673263,0.33177590357999653,0.2825700993717062,0.26917133167718,0.31972481785405504,0.3682473050623951,0.386520979626634,0.4278346841662768,0.47702424366590135,0.5117909013994906,0.5451402997806816,0.5646615261665633,0.5749377322175531,0.5905698172228475,0.6186350124897486,0.6627419394199787,0.7008753849701699,0.7429333477494198,0.782967091949132,0.8314600568327069,0.8666179246237533,0.8733410850187524,HB
0.31300183036536566,0.2951098151238356,0.25921362966654016,0.21737730162358782,0.1794520474324539,0.13979627732487598,0.10769603219385893,0.07879583030757376,0.070557399362281,0.07495320056812416,0.07650805700312935,0.06678352522398301,0.06925695446088032,0.10801731256418456,0.16735237489174493,0.23122347043707103,0.2914351678781544,0.35900551398596914,0.4194591425188974,0.4907509193702646,0.562403985791732,0.6239842973422998,0.6908806110563717,0.7628091733094919,0.8313850451538185,0.8913815774221145,0.9389343977574858,0.9194685566511742,0.8575222046469397,0.7977497814238941,0.7279819589413825,0.6681733444705906,0.5986575809363108,0.526700392146469,0.454861008453904,0.3910081788288049,0.328110372563196,0.2759584406700939,0.2379941917073305,0.22020971729709737,0.23665675334534075,0.28794841511503755,0.3245467028724378,0.3415633546094661,0.322490310045902,0.2978281979706976,0.2630612428739316,0.2537529172074362,0.26833219248515805,0.29472617839020154,0.31601706320693346,0.312579954672513,0.28934780159653606,0.25010983450671675,0.20889024077932206,0.16161712645708093,0.12383834880342182,0.09097934942105201,0.066512784760965,0.06104462160681523,0.06102560075533381,0.06102560075533381,0.061269381572365056,0.07794878294472518,0.13028933849877955,0.18909820679187073,0.2597088086295769,0.33166890895953527,0.4036300812141045,0.4754087157182676,0.5384924089113143,0.6037623934100695,0.669640711124023,0.7321305821912842,0.8037052270336043,0.8670634756639295,0.9073442765027573,0.884111922080733,0.8225926635658158,0.7525837182131005,0.6929828598188705,0.6227183383537582,0.5568017353852861,0.49435816289213985,0.42904083068765386,0.3687191584254519,0.30915480039743315,0.23985204449313446,0.2056184140324504,0.22208244339727967,0.25522471985865813,0.3021670643415515,0.3370481996952379,0.3249722063322027,0.29380861618490384,0.2551371934540292,0.22174353525302015,0.2039060873435754,0.22258419145920572,0.24793088116392825,0.2730255637999681,0.2961636854808569,0.2933653418878266,0.259000801409222,0.21856845688750237,0.17114457192068944,0.1378288367042262,0.0963077134976964,0.06616314029078074,0.045220100487088466,0.033684172440940685,0.03057092455202559,0.03994505073320864,0.03051199344656963,0.040796995076898046,0.09363972857149472,0.15411103345081845,0.22125882446713474,0.281875441449674,0.3499993861467785,0.42194522049815664,0.49390639275272674,0.5658643642624104,0.6355107930724615,0.695271602526784,0.7659735928431095,0.8372993073912194,0.8966918362194827,0.936895513374933,0.9172408389611784,0.8518677396637582,0.7874959326423183,0.7235344160058856,0.6517568510482765,0.5863234343720944,0.5233548686875427,0.45327999370712035,0.39487487785697883,0.33682000892053976,0.27326027173935996,0.2188295441490382,0.205906547227249,0.23043972070484253,0.276293793186857,0.32074016464105926,0.3180285672307699,0.2944181065794278,0.2634038542864472,0.2289290968705986,0.2226820608463802,0.24351545755041126,0.2639656200400955,0.2781058517035184,0.2718401510939783,0.24301278347608468,0.2047621053876263,0.16937600756496307,0.1156815796700994,0.07474010841415746,0.0416241975834124,0.01517103953326071,0.0005293932422887337,0.0,0.00802229049120795,0.003223741036553207,0.015022848200459293,0.044795386836610884,0.1017315226622677,0.16821099019797048,0.23588586243080645,0.2968293183825921,0.36806866817458017,0.4305660110771301,0.49231936577528224,0.5405813595446158,0.6062277283915898,0.6660815487643874,0.7369535398805191,0.8088608704420284,0.869505491727288,0.8643010440028869,0.8107568894886601,0.7514241667447927,0.6826917660816458,0.6173836338679588,0.5542999406749116,0.4826944574738006,0.4196097462731925,0.3550775225329108,0.2949359060922889,0.2344673230983112,0.18501100423028083,0.16744102557414875,0.18704359773100698,0.22867932520381373,0.2758433659099273,0.3086147512242645,0.28814924320889856,0.2598146102136125,0.22976633555733317,0.20729000878728643,0.21804939640454668,0.23629030883044688,0.26052498992849626,0.27485724565596437,0.26305933445116203,0.2336798414197947,0.18987214745681502,0.15389251833823536,0.10958265668377809,0.06957451559456818,0.046290976171817544,0.04547650538748149,0.05503058856652876,0.06952099286757463,0.09731600188310319,0.1345099241407497,0.15657517623216677,0.1885881206823785,0.24575955705192554,0.30960634612194626,0.36975797132464816,0.4408789986301027,0.511912796559935,0.571893527939729,0.6409893666209823,0.7122533171132135,0.7726686893317436,0.841094439714368,0.9097667554529725,0.9688136852263036,1.0,0.9577460901308719,0.8922137694881038,0.8306382144085025,0.761768520119039,0.7018852813100902,0.6388876155699403,0.5909655988705622,0.5328799350333178,0.46466145594581487,0.40544607319681747,0.3468466582233991,0.29744602397375974,0.28314047274154674,0.3104165830790846,0.3474796182880824,0.38446720934175804,0.3790355438674071,0.34981889823597045,0.31014925300680174,0.2850604424240175,0.2749663776313933,0.29727192621592335,0.3185068275405296,HB
0.8872865455777212,0.9477262735138199,0.9941071723019754,0.9856526502555973,0.93461072815554,0.8700040258430648,0.8039561986030233,0.7379061073735231,0.6719766096106046,0.6118954102365612,0.5523670675598238,0.4965701157192557,0.4607207711417205,0.4656207272858257,0.49773638711941115,0.5289843879950864,0.5420901621617906,0.5293627917569101,0.5057384920138646,0.48836066041112947,0.47672932967903914,0.48423038215885983,0.49600483519222505,0.5284930767955112,0.5660179761394615,0.6106460757300356,0.6488520059542942,0.6891339427794443,0.7119870508521005,0.6994503101511866,0.6704993368050447,0.6351997041901654,0.6000271849975105,0.5634741915621988,0.5331166029719419,0.5025916825963661,0.46035005250047756,0.41364510467255755,0.35570310029440044,0.3001601227257231,0.24517276840332447,0.18910107104991147,0.12613665855685374,0.06895198865031427,0.0146587084056502,0.034222567518974234,0.09351881710358723,0.15134226835418496,0.21010452025739523,0.26905422288287717,0.33485235764953925,0.3994900838563855,0.4566344725886897,0.5213310202248476,0.583005293816635,0.6420068354621753,0.7027835626502799,0.761771805006739,0.8190967150714874,0.882738206943936,0.9441461006541121,0.9881489949927529,0.9727808482912175,0.9125015303991542,0.8511991877462104,0.7918172426313341,0.7260108381565367,0.6647457894996411,0.605396256353468,0.5449515821035011,0.48543617527186256,0.44487364577617816,0.45710108429921403,0.4903849931093609,0.5271826548656273,0.5372105269638026,0.5195691069245549,0.49551777599528246,0.4763787670191797,0.47401293395833566,0.48532897465317504,0.50918619199809,0.5412366177538546,0.5858973044321305,0.6323748689543041,0.6700319721534114,0.7097694374346446,0.7158296777967843,0.6901460257489211,0.657113029326541,0.6252229091175856,0.5888280805714912,0.5606568012795483,0.5276072575619242,0.4935119525397893,0.44424604162744497,0.39386486213840377,0.33375242321078336,0.275394569875433,0.2139545028436567,0.15717071269456118,0.10175688028103802,0.0852067127011702,0.13208152450625255,0.19111960913658832,0.25149984739763753,0.31125019704499657,0.36933606148116005,0.42634207839297034,0.4861190494998253,0.5442419716035365,0.6068740762377658,0.6710299211143886,0.7282117135408797,0.7864131136188011,0.83710659892356,0.9015001311800321,0.9544302709925083,0.9645744534937846,0.9128876165791526,0.854979136010666,0.7920797459997511,0.7265021562441811,0.6685214505788495,0.6055884910510465,0.5431710306058433,0.48668665322508065,0.4457820668528978,0.45337692481052616,0.48507004841485246,0.5171687272890693,0.5364106075476351,0.5180519077951384,0.49596165393657254,0.4728901585337304,0.4620430561837712,0.4571351830394079,0.4607922026029607,0.48467541334452435,0.5151413170847323,0.5513530135941465,0.5985756842790595,0.6431397271136339,0.6789173995668123,0.6986928912342347,0.6848342855697402,0.6513959625694397,0.6191167673787201,0.5864068430477549,0.5577377020779379,0.5265336797420554,0.49585209108959516,0.4479807787113148,0.4039073108968605,0.34856004768744064,0.2906849377334404,0.22516724581799874,0.16400692904380865,0.10625842826805965,0.070220283676111,0.10182999636979284,0.16284141271746977,0.2200179454274669,0.28176180993986333,0.33720589382058797,0.393891035413358,0.452961063163944,0.5137902176335405,0.5793660142519812,0.6375646169447218,0.7002499018331174,0.7653278097486216,0.8218838905802275,0.8774591691824596,0.9395194505015252,0.9662533716727646,0.9260487094713348,0.8619805311861031,0.7979865354811153,0.7406615088481989,0.6757187261756963,0.6168126067406394,0.5550797928422022,0.4959148840008185,0.4576455932110626,0.4642064260450609,0.49685304569212696,0.5268375083072574,0.5377974724475036,0.5184780312452926,0.4898384321990483,0.46974664355732765,0.46974078158794663,0.47074407822065156,0.47787549353209435,0.5029317018003532,0.5391541448075443,0.5782091861882792,0.6227583303899897,0.6666443659427421,0.6981916426806625,0.7100033186084582,0.6787201600438415,0.6433317770882891,0.6122720506924177,0.5812713491965389,0.5463809035326554,0.5122002001855457,0.47779602325130965,0.43666283896707814,0.3906768307694539,0.33424312032086045,0.27730850979259936,0.22212443212810307,0.16271446620841723,0.09683772798631196,0.03193370118787087,0.0,0.043831465388185054,0.10173120705405125,0.1620599851936939,0.21908943118282598,0.27655856514415067,0.33873314005555777,0.3856309252601362,0.41649073876368514,0.47907304220099567,0.5400533033888157,0.5997377973484523,0.6632969904708244,0.7206497659033424,0.7796051303121643,0.8403914676597108,0.8994144383594684,0.9601544118046612,1.0,0.9661979615476093,0.9093507192947698,0.8462910492976685,0.7933291093469306,0.7424279053171388,0.6825044380957572,0.6168465804652765,0.5580363374194508,0.49787440432910146,0.4457158941457442,0.4236245436744841,0.44685068972343767,0.47850789385834824,0.5031027262365892,0.4901447932501395,0.4655152294106535,0.4376369862225673,0.41655182805834956,0.40321123127847613,HB
0.32486661225253854,0.34946959666281474,0.40978808537205635,0.4544990372819999,0.49628956176081385,0.4711569354286471,0.4235315069894079,0.39311468295685614,0.39056443250658734,0.3651956703139527,0.3828178455376534,0.4397693118465984,0.4317164425248836,0.40442989777010174,0.3915836510283448,0.36749354848674054,0.3208420941930763,0.2718034031707983,0.24033680344174746,0.20182769063767259,0.14492443403107158,0.18529194296839258,0.2771103788586493,0.36996803973847747,0.4628257848400912,0.5556825232895148,0.6471927962107524,0.7268439288091924,0.8168137090956034,0.9091036750116746,0.9813720223360387,0.9868886269685175,0.9166994798477393,0.8361679792768144,0.7662948461619408,0.6851528845666617,0.6046081277544251,0.5162922817730262,0.4293527042390033,0.35174289355990007,0.28219068516672063,0.2895453547024447,0.34398903287549,0.4107605197862112,0.44303569297672896,0.43194339091000034,0.3858581401669938,0.3525897981988222,0.321730424625871,0.30266590060559473,0.31836004195344625,0.3329985285731283,0.32488362305889495,0.2942463978881671,0.2448290052262161,0.2133511935511625,0.18513591418906294,0.13305595325406339,0.09228673596357195,0.05531367947183874,0.0,0.058393742774889734,0.13752319550378989,0.2279832656666172,0.32083590703952725,0.41284985399725915,0.4930327634773204,0.5819754916325488,0.6745334356844954,0.7525235054366588,0.7682357486552442,0.7054546563545769,0.6171531854305914,0.5363111639891951,0.4486445445287788,0.3670687493508704,0.2799436091509784,0.18728625922936848,0.11175111594635867,0.10889240750757567,0.16926765504685637,0.2519602129182972,0.3245894557748765,0.3448647119888104,0.31570439941683714,0.26783753630883167,0.2300201673973592,0.23428619764886127,0.24851617996441977,0.2988845906120998,0.34276386212410026,0.3553979633214488,0.37641691119839926,0.3401294342471064,0.27463782137812887,0.23210797118110316,0.204540532538787,0.1933702318886099,0.1422040563046827,0.08273827875693929,0.03338810285509064,0.09259351793618054,0.18507053816666597,0.2755134921922564,0.35503260104817524,0.44619929694868565,0.5390542161307263,0.6305128936211761,0.7101094850009884,0.8000683136064661,0.8825884372689101,0.90894565399707,0.8449832488942048,0.7536753291256084,0.6733241780310633,0.5970028027775274,0.5259525477535409,0.44404538746269084,0.3588362135117773,0.2777407531045655,0.2102034408440372,0.24223900405688115,0.29676988570317997,0.346614457718347,0.40077357883958387,0.4143191566142024,0.3980363544383403,0.3638941212808313,0.3858564105718125,0.4239050697421449,0.3859746856855817,0.39542992829785595,0.42389015858174073,0.4214956447518845,0.3972878484469171,0.37787545328261496,0.3312351527063533,0.282549158697337,0.2529552747641093,0.24343870985204052,0.20664428734814777,0.138282654377321,0.10785471247823564,0.1732184046596874,0.26370255362389683,0.35588861883558254,0.43651470693375716,0.5248449942337432,0.6176773598358323,0.7083427652090686,0.7740392127614282,0.8446644966371912,0.9358291098964471,0.9949437041829796,0.9568174295068768,0.8798670799047561,0.7907948846190327,0.6999916388843319,0.6206035870878219,0.5298967317607786,0.4468777936769439,0.37879009437669353,0.3153463909066221,0.25784083910880184,0.29146889802887754,0.35874141729802655,0.4108480001619621,0.43907561170055454,0.4401717287113067,0.3799727665558259,0.35667167298398894,0.3456679995344687,0.34713413253975256,0.37066251670959227,0.40409933567620504,0.4270850979164784,0.4618865397458274,0.47944856630367827,0.4482144144392173,0.38887070022319215,0.3276529427898591,0.3025796565704444,0.2848896231630875,0.21823717210024496,0.15534489677477836,0.13756761027156106,0.22019143933019114,0.3126193997960942,0.3943795586408485,0.481342277567268,0.5741592787828509,0.6670054879709797,0.7562640093979085,0.8361368108847937,0.9160831300971242,0.9423199618349751,0.8850334009388003,0.8045218134484093,0.7125571638335013,0.6306549734198774,0.5438658307196245,0.4511753841342778,0.3691931946353306,0.31306803078206036,0.33340824375288314,0.3854331133184652,0.45058087261919644,0.5265882716733676,0.5766570340381603,0.5575656942795866,0.5767612156472746,0.5673628327353915,0.49432477004676434,0.43328811743616,0.45479684630886386,0.49719583479563445,0.4797259082467926,0.4348491904509806,0.4456583193063106,0.4792133293541032,0.44669073579844776,0.39377807818078914,0.34658464011306256,0.31907154298452767,0.28178391727441277,0.2685687736863662,0.22215201169318854,0.1402948730511513,0.07516192281482681,0.06813425673993878,0.15298634829051672,0.24311090480885422,0.3227139720934544,0.414105684957085,0.5069607010006565,0.5982430941025885,0.6776969401347941,0.7680911135463546,0.8603244543486555,0.9407387201141075,1.0,0.9703997449337658,0.8840538142883507,0.7918563419142437,0.7109773820968659,0.6229282487729564,0.5300911963617465,0.43723345126013413,0.3445112251274951,0.26825135586777726,0.28281053998289485,0.32137995314749457,0.37535670264263477,0.4327945539961475,0.45075402392741903,HB
0.6765980844870749,0.6902807428277229,0.6788011953095041,0.7015665225748076,0.7341301537631497,0.7831663360187266,0.8221688749353349,0.8804119493975597,0.9559933704842796,1.0000000000000004,0.9830764801284979,0.9456834022571354,0.8858396584897581,0.8418003457807886,0.7931550503907867,0.7350874183454343,0.6995775756980698,0.6552583850647591,0.6157545788618672,0.556236299598956,0.5014472879958674,0.4366553389013217,0.34941422563026636,0.2619090831338382,0.17440394063741005,0.08700346228150657,0.01794829333240333,0.0015623957801520483,0.0,0.002185446493703669,0.02512879699318704,0.04990330195857817,0.09642925456789309,0.16771790637662187,0.22372544049481613,0.2695865366773451,0.3473580453162479,0.39784627259266836,0.4387447823852191,0.3986241056213369,0.3160999007845571,0.23048822003597236,0.16887686870235763,0.12263403172233023,0.14185349460161278,0.19307874624223453,0.26795788371272566,0.3361293570818549,0.41306163726008505,0.46770584664835857,0.4887596466300388,0.5057423929111713,0.5274257687840778,0.5326356329683546,0.5406526638134994,0.5601130763430509,0.5606880909161309,0.571473360291471,0.6013251834919573,0.6289057313736062,0.623026146227112,0.6320491871115235,0.6335699385775659,0.630668449541218,0.6294482181352392,0.6172034335990264,0.5989892489772202,0.6015853523699302,0.6165996126976707,0.6167116552534648,0.6167116552534648,0.6167116552534648,0.6167130576247088,0.6198684549840805,0.6432800593732737,0.662159952311018,0.7135098559435087,0.7522215133944736,0.8263544775349136,0.8934774727554129,0.9497226456156374,0.9514583299225898,0.9089190774710869,0.8511491859375773,0.8117430125786984,0.7549486255832751,0.6955749680205847,0.6539901601030933,0.602017129969473,0.5649849863879042,0.553236516473754,0.5331169954822577,0.5377937300054039,0.5611329729057011,0.5840976523233423,0.5823702782385332,0.5175197148510713,0.43162613216248014,0.36721268692648357,0.2835381213540633,0.21508168261049798,0.17708080993763486,0.2127799434961246,0.27282294320989253,0.3366218182347427,0.40226717951018687,0.4774511332356641,0.5255406078300235,0.5453235141380941,0.5605323076390207,0.5606475494538965,0.5627468148001484,0.585186167571218,0.5887159097807806,0.5989283588476897,0.6172276595924351,0.6382986024040735,0.6502128581606352,0.6717430525139005,0.6717513433618856,0.6369757930830775,0.6195875827481108,0.6424882705514299,0.6372169438122506,0.6172009110033216,0.6167250784194827,0.6228928350792979,0.6438484824980368,0.6447440815557131,0.6434923537582109,0.6215559513179181,0.6405194231840095,0.6755565925465414,0.7178536112800677,0.777466372524565,0.8440379479887485,0.894896255176898,0.9487860243374571,0.9983497232611085,0.9758860569806234,0.9106167198924884,0.868510097517428,0.8076762448210073,0.7475035224702151,0.7111784439090383,0.6545696272796335,0.6026199864399326,0.5817645072509756,0.5592449931859869,0.5354661239925522,0.5326307988727765,0.539351082369198,0.5759652172954914,0.5956770276703085,0.5705388346518556,0.48633794506972405,0.42583959997545273,0.3827742787638262,0.3064450273465016,0.23014006671029952,0.16473884257107896,0.1427637227378633,0.17728785861689067,0.25146659714273634,0.31554574986772854,0.4013030138353808,0.47446158792301185,0.5178848590833431,0.5344307655719995,0.5567468101851349,0.5606797816686293,0.5703653303623155,0.5884729113254621,0.5894936644593725,0.6105623928652473,0.6225639959838136,0.6437852983667773,0.6447440815557131,0.6447440815557131,0.6447384180034166,0.6376790695509427,0.6172369912997167,0.6167116552534648,0.6167116552534648,0.616978415842214,0.6329570764078771,0.6446859929913065,0.6447440815557131,0.644789091382242,0.6595787584416235,0.7002840766496967,0.7300376521458323,0.795502948372008,0.8545277558285691,0.9042104452811617,0.9666857515618434,0.9503580419397548,0.9081930902042434,0.8761422980853566,0.8141120343081236,0.754249929138783,0.7237053731306875,0.6619819785573546,0.6168207343272747,0.5771044154030736,0.5442487094684529,0.5516687421920738,0.5364618618035446,0.5444841879343891,0.5400986353379671,0.5842854952336034,0.6160693688013859,0.6087528822207706,0.5394174730693346,0.46012109925606515,0.39205002600196837,0.3050020678808223,0.2183094055501127,0.15738658015946694,0.14928116224657506,0.1991757592750827,0.2833744728398089,0.35047824260530414,0.43073462251973504,0.4977625383668616,0.5259266091499266,0.5597242746841666,0.5630300774503065,0.5857739569145344,0.5886800906492096,0.5921676542539509,0.606620447924715,0.6038400272962963,0.6394752354227866,0.6447406888310669,0.6447744738538366,0.6537256617924938,0.6722832785876292,0.6556482211252583,0.6362681325478428,0.6222687704792187,0.64364169806846,0.6447449094616275,0.6469748303146576,0.6695547338671832,0.6727754400282921,0.6727698440601517,0.6645259460228155,0.6502633934921449,0.6857476032260537,0.7092976555318731,0.7621579494774857,0.829106919380608,0.8696217589381035,0.9237992703093094,HB
0.11096323113837592,0.11788090779732396,0.16106529583022633,0.22797272940290014,0.2951175546724327,0.30906896806196027,0.29964909686361363,0.3158940299277573,0.312570040883831,0.26487665979953645,0.21469237886567116,0.1522457847901122,0.1063738151188316,0.04920267194746897,0.012540205804862925,0.00030160251905231306,0.021064260893679965,0.08580709761489125,0.13786553495799359,0.1907170163129308,0.23722790062437227,0.2490494890165853,0.28936522104057616,0.32977974074157856,0.32437312916058136,0.32994059306110435,0.31801595750647316,0.2539622585697243,0.18190097271413208,0.10981835992480393,0.03940765565484794,0.002283433279952174,0.0,0.011729296215421403,0.032488495822829755,0.07384498171556819,0.1276390891031598,0.16748624407987123,0.22578333913219506,0.27016627278042993,0.3121330550713486,0.33618547891300077,0.33735697061029857,0.3082436307328398,0.26272846227962665,0.214828331412118,0.18422011541700822,0.23131603578231585,0.3012293914751485,0.3364478595701854,0.34135946675494955,0.36976335748243283,0.4047808255829066,0.4218869304246651,0.41258771931925864,0.3911793633171543,0.37648033164446826,0.4017665000065924,0.42061966816505647,0.4632291412026346,0.48016372680942787,0.46708222683056544,0.44324282367440526,0.40576293841152555,0.3770163514053624,0.36298768175506035,0.3561568461490703,0.3599483168430244,0.367432457003237,0.35047417436229855,0.34066499703113795,0.3661136023847553,0.41905996829494985,0.4762310920862003,0.5467523447419427,0.6187549464484343,0.6801670375287303,0.6794135180149024,0.6171027371849127,0.5450893579742622,0.4776805930949921,0.42352710445996955,0.3862738972590378,0.3553536038350016,0.35343622852125556,0.3618089370403599,0.35206946769182323,0.3497544509772754,0.3417351189197513,0.35427242866500963,0.36968853539223545,0.3766331163938288,0.381859751245488,0.4071070427860306,0.42526991097989075,0.44208826730356954,0.42859380960098337,0.41091364592923973,0.4230590090307045,0.4096928532382429,0.4180896266518568,0.4447937357696605,0.46682125847396216,0.468776093702731,0.4394143254015721,0.3980960121803019,0.36954427276373947,0.35227344921906223,0.3430480694491611,0.3294329894636854,0.31556273623754416,0.3165015079090008,0.3358151425713052,0.3770891111890764,0.44683899205198685,0.51892115428062,0.5910048153659919,0.6630655549936422,0.7296116811681035,0.7848452630349279,0.7750887361991703,0.704655092701866,0.6350345548353689,0.5777603342815119,0.5069312956860501,0.4366623923429023,0.37933080965809474,0.32316074585739907,0.30235673600881086,0.3024781138013104,0.3207761843595551,0.33112944256547294,0.3275760172317459,0.31914346975519825,0.3389015291010984,0.34377111353848955,0.33961731711591936,0.3514302070012927,0.35412531850104223,0.37879146022434895,0.3808131333916047,0.412680805476787,0.4371401794859575,0.4255136946295215,0.4063267791100209,0.39342468171674483,0.39802469709129173,0.4002170087230197,0.4325820446900144,0.44469679415567454,0.45686760213886757,0.4468904069294273,0.4069921327594326,0.375845927319451,0.36184645355621115,0.34817467081279263,0.3387016888279297,0.33965810209332625,0.3331815571420518,0.32370389065217653,0.3422801498138792,0.4068033884952902,0.4726088810629925,0.5327643129064987,0.6045205018194983,0.6766041024138088,0.748255781190533,0.8077540502936005,0.8743369686810993,0.9463629002538334,1.0,0.9544546431330234,0.8840797582352642,0.8265632833843211,0.7568965939770331,0.6848184476859149,0.6154520930390355,0.5581831247128819,0.4974964458421298,0.4432412118800264,0.3846387280543677,0.33220946422706277,0.3225864236993399,0.34943230679736104,0.3416545801424449,0.34325592980980746,0.3371142487749479,0.35107920690357863,0.34987700084905304,0.3380744212188245,0.36110740552837584,0.37096971096754494,0.3893371124256042,0.41195792082790295,0.4399893575695071,0.45468330931432144,0.4391584794087531,0.42638126570520196,0.4332737327238876,0.459864038414858,0.48747347295179244,0.4960585901608012,0.46944328019923764,0.44459761859944136,0.41601476989189345,0.40179782797730246,0.38728773584226683,0.3703355985675305,0.35464484437784227,0.3659014464334174,0.3585074061502471,0.3719789237784892,0.4128803026681416,0.46771453385993533,0.527480229344631,0.5934288383716484,0.6654864208221478,0.7374060270673928,0.7994079972341188,0.8499666385214395,0.8131720566864282,0.7481243787120593,0.6875654601335746,0.6157116097826019,0.5456604588956857,0.4888213575262008,0.4364365324143429,0.39565792109267806,0.3479458540961158,0.34719403807236215,0.3518188092980217,0.35188067878705276,0.35942246326113514,0.36479018442585165,0.3551819078127929,0.3699518142387537,0.38560920320000847,0.40317207275473965,0.4214750979920261,0.4438631263167383,0.4373683985463508,0.41232040342314846,0.41779573794991354,0.4145852359733633,0.4239718144898954,0.4121829387976037,0.4395872966717276,0.46731165711832556,0.4729246352179821,0.4365197379007859,0.40705772122114103,0.3720544157393828,0.36058156386657325,0.3427762552534883,0.33342683758947445,HB
0.0,0.013804337001714684,0.04434963779925116,0.07651327466404179,0.10760414666463136,0.12535842357447935,0.15864079979547352,0.18106515678891544,0.1616484183219442,0.12897443542261788,0.10260882543917971,0.08032050857682838,0.056604693070926304,0.04981002720793937,0.07242286493100969,0.11542220431561345,0.1701896368955742,0.22771698285317843,0.29253274825561615,0.34916397148041334,0.404147265051241,0.4559326672757873,0.5218873616910047,0.5884027662677505,0.6549182932495312,0.7213961307096639,0.7831241300968412,0.8282321816294385,0.823216078664391,0.7662750890532393,0.7054156910529739,0.6457545193991785,0.5793820316100131,0.5128851561461487,0.44993257123256347,0.3920564022185262,0.3259587609243173,0.2595219331890166,0.19880554860303468,0.13908625670984387,0.07986811808314043,0.03241008893157393,0.02169566459581329,0.03352826484263338,0.06031273364143597,0.10581021642367494,0.1464150905538557,0.17808890928280308,0.1782090108741512,0.14619322756168662,0.10722193077430875,0.07258833711798629,0.05130928476754604,0.05406060639197152,0.08086760965715589,0.11069748287667514,0.14592471351165592,0.18053019340882726,0.21164777825139724,0.22657322590835438,0.25604021555141854,0.289134194264431,0.30648270141044787,0.2961543649476792,0.27056865750713843,0.25419735984822456,0.2526187069061665,0.28922328760678306,0.3463136646679339,0.4093136850638759,0.4669537263146708,0.5329401236975944,0.5988828188350164,0.6562614673251095,0.7198597808979446,0.7863537637894762,0.849966007937633,0.9073401639375351,0.968728319276114,1.0,0.9665617362795746,0.915426909966778,0.8669315642120594,0.8018307255443053,0.7374424520396112,0.6804811544965603,0.6149190394429245,0.5484919141524816,0.48808437610564814,0.42790012984575876,0.3614966439628384,0.29532323486221745,0.2451430396241867,0.2359327490158254,0.24792170992395945,0.2678541451778891,0.29986184972166496,0.3068488044061972,0.2772599567667884,0.24145686143670186,0.19895564712980507,0.15713894451628274,0.1274068668739674,0.09966335600661225,0.1061339344836405,0.13629088495202435,0.16807541209074328,0.20827082289037468,0.2388351152401107,0.2633863290789158,0.2999891309718312,0.35031170000495493,0.37102049185945907,0.3568415673933081,0.33224456362843213,0.29622975960961906,0.2673041222911743,0.24655053142338001,0.22546273845497877,0.23677826740069596,0.2909700834722604,0.3486978627746451,0.411624564881246,0.4772353247618901,0.5342706684407061,0.5985189014630774,0.6650253376134865,0.7295293060984034,0.786451995747067,0.8518850536902254,0.9118637959426925,0.9318268017251321,0.8887034047071891,0.8253602284003492,0.7588995907119189,0.6970860887113557,0.6382358727752298,0.5719475087509562,0.5059177477774837,0.44814833437335544,0.385026190838885,0.319532894455405,0.2688815351046112,0.2221001887279579,0.16251787279645447,0.11006972781115998,0.06420493287952733,0.015723511233581844,0.007858957283257029,0.035170152612056915,0.0645585768186494,0.10735015826526029,0.14952815600258385,0.19162592089967134,0.20541525045012587,0.17612209946404844,0.1365629684029428,0.1032257318695109,0.07654349018217022,0.06204062983819636,0.07872894676268372,0.1129387110120934,0.1463302123915593,0.1778407861752309,0.20593028422182957,0.2215333072743837,0.21639373166745557,0.19145542729483545,0.15588237024434326,0.13281951925515,0.11458629162486345,0.09730551412373023,0.10244874517598879,0.13648959543044858,0.19236855457940205,0.24961609082174485,0.31288849182300105,0.3783552852392753,0.4352290737127853,0.49978539736413863,0.5662970099086784,0.6328125368904587,0.6993280638722412,0.7658396942976058,0.8302260890803481,0.8707109009535583,0.8498808618706897,0.796593799768957,0.7312107764021039,0.6677791930825294,0.6102903409157725,0.5442902085452039,0.47778957189176285,0.4144397569319862,0.3568852961643394,0.2908780433320195,0.22718431436671027,0.16986027509447243,0.1061739539911799,0.06531746602771493,0.07050125201335233,0.08377111502869905,0.10719551857715137,0.1499727414774239,0.1858843813235529,0.205108880754862,0.19022003727511994,0.14828182225339637,0.10098526493214166,0.05406041140823148,0.010297508712327597,0.0012512392730683608,0.019466735201774332,0.05025739603645696,0.08635163481990937,0.12045661927253848,0.14655696174801047,0.16311286746629028,0.19873374241561237,0.2367493313327449,0.23006718600784604,0.19829170885661185,0.1730969205558166,0.15183451334557763,0.13578051387563184,0.13051647214460482,0.15586749144405898,0.19873645165300013,0.2581421016131018,0.32454862826339115,0.3872483073919737,0.44534103373375045,0.5114783517324537,0.5771846207748177,0.6342338425093272,0.6905105922038182,0.7405063468351067,0.8055412666470061,0.8549002637665297,0.9007407460479895,0.9357718682800513,0.906455440561083,0.8427977691039978,0.7839300764559827,0.7221373540256018,0.6556644072423516,0.5907100351873162,0.5339741823049131,0.4687526528796937,0.40229746139573086,0.3409373925920569,0.2816790295874769,0.21647041382036658,0.16187388030660665,0.13467072706488192,HB
0.6306629202656575,0.6156027234390855,0.5751764573679887,0.5513362700376527,0.5343558183925938,0.5378934417176815,0.5595295638227635,0.5772070398352804,0.554130790808594,0.5345980674990796,0.5459200436331986,0.5993237196861423,0.6567735865163513,0.6990000572982513,0.7319205248210041,0.7890545261758186,0.856090384859268,0.9216964778680046,0.9391210321024124,0.865471797018575,0.7966732512045365,0.7115725871770255,0.642014003113895,0.5630600801122925,0.48798454816813663,0.4192432782014097,0.35973411470385175,0.30230084446667327,0.24870145247122366,0.2591153859723252,0.3301286676147761,0.3812854874833076,0.4358706587952321,0.44604426417335397,0.4456373171012582,0.4305989447338132,0.3642155005273864,0.27815264255846683,0.19194798842607463,0.1057564191532312,0.02812093827902018,0.002419642334844152,0.0,0.004180174220127508,0.025903840166412895,0.059258887509607394,0.11837971634412225,0.17965760456441116,0.22524800035637416,0.29497915976698597,0.2793143919695251,0.23464458148741674,0.229659366022108,0.2729717009848578,0.3356382656225314,0.38640116919093837,0.43029253554134606,0.43670564491001773,0.43653266307881466,0.42298596056055393,0.4020680276878692,0.38600137045496474,0.3661890427731991,0.36523838130816033,0.38724515711199947,0.42362217556424575,0.46680045709010365,0.5177180308574565,0.5677798031866672,0.620012699163837,0.6619410462128092,0.6600608929924023,0.6343726174967226,0.6189975637491774,0.6066744565834852,0.6005754605747287,0.5830298719234079,0.582295928475451,0.5844529038196353,0.6049893628930345,0.6286576549419487,0.6634180191944412,0.6968853090629912,0.7484926097373936,0.7626651759776832,0.73234644397529,0.6851792075676846,0.6349656840016693,0.6055571656059411,0.584759353551791,0.5822958993834746,0.5824024697948795,0.5982436332026868,0.6476658492312479,0.6948989032396495,0.7460288297177824,0.7896356750412279,0.843171360880266,0.9074357092835896,0.9685522977971504,0.9542333087307568,0.8782149134892174,0.811444553961171,0.7271717090133283,0.6471102273357103,0.5783081046946732,0.4949146945390832,0.4284885366825879,0.3594652683449149,0.30208050836449196,0.2692227546883901,0.29788146445426733,0.35061516017650085,0.403154722554921,0.4470453683295106,0.4608787114060653,0.4607677186417005,0.44678559267224793,0.43654473675033945,0.42184785182958295,0.4071164586808842,0.38933024992497556,0.4034484376848022,0.42621888965894383,0.46754544799584474,0.5123548357765206,0.5655367005127943,0.617995666976991,0.6754462521316271,0.7224174712488587,0.7247644943930638,0.6996172538837069,0.6801156162688273,0.6827079622267265,0.7081472197082235,0.7368308113410791,0.767601415309902,0.8059005108422337,0.789668817940302,0.7468560704958991,0.7023087669810772,0.6492057341142021,0.6100647066312699,0.5851773454447606,0.5822973293744336,0.5823022737237831,0.5863678240814254,0.6223856960445544,0.6763747500392152,0.7258358452885858,0.7635966260111866,0.8166002373055665,0.8806560151734573,0.947871466670561,1.0,0.9584135960941618,0.8892972202222555,0.8183070783684272,0.7413661491446657,0.6552382893469706,0.5750046495098391,0.507351201873774,0.44242317075180315,0.38191955633469243,0.3411283653671182,0.356249612262173,0.4089521800837863,0.47267044785377044,0.5074670400036427,0.5095057426029754,0.5093492048835229,0.49632302269213247,0.48115240262045855,0.46214826904340534,0.45626868720442504,0.4378560777007485,0.45149782209307565,0.4837681162378642,0.5321776182418492,0.5830872373082863,0.6363805875337194,0.6881009058364906,0.7339518279413522,0.7298368304176908,0.6826745570090633,0.6428073041931852,0.6014212148183491,0.5586457788225099,0.5398225488856614,0.5579964746349368,0.5825973530544561,0.603791273806686,0.5848954703128171,0.5832887330922358,0.6097836807169528,0.6537204180964067,0.7062700748941735,0.7345647037831347,0.7966414740601637,0.8632776081846973,0.93874571194862,0.9950557464176368,0.953802319923791,0.887528121094646,0.8114311341176537,0.7415512827375155,0.6710089410207054,0.5938567178766254,0.5234965255862725,0.4474079324446083,0.3850172875444082,0.3278380873212021,0.29618528893656926,0.3278380873212008,0.3849169876241709,0.43496467548917916,0.473174506727124,0.4640401964539169,0.45461491231314044,0.42750831300628134,0.4126287500186865,0.40047197207271656,0.36535121466333154,0.33045793362227105,0.3169147219943875,0.33655517644568755,0.3636088208222952,0.41167560064031683,0.4571159202908248,0.5260313429128991,0.5724688721272608,0.6212220351854336,0.6180695191129941,0.5859878814060733,0.5819901657759496,0.566453194193627,0.5453206142471352,0.5338783019329503,0.5316846312991457,0.5121405022456234,0.5096602621991666,0.5238142317528491,0.5556283237706876,0.5889771495974694,0.6190294928894859,0.6605069655355851,0.7030347121644036,0.7117124315114971,0.6707834579563783,0.6276832348243984,0.5848289749247773,0.5563417424131063,0.5355671078833182,0.5186399697683428,0.5242795796231663,HB
0.2302101688221434,0.294290667838367,0.3528807290064129,0.4212068319840343,0.4806661663328491,0.5478229599649085,0.6181373924317568,0.6783193546957791,0.7445314843925126,0.8143318395513339,0.86674312085596,0.8622013638993975,0.8081715916681755,0.7394432173395646,0.6773856996865284,0.6132593825390678,0.5425817429667754,0.4740614920711961,0.41537595425236074,0.3458764846800282,0.27514392728171044,0.2071268346103543,0.14822965007531774,0.07861180546984325,0.03086768806538087,0.0546144709710199,0.0626526697233789,0.07771979778952609,0.11033718003958581,0.14981917701259428,0.19120693874660155,0.21441239500055254,0.20260278715104674,0.16791376520405565,0.14162434433958948,0.12446214734375394,0.13486430350880596,0.14270973751253635,0.1536262479352497,0.15861630614628686,0.17668936733866225,0.20067851633793987,0.21905705653328233,0.24243054545145215,0.23858341070612354,0.2215882842406729,0.2149559924329436,0.19385816340899975,0.1591800389655429,0.1349968385074929,0.11691156043554063,0.10114981606519713,0.13389920546483358,0.18899532884259784,0.24653709156046277,0.3155568054143232,0.37714357556479206,0.4417890259336801,0.512331765084753,0.5748607882128045,0.6385248694091046,0.7081498442583909,0.7668620200441811,0.8275981823112271,0.8436509841830149,0.7986671179514597,0.7403489634842617,0.6728540035332058,0.6021244355791846,0.531387297238981,0.46065015889877703,0.3899132027776955,0.31986675844182333,0.26049462161842873,0.19320316687875394,0.12259318724245372,0.05980145140115445,0.0,0.0012883653161526176,0.031288709420025373,0.04468710227334238,0.05545410284434826,0.0972496872737354,0.136812982305063,0.17581146951197635,0.19489072920419304,0.19056649202895715,0.1932607211566726,0.21985067327757202,0.25540812736422636,0.28914873166735555,0.29322479099531185,0.2799582060119956,0.2534752145766763,0.23971937024976153,0.2424351036205934,0.23437887202538077,0.20653042584847414,0.19936206213970564,0.18647069954818773,0.17125887237025905,0.15670595674835663,0.16539105582455438,0.15802680457233498,0.15540552652983974,0.17740655382775516,0.21874799410738355,0.27375953902427685,0.34191889948058574,0.4016298554546389,0.4682740806226273,0.5302908071426913,0.5944719249269439,0.6651176372713286,0.7312470789675194,0.7915230927201873,0.8617808508314861,0.9258235022645636,0.9839640165566945,1.0,0.9559106751558142,0.8974498120513901,0.8303840709222357,0.7600883377388086,0.6998769312359112,0.6336736954492634,0.5630349787256708,0.5016089677115736,0.45245547683298115,0.394793538358273,0.3265311252285694,0.25579987810978544,0.188174194269628,0.18299853951441936,0.21661444483423375,0.24157282324450113,0.2651125690615319,0.3011097988504079,0.3363173134514583,0.33668335416671136,0.3070539961399037,0.2596518873239706,0.21716589275382026,0.15869544194626828,0.11885983690891733,0.08276019000965285,0.06345870729497038,0.07381938246457498,0.08859393465321608,0.10464055077136791,0.11367759533357447,0.1401346368134737,0.1682316685779064,0.18845927795494033,0.20605212856550548,0.2128720332608145,0.20481545799647005,0.207871158926054,0.1850126296635186,0.1692199483065555,0.15332816750757106,0.1378708684686405,0.12760859296000016,0.16021031901652494,0.21360600194668455,0.2763746689277884,0.33576401127403166,0.4019858524724098,0.4616114978051118,0.5318131948391605,0.6025501965150242,0.6732873348552264,0.7440209421910482,0.8124175152617239,0.8693775008457534,0.9077265050975152,0.8830075595314524,0.8189563622151965,0.7603982997987004,0.6913583356153614,0.6236800027593477,0.5645612823524648,0.4946500189655083,0.4239148317821235,0.3547086903210368,0.29613530523631315,0.22721040278609284,0.15649335067469616,0.09151994953201603,0.08084919217317799,0.10592973261888083,0.1085947174628048,0.1319108120648127,0.17389030466024558,0.21922690972732362,0.24554339291826777,0.2408757367170904,0.21268766618116874,0.1809152208823317,0.15641534431944537,0.15935547039313613,0.1694644328883319,0.1785921573662339,0.1879064222818969,0.21752676172621177,0.23355590590028186,0.24220710393949751,0.25896418932275367,0.27264969863663246,0.25355637356694505,0.2382811768645734,0.21732925297174166,0.19427750764205598,0.16777377731068377,0.14847887526091474,0.13323955683023447,0.11735619584803647,0.15551152249567224,0.21127660779551727,0.2696991468668992,0.33639220253172475,0.3955437773302357,0.46532322906016566,0.5279263504571148,0.5849700906129147,0.6331309880001466,0.7011957155350381,0.7605814021768227,0.8276241163600528,0.8837126203711776,0.8784760526322262,0.8238970644688606,0.7576919943944262,0.687047955376507,0.6229608974329315,0.560933462457903,0.5004301754046088,0.4499625199984334,0.39058053399709713,0.3245672846145733,0.2538643640562799,0.18661109681093047,0.12731141061927254,0.07147897728090635,0.081705390476563,0.0932788210552844,0.11122854077982014,0.1488766648538271,0.18632540172636114,0.22362447911365013,0.2463216859145274,0.2356042829079401,0.2048601417997702,0.17659718376983946,0.15649884690648763,HB
0.2935979506892519,0.37155794554981014,0.46706476926489415,0.5544655235343381,0.6186598946695501,0.7176619888472731,0.7982369006726993,0.8484448042512067,0.8190992317961072,0.7332339119349696,0.6611523321015751,0.5898235531456528,0.4744022392577847,0.4655881868718268,0.5033841573405136,0.5334752031845014,0.5484762288494931,0.6006305800323037,0.6423227424778579,0.6069801776623001,0.5809134615243199,0.5725319316848791,0.5019718402114464,0.4023275102461463,0.35040050668974665,0.32887183467135195,0.29541237252903585,0.2715207131601671,0.2487679605376263,0.26783292516854296,0.240136552179405,0.1794636402258618,0.24079701047864255,0.3768146388074589,0.4973481224843095,0.6134721069391356,0.7421513022485522,0.8303692472789548,0.8210755381517361,0.7442110663133823,0.6164197325197378,0.4892860516259345,0.37962798299874834,0.2921664370175936,0.34220259274373444,0.35259117017734454,0.42432187558926504,0.5267092042373935,0.6288844716625483,0.7207155356672006,0.8072841160338333,0.8985406397667033,0.9610898119857554,0.9266219813275285,0.8384129123811368,0.744316462624381,0.6468073576803857,0.564052796353983,0.5071491660061049,0.4991517365737792,0.4817077555923781,0.5321077621469152,0.5943164459405805,0.6385676589428213,0.627188923002989,0.617316726383458,0.5606818283294341,0.4763883325220455,0.40490488373182476,0.3768905007022756,0.35746808211028824,0.31329853668222896,0.3107320947877419,0.32697705283520495,0.3145070118134301,0.26925444791604747,0.2187228740693179,0.2085366277529781,0.315842329207805,0.45302862567597124,0.5738279000616595,0.688805439206325,0.7677408995314181,0.7177054414043056,0.6075885010367639,0.4876866867234497,0.38126963218950216,0.2736292534796352,0.25765080964551146,0.3027484971360135,0.3731079173367373,0.4832220153670539,0.5896023651310935,0.6627400960478678,0.7639233500261504,0.8533038716517796,0.9155359500142515,0.9090090404188151,0.8179546142867586,0.7178520446263335,0.6330006560537784,0.5415154577848016,0.45460186188591223,0.3861679270092173,0.3730114009697134,0.40469902172622874,0.40278570469337005,0.42347650009883253,0.4409146898048082,0.4589602292546955,0.41806452190995813,0.35437728160502857,0.28150842224522954,0.2532826704071356,0.18970869989424077,0.1819135720006333,0.17600535593386724,0.11779696904864512,0.08218225362230314,0.04849274016594851,0.03890314513948123,0.0,0.036933238764470744,0.140951646243467,0.2504015371510402,0.3750576967703383,0.49570762903468957,0.584017745285327,0.5908202394480577,0.4901157360600834,0.35808845544753787,0.251552216390027,0.13853776552983188,0.14447204716191653,0.1607270896042836,0.23903315019810023,0.33370850250806505,0.44163465357913445,0.5409671936798581,0.6131709482076122,0.7138314449730379,0.8024129765233372,0.797353844177759,0.7147256381064571,0.6161622800746729,0.5535483837281392,0.4819121500003254,0.5025321652990247,0.5247331666159294,0.5492660078730003,0.61317783915508,0.6749480492902542,0.7199698226031321,0.7220298130134744,0.6881851044534368,0.6395386082269576,0.5602490278512473,0.4910964172845125,0.42330690033123375,0.38654291550522846,0.35560728625000504,0.33126634533441557,0.31447066538131274,0.37052728432875615,0.380313495551448,0.2916272380657192,0.2832720415139507,0.38421073699078256,0.477530904939127,0.6000849513210529,0.7108394522215269,0.7917368615328613,0.7980518347693932,0.7163771172697686,0.6133243251956682,0.5219845677220709,0.46575183385779084,0.4432475053998628,0.5271391927421698,0.6400123697806404,0.6942716056943823,0.7881554828672517,0.8842347756384781,0.9805559554436876,0.9960247399450735,0.9370562206249025,0.8494106480049446,0.7519569285962255,0.7033545983464897,0.6533044167258284,0.622020135561554,0.6652612325868814,0.6956614856995653,0.7169483135044192,0.8018559551947471,0.8653353493735905,0.8885051719892134,0.8622190983814804,0.7709083011729927,0.7303413874250957,0.6778293308303454,0.5811826875783925,0.5059335374676133,0.4715269368757813,0.4361300354907902,0.4612483277248849,0.4049659932314631,0.32404871445183225,0.30573551066194415,0.29183038832527775,0.37667942893162554,0.48552346330682106,0.6114423894837833,0.7407571401847681,0.8490224289025559,0.9624365747640988,1.0,0.9254574418913109,0.8093455962299716,0.6902701278606109,0.5641541388419204,0.4703788533383868,0.4048193136959508,0.4266070121664596,0.4806027149019556,0.5807427927580333,0.6760831345537159,0.7678668701569284,0.8700968246462013,0.919535024739405,0.8723156723985559,0.8048823709939663,0.7641736051933901,0.6892224656932182,0.588194143357966,0.5503135065720679,0.6308591154743999,0.6874140261271995,0.6814014517076608,0.7268301077678831,0.7046562624476627,0.7461341711752816,0.7670861752656952,0.7258785033271726,0.6784926578477473,0.6126846191811159,0.5500489104647075,0.5039155916548461,0.46692811993604444,0.43166243093055723,0.3349406584586303,0.27413988891932917,0.2513038408549404,0.31697325093285045,0.33844532066805755,HB
0.22780967500091642,0.2208249307815493,0.18875463193518516,0.15450005065405903,0.11675182005300067,0.07803142642956495,0.04425355220044991,0.01756800982539941,0.0,0.0015004108024478935,0.020589862177673668,0.04686770387343997,0.09180859235706662,0.15069044314830626,0.21827118374544585,0.2814348036117995,0.34174766986985916,0.4069164804158645,0.4654789128467087,0.5326097829537144,0.5977901722246839,0.656494600614802,0.7237216242736977,0.7909325801648459,0.8494084354201441,0.8978006725998673,0.8811683960431764,0.8193166435163384,0.7523693981592297,0.6939879153173709,0.6282395922365536,0.5603428904175594,0.49246142725731556,0.42805534633057074,0.3688000507702307,0.3013623619781638,0.23730032642124654,0.17776436030690523,0.11206959345733103,0.0591657516506936,0.05356824720056208,0.06021803048269447,0.04237551478512347,0.04223530158449451,0.0524481603018323,0.04122948272812166,0.05555887294563244,0.060441935946306646,0.08817483232069834,0.12292989308933167,0.16928013909246054,0.2007361175536182,0.20847900829788135,0.18595703413097042,0.15028229250939096,0.1157877811411192,0.08094959306264538,0.04938084586263325,0.04468402256783288,0.022017640874440136,0.015210424045287496,0.03120014797270021,0.06566113272926533,0.10995725520018929,0.16822266054443413,0.2229237231139145,0.2838432943355633,0.3515977343271255,0.41949921265767887,0.48719458131033844,0.5475317401299742,0.6106490960751729,0.6784204370871374,0.7404602881024,0.8018278211310721,0.8692779971153966,0.9283354294637707,0.9634234898640253,0.9325565740696742,0.8674030546676226,0.8035174606807625,0.7438351423964267,0.6762794756893766,0.6083785174837375,0.5412317755114755,0.48265918106006667,0.417267510601919,0.34940173526925666,0.28579625704026435,0.23338295008793275,0.18263630867252467,0.12281558463352105,0.08647625368553125,0.08477248440778706,0.08285447244926725,0.07501614242667709,0.08165837077904148,0.09696862365744541,0.11823488876669086,0.14643401533258316,0.159686828439648,0.17998036264531359,0.20951994900584014,0.24616445999288783,0.2684051288552636,0.2615571698813295,0.2300386699470962,0.18959568025391182,0.152680452810116,0.11766703863161188,0.09473807103018994,0.08033708081051905,0.06863375498492164,0.06431232961729294,0.07111171198006683,0.10472089415357533,0.16143017268082738,0.21897082384079058,0.27696110584873046,0.34126845714383935,0.40277007524461816,0.4646394748744165,0.5285908667482013,0.5881281394736197,0.6555612345897217,0.7172059864633911,0.7789705315111799,0.8467656201542699,0.9120434487237266,0.9694072151793283,1.0000000000000002,0.9628324698608381,0.8979762139902172,0.835274943453115,0.7745451881664855,0.7068203152878356,0.6389188369572822,0.571017358626728,0.503115880296175,0.4352163318778468,0.3687299079040669,0.31052572336083695,0.2441231719828758,0.17924637848404656,0.1219558904677378,0.09632807894439321,0.10582315984600243,0.109989562929097,0.11010564602973072,0.09970439926028773,0.09984449558094455,0.10499445546727215,0.09997574730513459,0.09948701942627403,0.09869941273314686,0.09420737936455725,0.09071428799972447,0.11050131359881754,0.15093426858049974,0.19410944842370292,0.22704266197619627,0.24896870795512283,0.2344277894657789,0.19916808734541847,0.16200912522712785,0.12286091263613064,0.08300317498141196,0.05362135949501523,0.054403376838352946,0.049081078951321855,0.04455270055690752,0.06584804810439393,0.10449776905147945,0.15903274297949177,0.2199605068963828,0.2876946848816908,0.3534754309282053,0.41184559622310624,0.47698806426026175,0.5352779328079336,0.6020039635005541,0.6695181791070526,0.729017487652533,0.7931287484750971,0.860963086132182,0.9240436744974849,0.9711816559144373,0.9609733377690304,0.901129093924075,0.8333020829941746,0.7688178035073132,0.7096237708007409,0.6421803722867987,0.5744128682527154,0.5131405126938218,0.4510019038014754,0.38322727913786747,0.32020558248360564,0.2597760546084442,0.19228126181016036,0.1318005325343934,0.08289375385908238,0.06667980691312136,0.054299162179307414,0.05281203616856711,0.05034173312100543,0.06472208501153442,0.08264611848722336,0.0839644795592902,0.09425557114573802,0.1168220883141553,0.15549097332088846,0.19132011722720166,0.21651135560768453,0.20251473473157344,0.16920536893392035,0.1334667442762354,0.09726612074551055,0.06255759655458037,0.04688003326576151,0.03810962903906456,0.019431422478098037,0.01684269499305935,0.013919095046354357,0.04223774610490194,0.08801191722877566,0.14230708920086488,0.20126442711571912,0.2595061946685877,0.32481868603072406,0.38494257492356376,0.4482987223755497,0.5153580964650757,0.5739054204653644,0.6393696990777678,0.7072570903752513,0.7726325493505517,0.8312099487261311,0.8959373660079877,0.9355449970054119,0.9096939270305626,0.8543759641097786,0.7882106124592825,0.720311657052201,0.652410178721649,0.5845087003910947,0.5166290650044456,0.45239496247180644,0.3929973260034687,0.32550453475157215,0.2577659151371916,0.1967552976201834,0.13445683483858617,0.07649676971153352,0.07273129059455807,HB
0.21857279086407466,0.25373729322386973,0.28135885087340773,0.2813036424121038,0.25535332516280107,0.2204491380132052,0.18053388023644246,0.14554339722362108,0.11363725375956069,0.085213337479495,0.05924673960806759,0.03910022295559967,0.01829583058605877,0.039875362840704476,0.11652591969737669,0.18364878074561153,0.25956003876891875,0.33963508730031355,0.41955558261008585,0.49002718830550096,0.5621317216268662,0.6421284838033747,0.7222188132458114,0.80229985189973,0.8759269272412689,0.8921558399594285,0.8358980126647597,0.7665938098966367,0.6935786667998376,0.6135399944871152,0.5342527909442301,0.46725597173896993,0.3911284026932864,0.311145229495394,0.2392222471560581,0.1685925622763147,0.09313445776145146,0.027725323134407898,0.0,0.024575683343754928,0.047558120707487106,0.08684969805243536,0.138569920922603,0.18432674730044463,0.20113479823872193,0.19989942483062428,0.16955814757474652,0.12054003577161732,0.08425915503458059,0.07529056390626598,0.061817806313346324,0.06013445919026017,0.07507766711870323,0.0953964529221043,0.1346880436738851,0.17527987396806566,0.21459927976403215,0.25012224304020325,0.26647360772192963,0.26382117349771095,0.24702851973346496,0.2090325031137894,0.17635288482913403,0.1403001744776824,0.10383400550798383,0.08954510895227275,0.06680668772955345,0.04860270850213455,0.0218560683459863,0.05616569314089981,0.12710951906351475,0.19767436804492178,0.27762288996299445,0.35770372798208916,0.4334182595263809,0.500678416212371,0.5801164384052853,0.6602066159084914,0.7402926875665599,0.8176825255085656,0.8833391925388288,0.9394812607425682,0.9214099651753433,0.8518806612534888,0.7825111575198553,0.7026693929613108,0.6233959002047924,0.5565343792431063,0.49230543117791425,0.43482464092190787,0.3558634973035044,0.282125265005301,0.2132253288117374,0.13380688095746418,0.06547847102656812,0.011965731568227778,0.011521754928967898,0.039836478885578064,0.08124272322344384,0.1333472843521477,0.18451246709032576,0.21544596433603802,0.20363794328452922,0.17375440511609686,0.14320676206247196,0.11349157238552632,0.08107859585427635,0.08384061727238201,0.09242851423104836,0.08516685554240722,0.08232552935179704,0.1006009606735816,0.1310765226309787,0.17307790473514295,0.2185920550253755,0.25500259163128325,0.2851188863740908,0.2877215593096869,0.2573621288111978,0.2275396680981352,0.1914306159924477,0.15440703893675822,0.12429954805424881,0.0953402797995091,0.07173208158926858,0.04673907052066095,0.03382590479932057,0.07046266927553502,0.1360497302675001,0.2149794481852254,0.2931171950585574,0.35918346760398423,0.43738524741291096,0.5174734566134398,0.5975637860558769,0.6773766482812493,0.7463554085798729,0.8200118675408294,0.8999161286122233,0.9695571105260345,0.9999999999999996,0.9587626868736532,0.8901332887922679,0.8102996855327231,0.7324064794311016,0.6662743725154923,0.5878932413950531,0.5078037580455876,0.427713428603151,0.3476230991607139,0.26753825839095047,0.19054095845374963,0.12415437403892282,0.04682334393193921,0.012541926043548646,0.027095364758658924,0.05147441487631266,0.09173812189934738,0.14476699207879573,0.19602482188290882,0.2168423857905184,0.19793713817658132,0.17486258677243693,0.13820397554943753,0.10087061436745692,0.07866169354030861,0.07629810834770323,0.08270175846383321,0.07997487437768003,0.08747383113814289,0.10595117883065974,0.14355665646194238,0.1872443362488334,0.2237934332703877,0.2521233669455665,0.2527867527418586,0.23106092066617512,0.1940089448114004,0.1562683921183723,0.13065284108568598,0.10273484240674646,0.07492465211325738,0.055996887596073464,0.034189886497209,0.042320509373555915,0.10813376364636751,0.18789451165162863,0.2582347444004789,0.3304754409583648,0.41047613985175957,0.4905351286163153,0.5648783285630792,0.6332875785616623,0.71296957806363,0.7929158909314591,0.8625027491024957,0.8951038391222337,0.8608533600220425,0.7829700202533783,0.7042861324050391,0.6380627814128674,0.5605629440714455,0.4805213634738057,0.4068649045128514,0.3378861442142278,0.2581681614937459,0.18610901591788842,0.11561007987328953,0.040879340383295215,0.009130667275818904,0.02736376035372068,0.0493761401618551,0.09252946253974548,0.15648467385692788,0.19630128054818607,0.19558151757194597,0.1815184441847233,0.14268893454953568,0.10556086905619999,0.0814368981693887,0.07248681365104348,0.060967230595611266,0.07410595018625443,0.08079399547833432,0.11276873974276436,0.14819873054849442,0.183965684467716,0.2227856891410087,0.24953000427112393,0.25463074092115257,0.23783822712165303,0.2082440615274943,0.16388136021071809,0.13066135710866789,0.10359615817017565,0.08591338289466499,0.06518809480454246,0.04279318509753338,0.02416789972073108,0.05624533287030786,0.13512008032259937,0.20528502401626936,0.2773370589421935,0.34018271222279406,0.4024038356955226,0.47191105961097524,0.5273491429626902,0.5932683590764096,0.6688426027190975,0.7489155897266215,0.8289735481097447,0.8995512851756411,0.907086960977924,0.8449517241746727,0.7788893569453323,HB
