0,1,2,3,4,5,6,7,8,9,10,11,12,13,14,15,16,17,18,19,20,21,22,23,24,25,26,27,28,29,30,31,32,33,34,35,36,37,38,39,40,41,42,43,44,45,46,47,48,49,50,51,52,53,54,55,56,57,58,59,60,61,62,63,64,65,66,67,68,69,70,71,72,73,74,75,76,77,78,79,80,81,82,83,84,85,86,87,88,89,90,91,92,93,94,95,96,97,98,99,100,101,102,103,104,105,106,107,108,109,110,111,112,113,114,115,116,117,118,119,120,121,122,123,124,125,126,127,128,129,130,131,132,133,134,135,136,137,138,139,140,141,142,143,144,145,146,147,148,149,150,151,152,153,154,155,156,157,158,159,160,161,162,163,164,165,166,167,168,169,170,171,172,173,174,175,176,177,178,179,180,181,182,183,184,185,186,187,188,189,190,191,192,193,194,195,196,197,198,199,200,201,202,203,204,205,206,207,208,209,210,211,212,213,214,215,216,217,218,219,220,221,222,223,224,225,226,227,228,229,230,231,232,233,234,235,236,237,238,239,240,241,242,243,244,245,246,247,248,249,250,251,252,253,254,Target
0.4363501143058006,0.4229886365573816,0.4107463361715138,0.4312518390408284,0.4643323170420346,0.514689658190274,0.5106184600220003,0.4764439893280983,0.47457361922077435,0.45875375168982435,0.43936926758995565,0.425208505290797,0.44159872882660745,0.4741386251105155,0.4663481191145915,0.40084496215977317,0.32444966299353073,0.2482866005560278,0.1720066086510994,0.1066405716405443,0.10649698719366152,0.17638358931012665,0.25148329849492423,0.33147196108850796,0.4076837201171468,0.48583849959383696,0.5651491754438502,0.6405177517767511,0.7207226297554974,0.7755883001991672,0.7311611018611777,0.6571121364431014,0.5835795545258213,0.515138961793076,0.4577391735985239,0.42112839666462754,0.4005701040369207,0.3907789095788401,0.4084996674637338,0.4532511994227395,0.5026787350821948,0.5191379956902464,0.4744097815312891,0.4499720605569575,0.4490233411849278,0.43433173172240824,0.4252267572216766,0.4225443636574002,0.4534730124256967,0.4827496575941137,0.46063642481123823,0.3888657068544954,0.30802399057772845,0.22813042980344211,0.15453507726857563,0.10196252860672173,0.13105992231298547,0.20295171724587546,0.28016847705348535,0.35642348665848633,0.4349442934064398,0.5106915941205064,0.5914124918090227,0.6722667782287328,0.729203541739339,0.6850870394966149,0.6116837094479013,0.5428215713527023,0.48782730381699557,0.4524040328488601,0.43229986500774786,0.4232415561113525,0.44214961959806676,0.49118841000767666,0.5488445605994874,0.5995964417019333,0.5840063230957322,0.5330609461021292,0.5153215975816188,0.48853669044968684,0.44990278766201275,0.4262545125210162,0.4112802737329959,0.4334119359251456,0.44595543669168114,0.40760736744787973,0.33413742625110876,0.2584923237256682,0.17836207049609998,0.10299199625976929,0.02821975797732179,0.0,0.055743831924331744,0.12988028139843444,0.20998341664126619,0.28676049795485303,0.3642925470231728,0.444024833851989,0.5192152756970048,0.5992791667030668,0.6761435921127303,0.7508645234431557,0.7662708649858596,0.6982998551960642,0.6231340445786342,0.5474552294769395,0.4738807620204075,0.4189627104273781,0.3835456534481714,0.359275331469477,0.333489138748031,0.33357383653545636,0.3740076420000209,0.4268833763971356,0.4827051535691116,0.47985889760748845,0.4335760499075836,0.4184310871820398,0.4388582283916509,0.43904269295065923,0.42107064344598655,0.41117358813459415,0.4384786850974831,0.47156295684956406,0.4953177448883046,0.48003742459229715,0.4457654564022129,0.44246678802719397,0.460026083187959,0.4676567230498676,0.44748968863351,0.46576193821827694,0.5173261886273717,0.5317969656142192,0.48474048841208983,0.42957806654051867,0.3778055933969635,0.3533955432463871,0.3758940072617156,0.3997152176978873,0.4349179090236601,0.49128378412114637,0.5614619484674528,0.6338173952365678,0.7094715108629372,0.7848872240230147,0.8654323828003316,0.9437715772032134,1.0,0.9732043492557014,0.8990512773702921,0.8184448720311581,0.742481245627246,0.6640064857183601,0.5831124391736211,0.5065477250090875,0.4287800837636877,0.3487708962364935,0.27360509081691653,0.19430591392400753,0.1514826137063494,0.21160220033899746,0.29232993874278135,0.3684193770126569,0.436909564921687,0.46998126678164964,0.46461572050442346,0.4423405855849962,0.4511641306621552,0.4787564267690272,0.5208578340885657,0.5422947170264403,0.557557212699711,0.6084992207020412,0.6423713632673822,0.6092109589628671,0.5484788164757897,0.4933187492407449,0.45201026143768863,0.4498579335207529,0.46983205231405845,0.5020778198213713,0.5593656756212029,0.630009497405011,0.7038330098272887,0.7781353600385366,0.8519650777006578,0.9259856536675208,0.9757469823758205,0.9355619359458043,0.8592644537840965,0.7797568769817558,0.7045074750994895,0.6241745304286532,0.5445169659867857,0.46928653576777757,0.3894178865733322,0.3138110226338251,0.2378991878967074,0.2223155161500101,0.29218036955048543,0.3690446776859142,0.4448514868829112,0.5014663042419936,0.5042014986818482,0.4768133402797632,0.449119378289077,0.45588979732363955,0.4687487962119401,0.4727371396191904,0.49050605364993016,0.5412528592197274,0.567923127206371,0.5297150994057152,0.47709714144642623,0.42987201344550297,0.4143230451886273,0.4300058007856473,0.4558101371499952,0.5018463058002975,0.5707739429500893,0.6452676639594224,0.7198811682732387,0.7948449316786503,0.868663602200181,0.9406266618834029,0.9677797273957527,0.9081499679694023,0.8325948650630717,0.7541738306556349,0.6730969057145173,0.5919875793133809,0.5115676627742245,0.4362715758345199,0.35680643432658554,0.2800797324891442,0.26104844721478604,0.32560274395242184,0.4034745980252732,0.4737868176915554,0.5090030153591172,0.4962202906859712,0.4641870780473456,0.4558594739984252,0.4715124478089783,0.49385900480775713,0.5019668464053488,0.5194248924272433,0.5628098415975027,0.5513315133271808,0.5010142173446086,0.46212877550583187,0.43872515158492265,0.4496885559245538,0.4661192610642608,HB
0.8271104742971176,0.8376476483657125,0.7936475400830196,0.7305596799982026,0.6804369790795071,0.6809184768184828,0.6522012800171049,0.6071174376475881,0.5324349673057005,0.45489152021682827,0.38037404052652196,0.30635988059134417,0.22886247751150773,0.15130593363716227,0.07671664908097442,0.008119888492601035,0.0026994419071580955,0.07126312422127967,0.14782449588993074,0.22042208694825022,0.29714868137475176,0.3747478513894968,0.4502890270903623,0.523422691008564,0.6001747742250148,0.6723967138016671,0.7348122185038959,0.7945090002724382,0.8685958298048497,0.9154444657316898,0.8926723657380693,0.87201477750946,0.867010959636578,0.8676416055543044,0.8498952770358825,0.8161752141214038,0.8140886787103625,0.8190754998640504,0.8014991546485877,0.8010622605968407,0.7995552938196335,0.7900964114012803,0.7764140144069818,0.7969513171845093,0.8189826859375469,0.7849843257960378,0.7131117189458958,0.635600827502838,0.5579749888579539,0.4808621881052391,0.40805495081435456,0.3320087158460108,0.25439396659276675,0.1767949196988483,0.1013733938316147,0.030274698107246034,0.002254850369160455,0.06009340131090213,0.1370369683705978,0.21126744982300244,0.2855634709991373,0.36306407025687953,0.4384639451150865,0.5117057340232247,0.5890461044668158,0.6662078624780572,0.739077611397081,0.8149995027786023,0.8865452961524487,0.8938664272862014,0.8735078526664299,0.8646029403178068,0.8730780953225903,0.8771160382323273,0.8660366212314943,0.8360058534284796,0.8227760142012772,0.8308204684762495,0.8133145160823891,0.8081484702388027,0.8083578238906033,0.7920326845103836,0.7925039964754739,0.8221810198429513,0.8259614978897136,0.7686742455696427,0.6964422047796821,0.6197933118361258,0.5463077378996513,0.471207250060037,0.3936220655614187,0.31612223740157513,0.24211457527363184,0.1675912100537263,0.09005324691109795,0.017379350663453808,0.012335921815802786,0.08058002906800993,0.15355026402328675,0.2307833605600778,0.30707062745317565,0.37975618284471585,0.4567445602369747,0.5337262399968667,0.6064188892979698,0.6827059043215806,0.7602233645852883,0.8344567073020901,0.9037205893630227,0.9122510142205047,0.8815981288276293,0.8652316525111354,0.8645149473677431,0.8642395932859319,0.8487243586137947,0.8209706666277452,0.8229506864303016,0.8361122640656633,0.8251440383479993,0.8223533824215834,0.8157643214046166,0.7961439559446633,0.8024559375430182,0.8284582351226979,0.8037101294492774,0.7336806186217919,0.6601858451005087,0.5827848589822562,0.5077594960875502,0.44464179111791163,0.37064661238786095,0.29304429527641723,0.21542319503340918,0.13894867116237136,0.06639649509190637,0.0,0.011614948689124382,0.08399099757956141,0.15665871818580102,0.23297100268105847,0.3105904037301315,0.38821699500059753,0.4658435862710633,0.5434692927558615,0.6205586830719874,0.6933289546703285,0.7694339801086332,0.8465761180365987,0.9168947271553125,0.9364430901884446,0.8985794889496772,0.8789071018152173,0.8748232296906235,0.8788910770430074,0.8901851749133258,0.9032506062371761,0.901290458567835,0.911669696214547,0.9426033111336849,0.99517566805899,0.9867255573799056,0.9178134590433873,0.8439363501262016,0.7682243379477216,0.6953074360682008,0.6183911088018013,0.5650695286629848,0.6069718752572075,0.6831504745271966,0.7566488974544787,0.827687415262335,0.8674464813804812,0.8520599675889928,0.830561977930732,0.8362050643578551,0.8457118584662531,0.8471581920794216,0.8608796297618564,0.8557950152184655,0.8544321981405201,0.8818563024350483,0.8919861781491485,0.8935320476297857,0.8915979696270726,0.9016693239888669,0.9337893487568214,0.9882961347875396,0.9786990223409837,0.9121967331791891,0.8394267303748502,0.7622061071159321,0.6858892825801506,0.6132164003053118,0.5362619932559185,0.4658628252269646,0.4761539597159991,0.5492780590186077,0.6116154917302614,0.6655719888991882,0.7307658320932058,0.7986510963706854,0.8536853969863918,0.8573015036596752,0.827991858719993,0.8184371842051303,0.8348058734610526,0.8340131392243664,0.8342692169582007,0.8494317187309908,0.8544151633576025,0.852810122278393,0.883858316534756,0.9022859847478697,0.9030512682241831,0.8952304744342061,0.8971638202251191,0.9201727171527403,0.9712064892619474,0.9668500211472741,0.9001542152994699,0.8246294458923378,0.7517525933912248,0.674576531552119,0.5969749473576367,0.5229732907090232,0.5007744533771945,0.5660458899332304,0.6430996136159042,0.7158972880310115,0.7902393552839484,0.8473997388924233,0.8478880605715089,0.819306048710996,0.8136271787984197,0.8257005190411546,0.8265602110992953,0.8313575067578427,0.8500623865439312,0.8453198589015072,0.8470615139191808,0.8774374662856554,0.8921038131356491,0.8899037872705726,0.8957418001090338,0.9182715712686966,0.9686809593280401,1.0,0.9518340287484597,0.8793318092849356,0.8037090909735674,0.7600392624387009,0.8090006792144186,0.8666349599066905,0.870224299005133,0.8531525565700473,HB
0.6684074011180869,0.7153256383797499,0.7071863481229121,0.6651459858593671,0.6785444502895659,0.6755611391741324,0.6774120296890321,0.7332512341617513,0.7853939075713849,0.8209740445610654,0.8210400508491269,0.8113718937146117,0.8164079149080543,0.8470269078196078,0.8445011845303962,0.7778838662053481,0.6977087922350275,0.628081012954613,0.5513315223056496,0.4701730901151929,0.39267871922055175,0.31149322285619974,0.22960872193799495,0.15129236935738297,0.07163377498607057,0.0,0.010169332607187553,0.0871634534919715,0.1659330230090921,0.2451552194349325,0.3271750651067856,0.4092718471783301,0.49136862924987446,0.5734654113214188,0.6555431116637561,0.7358656877358953,0.8134893306906241,0.8878884136687557,0.9057902932187751,0.8656507462128789,0.8269913752957876,0.7773619758749264,0.736696772348141,0.7514090711486235,0.8005942070062184,0.8432215763393738,0.860554387975148,0.8558613337270429,0.845342084428256,0.8579092950353322,0.8583553520632616,0.8036754788336489,0.7234797160388924,0.6443069405490675,0.5654833217467493,0.4835045677244686,0.40140778690668066,0.319311067058604,0.23740647944913887,0.15901652351270643,0.08052569927021688,0.026965931689725636,0.0630894174521712,0.1418933236924633,0.21954628770936283,0.30112956659967505,0.38322527812573526,0.46530918713262914,0.5459011765692914,0.6235982068928726,0.7049819585272515,0.7830894315671528,0.8585277573995265,0.88808854492949,0.8486390801630492,0.8110795320202857,0.7654143498239179,0.7192134626688605,0.727011986006973,0.7739434716586154,0.8206339609736606,0.8453466265943139,0.8455381911741895,0.838426710999522,0.8521813660682085,0.8800292195889565,0.8531921687664616,0.7785336926896285,0.7040584823080527,0.6297784038916718,0.5519723815951526,0.4721223309589637,0.39007524154375683,0.3094782171761553,0.23177984906046453,0.15040260678249348,0.07496685473163037,0.055705390245705005,0.12383075165562393,0.2057579683500302,0.2877079338094293,0.3663441242431539,0.445725521400691,0.5277586915897016,0.6097404171718988,0.6885911983613838,0.7675191923346538,0.845044642530633,0.8936463787874087,0.8622420505726645,0.820447958358137,0.7754082604188127,0.7299096372272041,0.7329837507305285,0.784485774507391,0.8393404852429827,0.8767390097341516,0.8814675893100679,0.872413238577803,0.864114297689939,0.8814238186099115,0.8958008839843568,0.8464257943004285,0.7695364325685354,0.6880448056440807,0.6090805438225438,0.5300432032309561,0.44804507425521034,0.36685915360413623,0.2893599726318812,0.20816072086202184,0.12816691546153428,0.06205202556725711,0.07719307949374729,0.15419267983486348,0.2362625212020564,0.31835930327360007,0.4004560853451451,0.4825528674166888,0.5646488233092521,0.6462848051040924,0.7240013681056855,0.8041466192961251,0.881537410697188,0.9443177457227145,0.9260112841623391,0.8732333447083298,0.826145008694511,0.7733743507676236,0.7228515588887067,0.7131354542016386,0.7570357238356252,0.8104073133398573,0.8595051641520575,0.9087078440357785,0.9673671623274442,1.0,0.9476957746755994,0.8698384915302779,0.7917056465551646,0.7142383358699944,0.632819540992304,0.5514673863244148,0.5077744295025118,0.5672359948894712,0.6477619732196779,0.7253770446163155,0.8059343339914309,0.8831931221586584,0.9508691184737179,0.9429523670501205,0.9057060507685564,0.8859053679086837,0.8934662917665199,0.8990305992493075,0.8922035371677024,0.8554472912363142,0.8002789026861441,0.7541119273952631,0.7713109331566029,0.8168923729120421,0.8583769774910393,0.9061240187475001,0.9482739939712144,0.9121779807212949,0.8377973201598228,0.7596165688082702,0.6877778452837764,0.6903176941043027,0.7664443987055517,0.843811127945584,0.9188542239981148,0.9431829045090174,0.9043250631336632,0.8712343395583215,0.8586310472588514,0.8630816385565021,0.8604147280662662,0.8324905387503831,0.786735531411419,0.7420290029469205,0.7542476381813581,0.8045122713963051,0.843914912452773,0.8867830146303242,0.9377355793407305,0.9293010483401389,0.8593065060039402,0.7819310664051258,0.7029965661366261,0.624846048936717,0.5457081949430912,0.5012481370362896,0.560168375587862,0.6418893074968283,0.7205012130944642,0.7995062516498495,0.8766471362602133,0.9268492444606105,0.8980004830810606,0.8735702550734004,0.8693727925795303,0.8761436681500478,0.8753318917541508,0.85024042494433,0.8045020415922812,0.763731117738931,0.7851959393663825,0.8337523557628346,0.8736343703754967,0.9189608063577701,0.9606802309761013,0.9230299845702099,0.8469331229424488,0.7696352386742163,0.6887359078901156,0.6227507860162766,0.6525764491592708,0.7200253256317914,0.797658540797354,0.8765578805075733,0.9358887864271068,0.9120844872002396,0.8730742679926051,0.8400997303390287,0.8287970943437792,0.8379056911434879,0.8426450092617503,0.8148945172270328,0.7693203835003692,0.7341650505405408,0.7136264899239247,0.7408949900867208,0.7927620416178014,0.8345945053272172,HB
0.07800071734621994,0.14063285908402878,0.24756989592362366,0.36443798162653585,0.48379908769664437,0.6022554103548853,0.712103277615412,0.7154272497691013,0.6065930155442948,0.48527832275607896,0.37047124666203446,0.2756743255359603,0.20602359427341843,0.13040858261406185,0.10587431263579117,0.17425105713337585,0.21695266286277604,0.19464430093606633,0.14172543750112487,0.1952561108199513,0.30133407505384746,0.4177487255242308,0.5365231047255944,0.6554425940457455,0.7462604006454422,0.6949433879388408,0.5791253010530047,0.4611055704156203,0.34695073962603307,0.2571791720210349,0.18392388422181483,0.09456683360377649,0.028139168730087816,0.08144059516081004,0.17220615215836288,0.20386315215944018,0.12421611390253662,0.037695634662397115,0.08763221912899599,0.20321105530072237,0.3236068827894051,0.44236481046436127,0.5647164204436398,0.6875408694239308,0.79457455200631,0.779502627737252,0.6675502678144286,0.5500349505148724,0.432852724776598,0.323882043779227,0.23946509934997984,0.15942228789227075,0.07093318897039547,0.02488159835191117,0.09508423045626879,0.17014259664493692,0.14775448602423835,0.0718516537107986,0.1173199769448443,0.2316784803710641,0.34961774808217017,0.469404255314669,0.5889406994998742,0.7078911150849517,0.7915658231680899,0.7266746417581765,0.6090065409025455,0.4872742774101927,0.3711148857052863,0.27059170575096714,0.2016603417037407,0.12163639250149727,0.06384925200716374,0.11951184136852022,0.2001833108321579,0.2173965676975006,0.15710799021249267,0.10324187328840884,0.18330241233734335,0.29948989325129627,0.41746573123866837,0.5391484663637159,0.6598277309892601,0.7117020760515248,0.6196890432891061,0.5028266461834902,0.3887626230178006,0.2862593774176475,0.20800399777620515,0.13079307319182343,0.06139176073056529,0.09601435431793781,0.17106159132514143,0.14903484966705716,0.07815673432723091,0.14214820494163027,0.2580027934831107,0.37746511959116724,0.5003485829156565,0.6226676804366481,0.7376084903011114,0.7711531367623133,0.6718411922959767,0.5616259814608245,0.4460888395299082,0.3329948220883726,0.24079708319264626,0.17664043365256799,0.08917402915493311,0.0,0.012057170678999807,0.10540982050372227,0.17487714755898032,0.15183725632743716,0.0768843878365838,0.12218889391056509,0.23673348890732338,0.3551626285530515,0.47448408728769864,0.5929943217308103,0.7087826052946323,0.7484952965914148,0.6491647423665124,0.5286397570023765,0.41245267114291717,0.30765756434024694,0.22852191191942872,0.16497191915863962,0.20156624834655656,0.2769236210080971,0.37013914702597284,0.4838273183135763,0.601032988981954,0.7178210363705838,0.82812205708892,0.8460191380560002,0.7472254487592319,0.6290006189740599,0.5103990074635493,0.39012229326352144,0.2724696694096368,0.19015190398290194,0.20638300053249792,0.17257958747365565,0.08816878083325919,0.03048541607395261,0.09512456418100945,0.18481971188481117,0.252716541547954,0.3448399690984484,0.45899416572113483,0.5769426255280176,0.6963605044006141,0.8146953093566497,0.9313525931823751,0.9999999999999999,0.9221908318331543,0.8039612645688211,0.6873235417342857,0.5684072083530546,0.44883706147795965,0.3286772118884226,0.23223301128076312,0.21362822752151012,0.15823217646683063,0.09506789661612514,0.1427269789161686,0.21842964595669423,0.2964147992349392,0.40145271666366444,0.5161279645048943,0.6341379513262556,0.7513844790248597,0.8494414648679166,0.8331859302428598,0.7259878050310856,0.6086258015545002,0.4890461813861965,0.3703804589686003,0.25863865851608814,0.22856342459780365,0.24699942787725382,0.19822004176041963,0.1169930392711418,0.11941284815034059,0.1988186924603862,0.26749863848954825,0.3619389554707019,0.4762530565647617,0.5941676432495765,0.7126549553587401,0.829314007852518,0.9067127945239007,0.8454696267996299,0.736673121176178,0.6370320037742777,0.5369995326342399,0.4207651148570354,0.3020348589634344,0.211295313382024,0.1999457525521099,0.14271063294413278,0.06907438356500462,0.11009386372150198,0.19488096270516297,0.27334339452541234,0.3670638388068842,0.4812867755167701,0.5983021539827026,0.7159473042687444,0.8350718429898115,0.9428244812508665,0.9418539532602065,0.835246054911175,0.7171870356592441,0.598669332294376,0.4782846770096226,0.3593299189090947,0.2500841105191971,0.23177378351808986,0.21385708138476978,0.12971994866877157,0.06512633316192717,0.12340965940698956,0.2096816289212471,0.2838014826280656,0.3798005027285175,0.4931390954757021,0.6103157381103249,0.7279098844697934,0.8339711218728555,0.8195756699532625,0.7145042254873065,0.5972182423575155,0.47803740210421364,0.3589709872654999,0.25441326647281126,0.2339237153358743,0.2335980675977002,0.17959873830272322,0.1361706456415832,0.19693871980493072,0.26503277904384526,0.3514560827621368,0.4627694266510588,0.5789258129446807,0.6961329082336615,0.8121568326875185,0.8698369661086519,0.7890033036322895,0.6731331321001331,0.5546060040496509,0.4363782656966596,0.3183812416054922,0.21814948223090824,HB
0.3743476751771534,0.3807520035768356,0.44364491617729473,0.4428092666571435,0.42978601574011677,0.48441304353817793,0.5066276230493196,0.5704457668693628,0.5963819507839045,0.5818219446785335,0.6049196775823265,0.5470567025879562,0.45157915903008683,0.3472411278185137,0.24258366571373902,0.1382176960126813,0.0727597809175885,0.1224537468164929,0.2174202638996542,0.32376998829628323,0.42985313343056164,0.5337744911041739,0.6413723215139644,0.7485850504811338,0.8271184486632306,0.7806912047431269,0.6855601822264001,0.6064319989612879,0.5382344013382749,0.46221223947496604,0.3875301312302064,0.36002411935062617,0.43000208325997724,0.5192265109484235,0.5915836502496856,0.5948516915720701,0.592134438440449,0.5871423851471942,0.5036207987630749,0.40984854267865567,0.3121486191362354,0.20573022606985703,0.10155126429428141,0.021252411160902485,0.06585873272637133,0.16803369256798895,0.2735323112478535,0.38046852815180876,0.4839779873429385,0.5910746051713633,0.6977643399614162,0.7624940325486349,0.703302375424576,0.6212327120792052,0.5532938189479797,0.473057289417385,0.3895382016271409,0.34925100264469344,0.4096302755494492,0.4999108584033355,0.5751099195129525,0.5876477421655317,0.5865277375573412,0.5814783483383725,0.49161011433928403,0.3862225547342607,0.28102969029389735,0.1764273971284963,0.07089102314098417,0.0,0.05616520392254498,0.15837043361879843,0.2642863928406788,0.36340111332271285,0.4578394227396235,0.5579970934051877,0.6656021134995229,0.7700525365087059,0.7976608134305609,0.7122499743443464,0.6279545716530994,0.5610369147509653,0.48489756029268116,0.40330686624122514,0.3692118124244578,0.4331557525476115,0.5228153804898639,0.594165540471842,0.5994135403577834,0.6045852848085749,0.5779609256321325,0.4813624806155198,0.3776575280511085,0.2723239728670285,0.16569329933007337,0.06828108096645447,0.057856989254730484,0.1526021808751169,0.2568141001472567,0.36369991518262745,0.4672128465856208,0.5741883155083114,0.6815649568793671,0.7608552954939434,0.7176714999251719,0.6341559253601106,0.5644692182862534,0.4887028759938319,0.4077846617952894,0.3692746267951932,0.4279211356159014,0.5156236423839251,0.5853936284400847,0.586990861410442,0.5929923261432581,0.561766816581388,0.4640266016094414,0.35981374767053986,0.2562927666260111,0.15095527995208624,0.07474876205265901,0.12566461796807826,0.23119715191319556,0.33471280167748974,0.4416344841082698,0.5482311688547481,0.6518525024103605,0.7584477133617824,0.8234183403126065,0.7576125177041473,0.6645756791559563,0.5902281795922821,0.5221692822361369,0.44284485484655445,0.38250880667220954,0.4148845184292168,0.4990459638843564,0.5768384303212533,0.5911975350498224,0.5949923222550904,0.6211782406895145,0.6097248084217384,0.6187545874322478,0.5694967164745528,0.4870303048197795,0.4194372260718292,0.45220380570229013,0.5289452650923488,0.5980634868493595,0.6728896126688173,0.7677537000394055,0.8687184772798058,0.9652084906845937,0.9917831527509822,0.9029636954722247,0.7952168194433398,0.6882364567546964,0.5860428515665452,0.5331198616366023,0.6009236716907753,0.6230026150514809,0.6099847947567498,0.6165257779995554,0.5590949466540389,0.4748734574319773,0.4042759899039652,0.4296968887183311,0.5036476026408345,0.5779504875630737,0.6476432498827926,0.7357964639851506,0.8349452941688293,0.9356351239390204,1.0,0.939735628346474,0.8333931722927277,0.7254518364666684,0.6175357996290387,0.5160738581762513,0.503367572171299,0.5920237113819877,0.6354640052297837,0.6205138540335675,0.625520304110218,0.5718331602262774,0.48649231366423573,0.4072431759251617,0.4155739271643274,0.49446276806614253,0.5693862091053064,0.6362510855283627,0.7233497902491834,0.8222292690338411,0.921573496079793,0.9804640073113464,0.915154847258032,0.8128042542398923,0.7056223367549308,0.5978061049400545,0.5089057648858957,0.5431603925833397,0.6232435658030573,0.6183279883000978,0.608975438644423,0.6124719465835988,0.5490654732779252,0.4617388671850362,0.3840594484052736,0.4019696274257353,0.48429278821967225,0.5629965609528658,0.6313742015302946,0.7127813044035087,0.8128741278926941,0.9130796800119039,0.9801522254946335,0.92487543266103,0.8226278642262475,0.7169622622433178,0.6091522128658524,0.517390492275746,0.5452379600275925,0.6275692498289707,0.6260689090203824,0.6158107222778688,0.6268880855248926,0.570202951652268,0.4829305717729865,0.4035542425329739,0.4155525138345575,0.49675448669746547,0.5704165249704014,0.6389417501318875,0.7228051680934355,0.8241975788023095,0.9258575806888276,0.9873295877363168,0.9247957649196314,0.8227975159749352,0.7159153006458254,0.6095082051268543,0.507109702140843,0.4550960954305112,0.5350957307871815,0.6222172236486023,0.621077123594538,0.6073993688876294,0.6238676907705636,0.5732626928822695,0.49432586495748243,0.4492129815243354,0.3992316234882842,0.4412825600928212,0.4918507020570162,0.5034428563154021,HB
0.2442866756941683,0.18925828844244663,0.11387794137131935,0.03622622368100803,0.0,0.05683550895930023,0.1344290857218905,0.19343358933221366,0.18173989722439976,0.19872910745102912,0.2036851489050634,0.16807718711562247,0.11837603057329549,0.1634803823705483,0.2568882364013144,0.3518755990051331,0.446922060509266,0.5450100834943082,0.6407166451296403,0.7338132504655149,0.7470552821964428,0.6595173049864923,0.5650107983947074,0.47781334129179054,0.387763672032598,0.2968454332902667,0.22181987878540999,0.17705986570790477,0.11763839092858241,0.05223469384285673,0.051268288786107674,0.11854530582013934,0.1871358391282022,0.20107591827065474,0.1808188199907712,0.19828238059638315,0.17292430216929844,0.11037612538762243,0.1447788323914294,0.23548370437243815,0.32075855447374335,0.4048156440903504,0.4983187976798181,0.5927253935629083,0.6558799455271721,0.5969552930615712,0.5023594270930948,0.4080687622501348,0.3160725066122959,0.24036157586573714,0.1890870915156605,0.1305840105058922,0.06233960302845598,0.05474665300682502,0.11783741191592156,0.17977266929820723,0.19010359523569387,0.1272225479128739,0.05521553609663732,0.09423452055267911,0.18665905949860728,0.281434070898399,0.379468718258409,0.47621466917789734,0.5728644459748887,0.6703720543572068,0.7523367188858935,0.7345865556215184,0.6522935045758381,0.5562514693854353,0.4617770879282562,0.3683983257507052,0.28212062408696703,0.22007761914837976,0.16061350667103858,0.0975871400084165,0.06413201922834988,0.11338737234869234,0.15941417861803886,0.18779461826120425,0.19483513259316654,0.16095893708587472,0.12341546576399576,0.18688624923587127,0.28108894314688204,0.37638413075427424,0.4715199595180243,0.5701687137030601,0.6697212307796515,0.7596670133338382,0.7582879055891077,0.6696188185714819,0.5744776932323813,0.47924454238818004,0.38581016447293937,0.29530266026904484,0.22200150590632595,0.16898405684047024,0.10564952379198234,0.039989672259897246,0.04262697883099653,0.10949001493489896,0.1722610577041086,0.17954911407572716,0.10600837241128847,0.032498412683150235,0.06923565115249797,0.1628986813719946,0.258625195770661,0.3543405853351803,0.4516827413497556,0.5476529020302564,0.6449962668272876,0.7410000610195214,0.8121909788875686,0.7653827740856628,0.667554819444074,0.5680810083963125,0.47192373454779457,0.37700126163065095,0.28698632518841205,0.21822368922838742,0.16498518180940047,0.09836794466398235,0.033463776977814885,0.024358261927731495,0.09399388830618394,0.16565922927045473,0.177834162339514,0.11334489290256056,0.05249457015080483,0.08438711547794153,0.157547492725979,0.2171953104479748,0.27877887409184077,0.367137804678651,0.46202322248236183,0.5572728346555015,0.6539794470599779,0.749306612175889,0.8452144715451878,0.9406535816801166,1.0,0.9422289074605484,0.8516334468499579,0.7585542734518517,0.6608231491892843,0.5652870620655347,0.4672128670965153,0.370192762469686,0.2749589618612761,0.2124471878581119,0.21325186449586542,0.16922214433170624,0.10224935837770133,0.0691486344476504,0.12523957679356013,0.18783959168634123,0.24033661693865027,0.3174325269739676,0.40957749262286425,0.5036883196277312,0.5995507913232508,0.6945202054019625,0.7877441965039199,0.839707380407336,0.7816609877702724,0.6880494139301033,0.5920729527642467,0.4948046154234135,0.3989715054804054,0.30319237275852584,0.22039182430761617,0.21020925811335311,0.21711409200999354,0.19460231406580164,0.15830154011248854,0.10245639981078958,0.12210869559830972,0.18528402747876305,0.24273743471165343,0.3119216221823814,0.4014122106665049,0.49537107403483904,0.5902240056387481,0.686832969551478,0.7823657324880774,0.8768549040474577,0.9392962368048671,0.8861569738333207,0.7951549013091509,0.7018111765384877,0.6052950831185179,0.5099389110064775,0.41166845604010527,0.3152577514029734,0.22443286860717304,0.20343387721301953,0.2187886403968191,0.1850334026525201,0.12096840102901585,0.08116001589064181,0.1314559275105187,0.19242626881466085,0.24326778474999322,0.3163469817110637,0.40776535728181307,0.5012109652933104,0.595500397885575,0.6903855940950155,0.7822371281422164,0.8088378168122304,0.7404998175282865,0.6481594782870633,0.5531626201373151,0.4580864495493008,0.3626054310259713,0.26959194909085527,0.21784059304258008,0.21978289384966399,0.210132444806569,0.22539026719283728,0.21172861507078056,0.14576861830570087,0.0801300665297705,0.08696151661413765,0.15319638019820336,0.20853446648932028,0.2667216971646563,0.35316026960877533,0.44589443235551374,0.5406301640267971,0.6363533850129827,0.7313907000150711,0.8258992574268919,0.892152101004991,0.8500181452197085,0.7579337636965734,0.6624062968943895,0.565194476929285,0.46846729835476897,0.3721821188979276,0.277437668901768,0.21013808084063823,0.21777186468684406,0.23320785233571162,0.21498754446915347,0.21646267811374764,0.16425821121112572,0.11608590423767384,0.15524643124442639,0.17019351363051471,0.21508124404509787,0.27228395406018413,0.3360807969955729,HB
0.7210775453808261,0.7524056410071108,0.7137826346088749,0.6496019281903026,0.5751692164221458,0.5017180408783133,0.4298669230971408,0.35477277989286854,0.28077353159035173,0.20934424867349938,0.1376510244356991,0.10321924792237204,0.15680128170180785,0.23161606028675746,0.30352837372709485,0.37690379600723556,0.45220807323421325,0.5275438982725895,0.6028787808226077,0.6777322029355763,0.7436200417018185,0.7576634825160651,0.728644382429045,0.7447886457014199,0.7903342001727452,0.7947049637953937,0.8406180852729749,0.9124608232956177,0.9443545735588055,0.9258774907156446,0.8954241735185069,0.8570254741659963,0.8171861097527702,0.8035848893664503,0.8414873740016925,0.8915406998352882,0.919454393036093,0.9100288614052701,0.891872804642041,0.8791068177317819,0.8849559583394674,0.9006523606008113,0.851230633954251,0.7770787191402464,0.7049610030657093,0.6318303447055431,0.5567818361126985,0.48497555465270054,0.41146850940691465,0.33619480944836855,0.2628951772185262,0.19093363560138393,0.11736500100873389,0.06345689174625689,0.09265108641953655,0.16502856639217406,0.23634813450783543,0.31107116734941553,0.386405076671695,0.4617407334219708,0.5368455061871497,0.6086935641853639,0.6821499452978875,0.75745718505491,0.8326055132358737,0.8920011357450757,0.8898631709064019,0.865302635243862,0.8298770789891129,0.7896670187073411,0.773310938486102,0.8089964200636894,0.8608936041170003,0.8966931836752907,0.90346196922878,0.9012072775002066,0.8958259001818354,0.9079265385087656,0.9233318036285009,0.872723114316395,0.8021862695590554,0.7285915905289372,0.657290596879598,0.58262545984856,0.5082509953898197,0.43693718255424946,0.362239889318371,0.28690617945492886,0.21157035441655186,0.1362452842957974,0.06231319401895906,0.0039054982421779655,0.02459401651148052,0.09655804941311326,0.1679054119969991,0.24216170319295582,0.3174906708149729,0.3928264958533498,0.46816133370751906,0.5430388785170912,0.6144641227183971,0.6885527834804951,0.7638771969113863,0.8386706243807892,0.9069090399495499,0.9334109661123838,0.9177340831775871,0.8906424385768622,0.8522884078470933,0.8209756673468296,0.8360791041740823,0.8843271074850065,0.922979405422679,0.9305193099972175,0.9140409514353146,0.8854572681266627,0.8676053842240508,0.8568366182370885,0.7984166461292,0.7245376345772881,0.6531794415502297,0.5790184681638313,0.5077027710239804,0.4334104951914912,0.36068714340217933,0.2881946154633392,0.2129681954632881,0.13875906227734935,0.06743567755015704,0.0,6.962156573914885e-05,0.06764995212841445,0.14269327467911092,0.2145535718091588,0.2879945321917042,0.3633012076572901,0.43863703269566584,0.5139728577340424,0.5893086827724182,0.6645457486195703,0.7353792207226347,0.8006838306349975,0.8185813509903092,0.7873496570712543,0.7536995442367356,0.7216753927881023,0.6883907704296773,0.688917074926165,0.7345990267695905,0.7910131050040413,0.8425404851450156,0.8782805327159383,0.8899967612706953,0.9081839648967681,0.9144781161993903,0.9056517912028966,0.8800265840320063,0.8355841310920004,0.7814092969758922,0.7278299357302369,0.7057832332058934,0.7348207054568076,0.7677706471856148,0.8023710050050503,0.8391064742460717,0.8875899578091355,0.8780545059548319,0.8097750691780038,0.7357685852794569,0.6643621481724056,0.5895061999425635,0.5141714583272894,0.4388356537044767,0.3643262281152847,0.3269313227038583,0.38107379190232216,0.45302814440728995,0.527434870311648,0.5987261417492515,0.6731519872308088,0.7456240040574214,0.8166044202255851,0.8746194258325716,0.8950840464802715,0.9035843966540802,0.9307853691598608,0.949940265968475,0.9495646609417847,0.9233893817630255,0.8772981943254556,0.8450433490293773,0.87254761392099,0.9105493013262818,0.9367426579659155,0.9583975822369251,0.9754428263538772,0.9268577706838845,0.8563878066474376,0.781689724133634,0.7094452953898099,0.6364722686976428,0.5673378863367143,0.5708673668145622,0.6412397250311094,0.7142660029912803,0.786466379832091,0.8615885480532777,0.9305303862644978,0.9529827958394812,0.9279728911875447,0.9192709407357778,0.9220095272332779,0.9215965307377412,0.9018993023236643,0.8569717468544173,0.8086307870054003,0.8020905293604527,0.8396052676976401,0.8760813360201074,0.9033833078250539,0.9294041921962392,0.9435377178481796,0.8882102976468694,0.821831015191411,0.7614876767910181,0.6913332372948658,0.620351278696935,0.5908648795413183,0.6509491934792799,0.7239681359458928,0.7955565638577243,0.8661319454665226,0.9214779767963849,0.9172873996363636,0.9027714620148989,0.9088103595815836,0.9227920967024544,0.9396497589776327,0.9311416892789248,0.8912574838056108,0.8419351482796623,0.8288730012065177,0.8648730759763046,0.9047740475174268,0.9368823005179956,0.9635272938541457,1.0,0.9800677474669093,0.9086450668034027,0.8338641942383229,0.7727109055925745,0.7893174689136347,0.8582866648332019,0.9280286702300001,0.9730895004131883,HB
0.6770217698533917,0.6817946264686584,0.6252466692153814,0.5395638309222331,0.4708384531109052,0.46742850630160404,0.44084495539191015,0.3932079762688253,0.31337398917053105,0.22408042685114749,0.13685870836846326,0.07378315522193046,0.11356194231258154,0.20319632792466058,0.290552963876448,0.3795849213484418,0.459585591333893,0.53354345676893,0.603716975350398,0.6933434788609448,0.7738581884956043,0.7554367982250919,0.6996349356424908,0.6759058508697825,0.6636757331575572,0.6412000091983511,0.6311142040840519,0.6313595857991606,0.6165922992465899,0.5991466975284686,0.6145139366126467,0.6601306914019628,0.6692947523798335,0.6119050092551682,0.5256426336572645,0.43294655271416327,0.34515898767187914,0.25468997202330057,0.16285576439927374,0.07604805481125498,0.0,0.0203561404167123,0.10492471876291454,0.1963201450133889,0.283364586352029,0.3758942818401948,0.4688647577583761,0.5565890821311849,0.6471416842854923,0.7391977423047572,0.7817134633395061,0.7252945644618013,0.6858350665852077,0.6758597047485654,0.66081514508512,0.6452064235658589,0.6347511382513934,0.6185455821803006,0.5944692549371532,0.6097974402942049,0.6594698118380825,0.6801574819461361,0.6379916320965163,0.556233465815353,0.4695900152181075,0.38102452424925726,0.29205318715817474,0.20052521596003237,0.12266975992702522,0.04712234544941829,0.048750154217158004,0.12924498155450115,0.22055561064814888,0.3075573736505418,0.4000037778946298,0.4925858325246696,0.5796766329853883,0.6712232390933998,0.7630034407500709,0.8303781413587473,0.7940355397334337,0.7231722573955307,0.6908714184662464,0.6798766106696609,0.6586653397357508,0.6466118472802952,0.6537690520747051,0.6517593064476491,0.62764768265972,0.6388784769361372,0.6852200983961759,0.70633672465075,0.6599113741287775,0.5768152184497365,0.4900882931755387,0.4009687227873572,0.31406457707135826,0.22252832233501307,0.14094409729570156,0.09340725464684885,0.14422782815380786,0.2302923055222369,0.3219353819783096,0.41198053605034335,0.5001192881523576,0.5930502102467353,0.6818799936850005,0.7708149462578128,0.8343131784538652,0.7884027562955126,0.7260567316168766,0.703914557186622,0.6851814786375633,0.6598566691463971,0.6472499556466594,0.643479232510925,0.6226477070219537,0.5910182778670393,0.6035510135635597,0.6510708197760752,0.6725408347128569,0.6306325541126855,0.5448496682314637,0.4523762809823396,0.3652839806298166,0.27410701513686797,0.18637867520290208,0.09919852581034794,0.05529412755539942,0.11630268252729137,0.2064026767479631,0.29381211089467374,0.38665474292318514,0.47958561406125366,0.5672041788619008,0.6578698922000746,0.7426284553706087,0.7406874274115464,0.6936873845073187,0.6772960088965206,0.6545932433724423,0.6487081993148333,0.6778302781486031,0.7010615451646277,0.7147748209577219,0.7625194804730729,0.840759558953802,0.921547337675309,0.9492057293303607,0.8815094201538692,0.7954094528141061,0.7055279534083169,0.6142976746243901,0.5287441070114177,0.46604310972731333,0.5036546552373323,0.5895406316316981,0.6650313110822191,0.6975544581686136,0.6828594877530981,0.6398493494342258,0.632088961823949,0.6580161296893267,0.6708984746977728,0.6759152097152054,0.6940796797874057,0.7201757442695894,0.7336770556650035,0.7849064836593146,0.8637072478494624,0.9479517853265443,1.0,0.9525944572531672,0.8678129663011295,0.7753157533909701,0.6819804420853096,0.5886528418061704,0.4970331643139335,0.42243411127759656,0.44831873628531393,0.5348182025174381,0.6221500996877231,0.6993047041606496,0.7329371842163429,0.7198296747684269,0.6757976252549734,0.6603779334243453,0.6816877628442893,0.6790340518026782,0.6714190992809593,0.6864634511013957,0.7109707265425959,0.7222409135934967,0.7667469768776077,0.8454987602633622,0.9324344525750462,0.9617396689681285,0.8964151789628257,0.8113014046853447,0.7201357331973121,0.6316376255271045,0.542003399569695,0.4518361369884484,0.42996657109531944,0.5102921136473691,0.6022516148412395,0.678226270470751,0.7060450835196942,0.6906912797559824,0.6453074126580959,0.6319756873755443,0.6542403322018212,0.6660782583263766,0.6801953305107887,0.690969574926576,0.7036858003761625,0.7211875315881323,0.7783058311165613,0.8587206446993391,0.9399719660521227,0.9659420119851473,0.8984002505743188,0.8138943470171737,0.722897287710223,0.6342039997507068,0.5447794316435778,0.451864440750111,0.3880171944438283,0.4385584819926954,0.5265344694026947,0.6117730558022431,0.6837325605460255,0.7048373631816568,0.6820983865532609,0.637016277966394,0.6358423177196507,0.6549685547965364,0.660699684300908,0.6593289795249339,0.6710569558661356,0.693331999442996,0.7072639602440499,0.7515681136071873,0.8281889074640315,0.9028556228009382,0.960534235663488,0.9265660422218077,0.8418840694204522,0.7547507389787956,0.6624239648662659,0.5820846677220451,0.5866649315488354,0.6603164362160362,0.7094722307275653,0.7072836314721532,HB
0.7972478052745833,0.7471517721639929,0.6941933989411382,0.6402090691188858,0.5872756762062482,0.5350830456383815,0.4847101262959238,0.4409002281297495,0.40813999372733356,0.37152236559918017,0.3331628631017277,0.30615990428869866,0.2681985082627981,0.2264035746185149,0.2152876549943551,0.2499079508117784,0.29703461313617685,0.3433247536463869,0.38781862573853265,0.41605146814863814,0.40633803297820414,0.4095846470625606,0.432261300249561,0.4290796512652574,0.38319077990070205,0.3302482870574688,0.27633696237715666,0.22314715453158895,0.16989928474922478,0.12489380210353085,0.13089690531058384,0.18117607948773962,0.23703618753082922,0.2927301814619053,0.3455657258526843,0.4001970723408321,0.45511549992969547,0.5043454279200987,0.5586300002100532,0.6136020733340555,0.6662329088596477,0.7217776715969375,0.777729662644983,0.8336747743559332,0.8857441429679527,0.8843583250584195,0.8322585578026889,0.7797030519041734,0.7252010606891799,0.672680832766686,0.6189890634498619,0.5667283442055902,0.5154766421402913,0.46810923340047517,0.4286975591303036,0.3962286042733335,0.3573468091293439,0.31145175316205087,0.2654420414200279,0.22322320266755202,0.1963015228479421,0.21105964402469357,0.2529272518110749,0.2988712336608943,0.3456802636443357,0.3742627407734238,0.3615235195160653,0.3619678930014717,0.38738093332208146,0.3983597708168959,0.3638206828104362,0.31192753531397466,0.25802406472859585,0.2054797357351249,0.15117517260506896,0.10530144627876437,0.09438202363052695,0.1394909325150976,0.1928227723073035,0.24867025547286914,0.3045657427635333,0.3583551978696936,0.41190322508913124,0.4677728686001693,0.5237257483115655,0.5796761165598493,0.6349854129051868,0.6875338883735178,0.7428308840410134,0.7987812411502611,0.8547234860208255,0.9061164876701857,0.9028425326956031,0.8528273482551694,0.798400200929472,0.7456028382526847,0.6906498187243906,0.6381003089891508,0.5827324924220504,0.5279614785528421,0.47829384234190475,0.43372203183763514,0.39886395942874875,0.3645116958948612,0.3229500591465788,0.27790456399647623,0.23158626410157912,0.19982394661313152,0.21469458162310184,0.257259522160485,0.30305640397824407,0.3488365044791425,0.3894858322855346,0.39559892229971505,0.3898288439353542,0.41088593112287475,0.4215834611064483,0.3888793047530019,0.33613232382847524,0.28337120242833047,0.22984447655387952,0.17669449458408593,0.125618095855483,0.10553145551066029,0.1485601532702463,0.2043511428301792,0.2603040225415759,0.31625690225297187,0.3722085772420284,0.42769629091894734,0.4802887396122216,0.5353644711255233,0.5913123950916679,0.6472621685137858,0.702503004995648,0.7550567194299362,0.8101408336630072,0.8557408501756432,0.8468538258403842,0.7947266763288585,0.7421313401297764,0.6877301817769097,0.6350355909382808,0.580777305163465,0.5310229795098218,0.4873691759291403,0.44104689762340543,0.4032492730594338,0.3689420558976457,0.32779922028950315,0.2824189722558038,0.2369480212516203,0.1961203604870655,0.18779155773327083,0.2226388634967389,0.26921885896945696,0.3157590743169374,0.3503286245880013,0.3453694407069886,0.32869304012796186,0.33950115239619416,0.33438527302393073,0.2930017018639738,0.24632646249795787,0.195374882567258,0.13953444059024478,0.08360871390274338,0.029914315246672707,0.0,0.03412337409249605,0.08630107308354534,0.14120426456005175,0.1971492830178304,0.2530082495273035,0.3064701854731041,0.3603495444839938,0.4162519001530427,0.4722047798644373,0.5281574013014945,0.5838678988287107,0.636738067591389,0.6913226561742343,0.7472578333097348,0.8008800402117577,0.8086697199738222,0.7597228874250779,0.7066506325595803,0.6508661172355272,0.5949333923204034,0.5404868828230224,0.487899978608215,0.43582233864514575,0.3849587256083381,0.33801943649246413,0.300303063561727,0.26618041411700544,0.22810373309063947,0.1847634519122784,0.14003502603193496,0.11393995537547147,0.13552898923614776,0.17830514540603404,0.22494175754405799,0.27106423323819806,0.3145000302600073,0.33072312958191974,0.3313649809229001,0.3575607474647092,0.38684138456456874,0.3972039369338004,0.3571342529306146,0.30390209623757136,0.2503196917575843,0.1966314634965758,0.14427409486569143,0.1082421253139178,0.1360199271565986,0.19105619188722878,0.24700828874876923,0.3029611684601662,0.35891403729294025,0.4147558762904022,0.468116078312261,0.5221063564151689,0.5780166612988601,0.633969541010257,0.6899163982185792,0.7449249488475489,0.7975452413335771,0.8530396617491995,0.9011860058687573,0.885971748310658,0.8346553933467229,0.78019691245456,0.7273939125377609,0.673220632861165,0.6207536383625499,0.5682339345268278,0.5164223029343399,0.4682355064761008,0.4282114686361488,0.40131568754868996,0.41112060443584186,0.44294762159702206,0.4825539486024213,0.5334581114334768,0.5836816610499429,0.6312398627401972,0.6833939402650135,0.7381265654416778,0.7909134803986335,0.8451034506400428,0.8976490142507849,0.9514189766986589,1.0,HB
0.5326528251108426,0.620821896735224,0.719988081991166,0.7999376298038122,0.7643627378381092,0.6749714563713488,0.5999436937550092,0.5502040292066591,0.49081698567954757,0.4441881642950123,0.40796795894623994,0.3542275402460209,0.3064142421724325,0.3490886388026264,0.4305862311158911,0.5092707148595214,0.564606386929401,0.5614565880244097,0.5416237395683071,0.5459624357166132,0.5707917410671507,0.51608207564541,0.4214937160557045,0.3256582622942744,0.22897992589997973,0.13102829662553817,0.03864751215489415,0.004477612196496672,0.08292077890963334,0.18172429866684903,0.2770738564269427,0.3744659613526543,0.473834396037214,0.573231514013646,0.6722219485906683,0.7584751067234211,0.7503998820753038,0.6652682954671284,0.5958039807109125,0.54767724693505,0.4826384897816577,0.4008130235142028,0.3315388077783179,0.3488518481002737,0.4270980838983234,0.5053826854908191,0.560731934809397,0.5627779531108564,0.5379729640618026,0.550811675447532,0.5606886258121072,0.4871635766617911,0.392457304839272,0.29396530238062724,0.1989928889373882,0.10422666589539198,0.04665854299045913,0.10446767108429711,0.20075627728895518,0.30010712178476384,0.3990949338973324,0.49423770522206933,0.5919275503774067,0.6912902864457496,0.7839113801121816,0.7869314360090082,0.7019705445925079,0.6203481304001087,0.5643797829582223,0.5090811161308307,0.4352322606836325,0.35640694660706984,0.3192572284848222,0.377791427236571,0.4610627148594486,0.5313380018134995,0.5576186419940264,0.5341059889947141,0.5131530792549187,0.5442341499245483,0.5426107802145484,0.4616988127680909,0.36576107080576925,0.2791852377283116,0.18482619159220814,0.08934646148153536,0.005230146323985441,0.019971256280329586,0.11423378448888633,0.21361962939240553,0.31255276575638835,0.407616825872699,0.5054333958468767,0.6036210935471628,0.6931482418309035,0.7749024088628061,0.7941006252738504,0.7131555764043366,0.6300211657938707,0.5706252185289115,0.5174354010073478,0.4440841184046017,0.36444829434679304,0.3030255592665658,0.33318469573020293,0.41348204772735675,0.49628505024602154,0.55268689982546,0.5528848412266293,0.5279815633376984,0.5385229918714384,0.5619356920948902,0.5011916660662413,0.40795454981984236,0.3096372552542437,0.21355562554802165,0.11716702642980237,0.02470614471409116,0.0,0.08138066583089965,0.1761074664655412,0.2747908008470733,0.3741860235567389,0.47358370830770324,0.5729813930586677,0.6723790778096336,0.7716173198851702,0.8501822335888961,0.8110575869464326,0.7204386128474988,0.6352650977531339,0.5753193532121267,0.5229330204671251,0.45061076343993633,0.3728935675493863,0.3105082533964456,0.3194361409683325,0.3956579782488001,0.47848929885556246,0.5442329022768279,0.5703773538067171,0.5311150459422466,0.45617111444641856,0.3757914178198679,0.34189442322530506,0.40702521379315304,0.48558877078476925,0.5510549238959094,0.6020895359403019,0.6722965847073289,0.7614433480703232,0.854715096678423,0.9477301764801181,0.9999999999999999,0.9392298495352066,0.8431611208785704,0.7439360720445932,0.6476831726384623,0.5521929355822989,0.4968063493134597,0.5567432571899006,0.5901787921878302,0.5594501790764997,0.5574004123273181,0.5793624355811456,0.5732034725623824,0.5156605916774221,0.4353209176133379,0.3581806434329995,0.3513540356828767,0.4273391835173037,0.5041164455213484,0.5648596664856206,0.6095603462171458,0.6826115420339437,0.7737889241201609,0.8662462849692539,0.9481726303687902,0.9864239234299254,0.9122117127396069,0.8161402922909097,0.7198967345256079,0.6206120665328722,0.5213613414212165,0.42688933083808156,0.3868587504234019,0.4640216997305364,0.5508797556322828,0.5779109025186063,0.5443155732906911,0.5493087403433344,0.5767599894251151,0.5725538514989527,0.5194049125620245,0.4400097607108586,0.36712026458102887,0.37749474165371544,0.4572117006033575,0.5298873932287512,0.5827910146017202,0.6409425336139515,0.7277185716238307,0.819303969025806,0.9124685661879549,0.9815914377062392,0.9425732531260999,0.8586257975668768,0.7629491970032521,0.6636050072767611,0.5644071950736637,0.488196972513103,0.5284396718817878,0.5899666915374521,0.5783974751008537,0.5623930239321598,0.5857853657502666,0.5843599570698085,0.5337155472599205,0.4570449683315051,0.3783650755670337,0.3787110259649721,0.4547319233535875,0.531361132726527,0.5861923626054636,0.6392012569648126,0.7207744219005386,0.8158840792468544,0.9113164300220938,0.9891619643502686,0.9670689228038204,0.8751277890544004,0.7803261179981259,0.6816519790931007,0.5822571300500389,0.4843956147015883,0.4413451396193513,0.5178533926845131,0.5932951055803556,0.591505058076708,0.5629604468623836,0.5759983715690292,0.5922223966382424,0.5678049057476807,0.5010806482962801,0.41918111157807325,0.3481076140844077,0.37559023468464914,0.4506541760298056,0.5234878771093446,0.578281446129752,0.6310297010979365,0.711784971794675,0.8054198851962343,0.9029879456501974,0.9862717276389988,HB
0.43217795454253793,0.4657848637809665,0.49196388812886094,0.4815183606915352,0.45195898497377174,0.4385867958838353,0.4851547423055328,0.4711471509340488,0.39405694400122704,0.31019503313209185,0.22444427742539652,0.1370026080428,0.051223104637165284,0.0012547191794247126,0.058122706759611786,0.1474142539504007,0.23750228012071872,0.32759084196221333,0.4176789840216564,0.5074731971203467,0.5941377231440703,0.6826591351536316,0.771933189731527,0.8281141226010068,0.7768861118319074,0.6979638070035868,0.6468698825022605,0.620620723549426,0.5641265827325593,0.4981689527882821,0.4515809447045068,0.4708836920007827,0.49656109678681004,0.4925866234017008,0.4493322215086635,0.3695078401191806,0.2845301250248877,0.19705733001557202,0.11077970034729884,0.027712360652033807,0.021122604337667994,0.10157175148910536,0.18844739672679567,0.2766209596720416,0.36667292076524627,0.4567605745168548,0.5464407715576324,0.6328740993775065,0.7180871623220818,0.7924621486764502,0.8582264999833918,0.8636957965617146,0.7870856203806186,0.7051090008667372,0.651266065042388,0.6229074391886875,0.5642014914690461,0.498675764595066,0.4464017053051338,0.46203220821570734,0.49738226082660464,0.49695153820636473,0.47452395998155417,0.3997002066018306,0.31577568789392985,0.2301326471411831,0.1431795663984471,0.07146169291988275,0.09612491122911138,0.18312876813262674,0.2732130613912207,0.36330162323271586,0.45338309871817384,0.5424708502464473,0.6288283034625444,0.7182097360283776,0.79047598815632,0.75910624884959,0.6835159984497943,0.641285195554953,0.6105447065789535,0.5508045187849476,0.490434727715399,0.47293960316772665,0.5075288908843661,0.5185612599396946,0.49003137475720016,0.4147034236112339,0.3307208917274055,0.2451157957914597,0.15881530573481983,0.07324648488522029,0.04479449851899764,0.11673782683146883,0.20635185269324796,0.29333274839078927,0.38144700600667736,0.4714930518990834,0.5609745726127078,0.6473157699971673,0.7364334185816009,0.820039411180827,0.8245424319069593,0.7479855360469098,0.6760048262047581,0.6467520718364328,0.6049090847071722,0.5417550377501792,0.48196225338810283,0.47477112851608017,0.5023170224639426,0.5014306152934935,0.47565556855055546,0.39972858036323833,0.31600616335529297,0.22945614096523204,0.14273333917424924,0.05684786199535147,0.0,0.03731789848651079,0.11862023906722291,0.2084717221415926,0.29856022432098284,0.388648786162478,0.47873734800397305,0.5688242969363033,0.6583875004306139,0.744759371972903,0.8305803960555388,0.8514466538407234,0.777869365263857,0.699092759632511,0.6500116540232935,0.6239109262636444,0.5665033423301,0.5011754141304519,0.45796992383403645,0.47894763003403573,0.5071165223625762,0.5027239146257755,0.47779856612765326,0.5165751502991555,0.5804725065216302,0.6392211571389915,0.6665142925213313,0.7160247323732486,0.7964805920269636,0.8805370830888218,0.9591234234134721,0.9686876514462522,0.9024101902735037,0.8163438857780946,0.730072573762461,0.6408052687891929,0.5510025818452468,0.4643103380338742,0.37610505572401665,0.31124855154437603,0.3555261280600308,0.4371504169823446,0.5043442196117992,0.5248781164499098,0.5194654541734698,0.49198439334191957,0.5223025959348645,0.5875837454229904,0.6446250953584626,0.6728002380283424,0.7211807174947452,0.8005122200157179,0.8869494826548167,0.9685889680538559,0.9762721951848691,0.9006985911231026,0.8131750779589032,0.7239311994360574,0.6376185691398449,0.5489695398744215,0.46589417358063023,0.3815167740600618,0.35772225608300645,0.4331460583068141,0.5073588462982784,0.537220152341407,0.5322875057393252,0.5005618087355592,0.507414737771653,0.5656997801314605,0.6249579471410867,0.6568865104342231,0.7010173148326523,0.7797630853887062,0.8642264637568146,0.9485007768864945,0.9987404211091168,0.9428383047982766,0.8568248711010066,0.7683353746500104,0.678720918825226,0.5922839465864802,0.5033870383655394,0.4133625144268017,0.3349059420781567,0.35338529131414775,0.4335105900512406,0.5019918667715755,0.5180856616964422,0.5186700713970467,0.48700573150366333,0.4706596834500224,0.5255462780511516,0.591792911006414,0.6446880309918878,0.6733783279033775,0.7343821813011467,0.8167092579881069,0.9026563018395398,0.9856368849926204,1.0,0.9259977344991007,0.8398201720642645,0.7508888178491423,0.6645748053285823,0.5752525391713407,0.4851679358492077,0.39623636357521763,0.35225910573838937,0.4169059965011589,0.49085420747643826,0.5158456337846711,0.5159880458212666,0.48681578246633306,0.4805199830810003,0.5371372432277712,0.6014524236605207,0.648386212658062,0.6765956098851605,0.7441132357750798,0.8268399592444869,0.9109929944106644,0.9749479014776322,0.936923997025893,0.8521608629705021,0.7635356161616341,0.6757740814825601,0.5884930726423379,0.498528113148641,0.4084850860349293,0.3289241181953265,0.3437542279426772,0.4242713307475401,0.4962846563019526,0.5182283402363015,0.5121363362099087,0.4837081378536626,HB
0.0,0.0356125644670818,0.07391252973115822,0.10972685181110423,0.14554446890742567,0.1838462611363768,0.22220641644729014,0.26056657175820347,0.2989267270691168,0.33728688238003013,0.37564703769094343,0.4140021024724665,0.4512912103013336,0.4858874172466901,0.5238849574857636,0.5622447080730193,0.6006048633839327,0.6389650022554998,0.6772051041207794,0.7124743516440606,0.7488681018567169,0.7872025337660082,0.8255626769800444,0.8638120067559294,0.898759940124779,0.9229309695418804,0.9291679938347155,0.9395324799263665,0.957330957113264,0.9555651341197555,0.9304622445916892,0.901312446580383,0.8708916043397985,0.8402467791527493,0.8072990688634518,0.7813442650258355,0.7742683325615678,0.7947403179011021,0.8163055483544275,0.8295909830645161,0.8458366150278616,0.858372071291051,0.854464447015638,0.8414788560748578,0.8109183514195237,0.7953749310806464,0.8252604843378994,0.8606964963718666,0.8809893846505519,0.8717986187833258,0.8773214211823277,0.8731370590288032,0.8577724883677191,0.842499610357182,0.8293424986253994,0.8074034105700849,0.7980438174780224,0.8222799619740673,0.8520834377279556,0.8833661019827417,0.9159899982361897,0.9450437003859378,0.970325734747409,0.9786821646065815,0.9657018328762843,0.9488729991637159,0.942517832718458,0.9305463853696516,0.9021396943231528,0.8674599423535039,0.8324348323099531,0.7942492623636259,0.7571149437410678,0.7224233151180779,0.684364430035324,0.6460045152811571,0.6076443599702439,0.5692842322650249,0.5311158484136715,0.5034048949617527,0.5221154651154871,0.5599722391464643,0.5952048014678062,0.631642563112677,0.669979612350478,0.7083019355294833,0.7444026521857192,0.7799117876957795,0.8160769173198998,0.8497407587101122,0.8655994769770792,0.853469705418491,0.8443013292250432,0.8527030430838152,0.8605156820936646,0.8570950258585255,0.8420282167736846,0.8266660063775999,0.8050850213232994,0.7915962302156767,0.8132589634969947,0.842815092991724,0.8727580794456951,0.904019397206941,0.9353410237278446,0.9616072469434567,0.9801568828911837,0.97903311466442,0.9661445609542296,0.955080130845614,0.9419736663459573,0.9196778497659399,0.887988222018586,0.8532253676233821,0.8177823176863526,0.7817546459870284,0.7434352289032908,0.7050752871838968,0.6670000410211707,0.6322750684795677,0.5951904037332563,0.5568375585212151,0.5184774032103017,0.48011724789938826,0.441757092588475,0.40339693727756165,0.36522976985444744,0.34284842785184344,0.3703172856568222,0.40859909537769606,0.4464221712155207,0.4809076649425142,0.5184799002706912,0.5568375585212144,0.5951975371180691,0.6332802785289209,0.6680237548818528,0.7050832021606761,0.7434036933111312,0.77966134223224,0.81492796269125,0.8495911423738916,0.870129021071258,0.8552892651396733,0.8414415507597193,0.8349613186923865,0.8303758866660749,0.8434976857242285,0.860052550679743,0.860961454618949,0.8457973092465116,0.8230661249169173,0.7987226231567135,0.7747012924578813,0.7780160254561435,0.8074948189879072,0.8386504453921761,0.8687863849505646,0.8999405429022522,0.9298754829904301,0.9530154907587944,0.954909451777201,0.9412716572564161,0.9255622563415147,0.9125375891399488,0.895920248312829,0.8694593356085625,0.8362097967002249,0.7994417934288787,0.7650086575504569,0.7306205327512614,0.6988794591759924,0.6614497913800861,0.6269565825575987,0.589380446051627,0.5510223222107846,0.5126621668998705,0.4743114388631204,0.44017094019001385,0.44922607513865226,0.4862114054023356,0.5207586082310218,0.5581672297143532,0.5965237005186144,0.6345621373201422,0.669221236792368,0.706407904345981,0.7447596789720199,0.7823236247462384,0.8106860643158842,0.8116325144099128,0.8114831926313357,0.8053118879148848,0.7908242274772064,0.7811576366683641,0.7709891602057126,0.748643812109117,0.7360531805238129,0.7573735517198612,0.7899147667165984,0.8252182291673373,0.8588396046120823,0.8909892683643237,0.921231197657931,0.9500850030134991,0.9785287079174723,0.9997603746196351,0.9999999999999998,0.9839027507722666,0.9656287009337883,0.9545153931677275,0.9448142741463434,0.919186461568809,0.8859304778352208,0.8500020670442638,0.8120018778044382,0.7773181135358385,0.740164488613803,0.7018103795233641,0.6634502242124503,0.625090158350889,0.5873472827531068,0.5731667716548792,0.6019371692343103,0.6395790167207398,0.677937302902994,0.7161654616521194,0.7513877253873251,0.7877310082773343,0.8230351351520624,0.8567814825815476,0.8767646044666868,0.8711180920866386,0.8637383805031669,0.857984600522333,0.860029225521151,0.857179323646643,0.8633604920258171,0.8690430415004708,0.8570607565797994,0.8391353936564943,0.8285747659254634,0.8112778696480374,0.7945641517856008,0.8096769526172667,0.839876761294871,0.8692858709741005,0.8986438943351263,0.9290571499875149,0.9582268627599646,0.9827043057353482,0.9828417851211266,0.9683372114243087,0.9581034748914024,0.954745549265557,HB
0.2735759829138429,0.3588632034461783,0.45930616176881967,0.5611499914854583,0.6600951838175535,0.7558989812528445,0.8574700706193397,0.9184784112773918,0.8504542367102195,0.7458468265980032,0.639226542294167,0.5384175256205965,0.43606392123138815,0.327413088620254,0.24210070916878368,0.201262556436704,0.16131836742351036,0.1766141149700614,0.14075121057445295,0.07321708582136355,0.013089806612624377,0.0,0.06643461551454533,0.15215432291602105,0.2239601529937636,0.2729660613073186,0.35499215069696355,0.4486243697838401,0.5440691735266578,0.643476619462577,0.7347852372112091,0.8317910590984883,0.8565008994278485,0.7674576688239485,0.6634765947270156,0.5573561641063305,0.4503232461865099,0.3429755345996448,0.24198304493234546,0.15555267024336317,0.08306923672019684,0.019860591844962028,0.009921276077520913,0.07527451492502923,0.156682624640332,0.22206643658865954,0.2928451008393931,0.37350476208452643,0.4686235697899288,0.5647166806916324,0.6599085716347683,0.7561040551974247,0.8485564375821781,0.933750921852718,0.8990131389629863,0.7959108434061848,0.6895592546820106,0.5893583970415697,0.4882855996899207,0.38239794800385374,0.2777716694035861,0.18662711059289616,0.11348407510353042,0.04782374556818525,0.015751399978375047,0.06878886848866261,0.15301758040787383,0.228288472977344,0.2653786385920818,0.3376742367692769,0.4390550889251599,0.5429217531970358,0.644458806685128,0.733977163359018,0.8243488371277394,0.8493319112543947,0.7600222982041325,0.6555882294397535,0.5502187808007626,0.45311950705781,0.35230302695790927,0.2491243320648946,0.16207530354310895,0.09108954525312385,0.027131051807055773,0.02319917467271293,0.09448104081236375,0.17620089938242656,0.23942903673853677,0.2955668057823737,0.38194088502702583,0.4831235007945931,0.588320916386758,0.688552227317643,0.7802301308954074,0.8750266297771103,0.9111250428936466,0.8259733807027436,0.7192141500925706,0.6124822901725366,0.5057728989782904,0.39939485377852235,0.2961395980707926,0.19863258085443813,0.11973485116027738,0.05272386441244237,0.0029805788584672532,0.031567498286874995,0.11308272740226388,0.19061187112408307,0.24005203569008926,0.3079869592570008,0.39979890936248563,0.49958853674250925,0.6025519433286659,0.696692234826209,0.7849691770055143,0.8509140098725843,0.791218104378766,0.6876542410786968,0.5812581151683236,0.4778275894086881,0.38171137701935964,0.28091573000037884,0.18676060834814734,0.11111073518003756,0.03961192072254349,0.006931543400364615,0.05896776937752257,0.13047078623379815,0.20693915548451713,0.30219520510635545,0.40843475645508165,0.5141355673736434,0.6209292739609207,0.7258926635698801,0.8222936738320796,0.9058500035069028,0.8944735526867362,0.8044637293778718,0.7120507146424013,0.618715660710508,0.5187621620534884,0.4193836724167306,0.3252626580288611,0.2562254294635382,0.20047519814682557,0.11942796935673694,0.0415753659826984,0.04420013384544419,0.10690946503682097,0.17809900970993642,0.25981651099698877,0.36194144991157584,0.4697125968970095,0.5758421674216403,0.6830831364221732,0.7903681773808868,0.8917097751450576,0.9667015402082981,0.9370060232615911,0.8439593109164489,0.7505522246592986,0.650917393455372,0.5481886334664261,0.4472634520575005,0.3514453241473372,0.2787010448580285,0.22572567582574088,0.1506566623344232,0.06867892039374002,0.046265204483615485,0.10621536653101726,0.1790402399148372,0.2662470101415193,0.36597374988781683,0.4714124302697542,0.5819535999568757,0.6878450977143968,0.791236792587892,0.8822807468402847,0.9068692946546668,0.8281098075729156,0.7374154849161101,0.6445459287992699,0.5394091794056914,0.4379974715635917,0.34437033482844104,0.2833253262971398,0.24922265734520566,0.17564160446156452,0.09021520687813622,0.04290319138498133,0.08892236677099286,0.1570369660084262,0.23948215179169918,0.33611128007738245,0.4397543456271684,0.5470620816768592,0.6586986520145812,0.7662527025416401,0.8719179291836021,0.9715523850280241,1.0,0.9191359133541901,0.8224342410005356,0.7315148889630274,0.6299922978517007,0.5256849921584921,0.427876741314444,0.3423423929174323,0.26406855788235206,0.20286502106075177,0.12634410065117463,0.0486542889524354,0.040524169913203845,0.10219585733857928,0.1765603922067258,0.26607347702493533,0.3658802830393155,0.47098543779015367,0.5780784890297983,0.6873181218447153,0.7936599188588878,0.8897225246667935,0.910734474298333,0.8258222821399446,0.7310142006911262,0.6406552516460269,0.5392300885986909,0.4345533663662213,0.3388115249911785,0.27022401150140407,0.2179347528102592,0.13872430656640988,0.05544766715101512,0.019398618084567887,0.06929586594470205,0.1352418703084567,0.22237297095849762,0.3226270794309396,0.4268925905089267,0.5337719281056892,0.6399871165527358,0.7399743954824638,0.8460868343994477,0.9415555118516281,0.9856637440750424,0.9144795976912725,0.8125056913580813,0.7171545828399641,0.6216249867927097,0.5206833566405888,0.4156346923286891,0.3244728385899227,HB
0.3986203867774567,0.4175306158996871,0.3910395653170248,0.3597899545967851,0.324689219024372,0.32429862748922167,0.38334542642540326,0.3817584032684759,0.3054031866989164,0.2152607156382872,0.1197308575427456,0.030754599728301968,0.006742663171116159,0.08535487419151844,0.17827043560390143,0.2746440485239907,0.37118213645182196,0.46537682175948925,0.558645768248287,0.6550485510514263,0.7492126273891198,0.8030466277791921,0.7413299550938874,0.6496525939518127,0.5708615098199845,0.5274681369557646,0.4801389631989308,0.4133309111660979,0.3451821753089832,0.31245533706598283,0.35627164104153963,0.4066821438400513,0.40274201727823267,0.3956937861406802,0.35621697791312446,0.27308154121621353,0.17884026721759783,0.09446650091125097,0.09495802268402609,0.18074525084015536,0.2669536737189251,0.3563797016860717,0.43203024763235,0.4969726453987482,0.5680675975061911,0.656385654822004,0.7519122997185048,0.8164044210665795,0.7618310105574733,0.6704769923285998,0.5811417743168932,0.5186875942865776,0.4812856004958237,0.42205009871652244,0.35565560916516303,0.311044617959536,0.3453318738301493,0.4025426523875695,0.41700835457930985,0.402423619017953,0.3779963641985603,0.30026433781889494,0.21076955093354188,0.11665115797777736,0.04019449737674874,0.0701675203657115,0.16166073712877838,0.2581385533840753,0.3523332386917427,0.44560218518054084,0.5420287792448628,0.6385681613380239,0.7326799566867237,0.8095158736402226,0.779284555033219,0.6901415705844312,0.6013502181020187,0.5378931943367888,0.5027801780725276,0.4431031108379946,0.37466206565510285,0.3179437024938926,0.3324622606776575,0.389985473475325,0.4193736814900467,0.4107416459624603,0.3837812607797162,0.3053224549513507,0.2160786113500378,0.12401372822833734,0.03984851717200921,0.04536532702244911,0.13276517458295978,0.22914329672985367,0.32496182150584674,0.41732106248711065,0.5129854035971215,0.6094567263872299,0.6987745442847564,0.7111555834694883,0.6316441908494477,0.5571175160610238,0.5184584237123178,0.46725079170383454,0.39975846007593663,0.33751829255266497,0.3320002770418168,0.3850562202804646,0.4140998311729466,0.40627124847427665,0.38904514564932924,0.3146142277773406,0.22549709542548435,0.13357823616734033,0.0435169167066799,0.0,0.06550257400970438,0.15747825709603902,0.25227048060013324,0.3488397456430178,0.44542473059237253,0.5407930332441939,0.6332367355789399,0.7291332656247034,0.8071216419727991,0.7718280499315326,0.6822353165831034,0.5963968726023434,0.5341475517436298,0.4945766081719789,0.4356086528307398,0.36939369757714247,0.3223333369408805,0.3467726354183781,0.3477312337847702,0.37920572003343245,0.4449280642220602,0.5051415386408509,0.5458271245066622,0.6034087789909144,0.6890757906048584,0.7838726397966824,0.8762540745997638,0.9624345767251115,0.9802973377877469,0.9014818845307764,0.8090402173572595,0.7132531055182332,0.6206840951250516,0.5255646513629535,0.4289945433881658,0.3378691528358633,0.32905826573346075,0.40114712124892704,0.43830981725411855,0.44076369737353316,0.438838360412376,0.3912276470545576,0.35443362453469784,0.3981690096600591,0.4654899071615297,0.5255713371901243,0.5550277073398329,0.6056548044380758,0.688945114177107,0.7821980803473492,0.8779541840271816,0.9630202914487132,0.9721757899682297,0.8900549617906071,0.8003127752874974,0.7139094612957082,0.6183212008327081,0.5217850662190993,0.42757379723382183,0.3354204753265795,0.2873502718899631,0.35473362775662964,0.4242294229088994,0.43804053620996064,0.4451256806484303,0.4223013596308406,0.3674115021161738,0.35477519414599656,0.41613542795423464,0.483398197726729,0.53325478518537,0.5670591299198531,0.6384926422699087,0.7270961415709041,0.8182687669928643,0.9129835203711838,0.9816280943223683,0.9419285625174334,0.8504198323897867,0.7630497766117432,0.684376824516161,0.6073332167172145,0.527369028697352,0.43717529876626193,0.34385851663061384,0.31495602531675604,0.38684185131905025,0.4297072294223594,0.4343960013299506,0.4408762705133943,0.39658113729636013,0.3419810438506121,0.36150355568773795,0.42793022134760084,0.48986007300026135,0.5252328353628701,0.5772750151630706,0.66113923958948,0.752153642589217,0.8443010625688183,0.9363998775383342,0.9999999999999998,0.9512262563257035,0.8605877764985637,0.7653230750791666,0.6703274862463868,0.5776900666575742,0.48148197653306224,0.38656299659787197,0.34448318335926076,0.40097681024026577,0.4199271663251205,0.429375752412104,0.41948975069937544,0.3657485947524567,0.34734149145690985,0.4071222659263918,0.47540240508526677,0.5312259232041845,0.5698915057310074,0.6394661042808716,0.7276448504668818,0.8191043869068022,0.9110538265658743,0.9856217201859931,0.9524215724471117,0.8613004400337434,0.7685135942557217,0.6722236376081516,0.576330835709961,0.48395306122582804,0.3883815368140511,0.2934052590597136,0.2531018353120298,0.32321667772342455,0.40148408955139914,0.42899936388008586,0.44295398296639144,0.4375379139425496,HB
0.5230186882359853,0.5077334034571437,0.49435346407540326,0.5143119002867085,0.49543334123047367,0.40451516909998997,0.31227712247248585,0.20694191331729628,0.10237682018614214,0.041554457166716574,0.09843022042086602,0.21038648736678023,0.3265734751432998,0.4427664701544318,0.5570440247699535,0.6655472786021148,0.7800178313616919,0.8768082754075586,0.8658081132172004,0.7919671210350869,0.6974764815733072,0.6004581129366588,0.5196567755959682,0.46109918832731567,0.4135375548358753,0.36636404579070936,0.3372493607998155,0.37692567721673886,0.44293880014719855,0.49305299938299685,0.4993844028325509,0.48348758349842513,0.49977060973358456,0.5256936624904771,0.4542916738443077,0.3431008339088135,0.23606902717614098,0.13275539023610716,0.07879778969404527,0.15390708431495725,0.261835016137423,0.3754779129784447,0.48930304137355485,0.5979964426477828,0.7132383901368133,0.8230580953081303,0.8754373190783982,0.8167870331767157,0.7375137890914101,0.6393356950752047,0.5452198739835865,0.4771869979530623,0.4232426643822178,0.3726520709354013,0.32664303709082887,0.3437184643752944,0.4107416016804186,0.472678859438441,0.5004786762052051,0.4809300802477785,0.4781903086391579,0.5027943796133401,0.45482027709752515,0.3546371959286523,0.24720761156478188,0.13339882938439818,0.028653312159547806,0.0,0.08717156967204787,0.20105640922435208,0.31689070704154165,0.42659844807475533,0.5389958567846205,0.6544591017592265,0.7633167115798538,0.8682468261637761,0.870631038580477,0.7953538651316965,0.707757380607309,0.6130155907106978,0.5315868006155635,0.4664837409368947,0.41888063672589704,0.3703705887412949,0.32797901069128965,0.3469410283489982,0.41301904631053676,0.4779619293384285,0.5123201427684736,0.5072758532011152,0.49663586947944904,0.5201254990724054,0.49703543019070273,0.4055887368317066,0.31281908352461185,0.20343578222524927,0.09124660272058427,0.014494514014254722,0.0531651449435433,0.1527041140454921,0.267927524395392,0.3787888609221497,0.4899257971867095,0.605913460951603,0.7179351858161778,0.8273453549324175,0.9004659231952492,0.8467291517437325,0.7657715900013944,0.6708285322759124,0.5766564241338028,0.4966440506223415,0.44702207447395637,0.4004494052638632,0.35680270330441477,0.3677176429649083,0.4288463742745794,0.48953177881176146,0.5175485217572693,0.5015691019121244,0.4963615526338512,0.5182394101940704,0.48348451804236214,0.383681855985446,0.27796577208850026,0.16730772372385472,0.06714861360658264,0.06480010670160063,0.16577252633342354,0.2747351205851283,0.3901451867496457,0.5006852967906104,0.6121421993404073,0.7264137659906271,0.8331544624281095,0.9145930642913136,0.9776672279662924,0.9421589416061997,0.8377119092615248,0.7255365930943851,0.6111815573127231,0.5027171967041413,0.38899413894246404,0.33262846354284403,0.41648218148649385,0.5184141602613872,0.5567868677413574,0.5321524773438089,0.5350999693070837,0.5485250750607211,0.5268060594200872,0.4712501760987098,0.40687881464428943,0.3919174500289129,0.43824232644805816,0.48373688137240745,0.5387431349347673,0.6242036287564638,0.725827682782036,0.8184650595576488,0.8966006817827643,0.9739496772090224,0.9777836534493125,0.8822578359783231,0.7740140598529957,0.6610380690526549,0.5466651414907278,0.4381983473428659,0.325796543164834,0.2890701349328946,0.3796364369412428,0.4846230011246926,0.5584614981574538,0.550749873405318,0.5355718617153236,0.5488046194241407,0.535878327682263,0.48880658190595216,0.4213847560667576,0.36800645363964146,0.39247712767198806,0.44170964006210967,0.4911751389020602,0.5571427429966629,0.648859047773966,0.7499344079254122,0.8340559905944476,0.9144765558260488,0.9903606946241061,0.9761899860380003,0.8967896762956356,0.809095926218578,0.7138685683974146,0.6001973474482845,0.49060998821083057,0.3782161409622049,0.28558351338663157,0.33100143330685605,0.4342060206217977,0.5249771878819685,0.5402633223216129,0.5147719115624663,0.52471039747864,0.5371321540899561,0.5050533915198807,0.4479147321028898,0.3796978972014231,0.3658815251917038,0.4146987842511518,0.46553351115196895,0.5235814656868771,0.603540772991501,0.6975892662179737,0.7938436849657564,0.8703018074956463,0.9521339184217346,1.0,0.9287518548262392,0.8217948873934189,0.7075749981967903,0.5989400558521714,0.4849858322460765,0.37218670629323625,0.34118290522477035,0.4334396103995559,0.5333610073518911,0.5779983262279738,0.5419146782635116,0.5202054617149527,0.5330994231847415,0.5235767236641744,0.47647860863787894,0.41286754071780774,0.38220735397909933,0.41729577329378276,0.4652297236958276,0.5172999470092323,0.59156282753389,0.685754269291966,0.7796412973429829,0.8615382147946105,0.9417585638299717,0.9788852684774723,0.901274427074799,0.7908071297838908,0.6814552785331454,0.5687636529222011,0.45310323046901035,0.37324250876937115,0.4320739301115579,0.525596633431648,0.5557347990422712,0.5302756888165201,0.5386090979126013,0.5521346929455433,HB
0.46951315400639293,0.524077871571955,0.5764978569025339,0.591740402358218,0.5913736300388588,0.6117948586348707,0.5517504287068624,0.46048696085758734,0.3677799363339703,0.27567633190211405,0.1823644074665699,0.09548065225294056,0.08440543380856835,0.1664830329568301,0.2613013213605728,0.3571688819501364,0.4514371054552251,0.5362104411077482,0.6159574756156495,0.6937538543838502,0.7572975239494087,0.7304169097113912,0.6625618193139174,0.6153822714595327,0.5668110408725562,0.5769374919426821,0.5726287310412858,0.5836635989851625,0.6143452853440347,0.5613221031904223,0.47113005465627267,0.37822809048279304,0.2857262437277738,0.19211671852759615,0.10811915729296101,0.11303696290049353,0.19971776417049802,0.2931029444803077,0.3888958385676655,0.4835879775852996,0.5758324936667734,0.6712663468329716,0.7660315358814095,0.8161017096041511,0.7645951373579366,0.6913901007237936,0.640947657718409,0.5918220892947536,0.5890021259434938,0.5817315089955448,0.5860105309985136,0.6177530092415912,0.5590340830169812,0.4681903746838705,0.37446324472130643,0.28199441960474825,0.1864722180173003,0.10224905053160815,0.11522737564463131,0.20268036532649136,0.29823712587864804,0.3935421736099075,0.4857036492745591,0.5806039481598178,0.6764666448630661,0.7656230972966939,0.769166534739968,0.6915149034196962,0.6262418540869913,0.5771310437301499,0.5874866699216776,0.6214587308264744,0.6277549777918586,0.6637591808869585,0.6762478759405249,0.599615274145937,0.5059133405838134,0.4101032894683514,0.31601195535201987,0.2240344050924472,0.15557093514116577,0.19839515247228628,0.2923685744840443,0.38649550822238765,0.4791076905703656,0.5747550698295208,0.6706412141640188,0.7662473469361119,0.8501287246525279,0.8420954127315144,0.7652037401223221,0.707705602452323,0.6496006442422019,0.6272824547539929,0.5937318037507939,0.5486137269082619,0.5227956387208067,0.5259685143208795,0.45315533367741034,0.3585853106258188,0.2664565914915793,0.17294515011366435,0.08068315973997253,0.0,0.015969628281059634,0.10621055818404901,0.19837017055634248,0.29323573965251304,0.3891071445981049,0.48396819102546773,0.5759364457460058,0.6490902323647952,0.6176700942851631,0.5607741934349055,0.5062521343937141,0.502934496506422,0.5219750530378191,0.5361414702193225,0.5664740490798952,0.5176430359663857,0.4269704135019097,0.3341001327533981,0.2412255769362871,0.1488842458792098,0.05776998998301236,0.01543888890298939,0.08015658956305538,0.17292872258087566,0.2658734135836057,0.3616087486921691,0.45743609534949714,0.5510891807494095,0.6435518466782018,0.7050048516305264,0.6592339491741359,0.6015568967384717,0.5430285948853182,0.5339944221516184,0.5746208992701899,0.5685574320282651,0.6046469074936889,0.659876094059973,0.7340838989506805,0.8211210788659834,0.8942666232827735,0.8669194296062878,0.7760767022433249,0.6805822077594028,0.5881820103581817,0.49375677226677006,0.3978964789201763,0.3068961804903749,0.29628960480640376,0.37982993512768326,0.47313882482070224,0.5612123769185079,0.595813980646451,0.5626486662059574,0.5492017350861366,0.5396109107091986,0.5308435339585729,0.5793879149920554,0.6406202080937856,0.7222196834249232,0.8030572281138827,0.8043111420693562,0.719065933494617,0.6238728913139006,0.5316576140622108,0.4369029131388946,0.34124684212137146,0.26878481874531923,0.313160659545486,0.4039886328325175,0.49496276021042007,0.5543509080852488,0.5549620390768968,0.5976355634902802,0.6372854146931034,0.6606642476899306,0.7013446728619649,0.756725870417675,0.8275865842108708,0.9117361930779636,0.9910303004595952,0.9999999999999999,0.9174721842995991,0.8297775720825898,0.7480924864916899,0.6557188799044181,0.5665725534232005,0.5622872312180053,0.6469669754341203,0.7247254517494103,0.7194599710046,0.6663398470615498,0.6531715451543084,0.6301219118718733,0.6033804388789809,0.6434981730511365,0.6932231558803355,0.7735827894960613,0.8645426261103474,0.9324784678853514,0.8924777337085755,0.8018872275430501,0.7062954783071854,0.6119696694428173,0.5335140689303387,0.5565949736596018,0.6346970165780333,0.6366201293785403,0.6043271306163306,0.6153890345253373,0.6081298620436956,0.6344195107331021,0.6833765577844791,0.7490901540432323,0.8376212291078996,0.9194452631359699,0.9254355988314072,0.8422647263316966,0.7467152564265865,0.6528237732455048,0.5600198445475925,0.4662095222406496,0.4299682331186647,0.5071578716726894,0.5988116416283263,0.6539680622220126,0.6211251919336419,0.6009721026367807,0.611929265209923,0.5926199686070145,0.6281594373597514,0.6805294494326788,0.740259223490661,0.8254517781776459,0.9097602830183437,0.9304943736841017,0.8527750666378217,0.7591381207207978,0.6633023729883533,0.5674157280969047,0.47156472764263224,0.3855182172481645,0.3983672597250245,0.48759879477244383,0.5786509709949722,0.6452889823705105,0.629879561377103,0.620854407615611,0.6158792106065919,0.5877992897982701,0.6219990448198041,HB
0.0,0.06377214700349909,0.11707362821981326,0.14493127946086926,0.21397259506073207,0.3102259948065571,0.41096445323537023,0.5086681242160429,0.6089285261935118,0.6871877747781128,0.6402653189218326,0.5408054928089197,0.44431702886066327,0.34966958478399834,0.2650476238661441,0.21163011982841606,0.18925616508794119,0.15298274857674699,0.131976387027688,0.16346974469931852,0.19355677309395225,0.1931625384134421,0.17571307557370885,0.12568587766539774,0.10151661919253563,0.14692759455137505,0.19746708389705558,0.19166869739005854,0.11332724076106415,0.06843852643637405,0.1341529937595214,0.22921881406718114,0.3290341863805295,0.4323904430774652,0.5343119187173488,0.5812128624370598,0.5073464530406446,0.40996287343124793,0.3172668562252827,0.2407355728405285,0.19820527327413728,0.174788358708857,0.13646634949494252,0.13436907534296494,0.17466950550696314,0.196104669205017,0.187470336357902,0.14770385739531733,0.09721741712241161,0.1210412717148297,0.1751662968865222,0.1987876091977412,0.13821693480938424,0.06941008449963437,0.11377027642370297,0.20721477995750703,0.3047834396918574,0.4042022088878756,0.5052165326044433,0.601309672420173,0.6514768142471528,0.5764261303954987,0.4734859576685069,0.3726635629886914,0.283785347822215,0.21504562392431947,0.18028210429907432,0.15463070905150889,0.11431379862787305,0.1255804484249441,0.1794178143983156,0.21877200023036547,0.21145039449269798,0.1866476322360795,0.1392634402072932,0.09560179617048337,0.13261693494916016,0.19121914802761997,0.22852998731915442,0.18472979975315473,0.10254344567340912,0.10851006654202244,0.19710162061532266,0.29390441764697806,0.39055407077309967,0.49257081875582265,0.5925478390678915,0.6775864765017867,0.6549991629435061,0.5601875059904666,0.4615242393471837,0.366464147758635,0.2812465438137981,0.22392988439665062,0.1964566069768241,0.15618438690648162,0.12072973013702493,0.14034154639061658,0.18272159241658592,0.20972302236118234,0.20339321051594794,0.15624850023765902,0.10958139422435242,0.14045473930762675,0.19183938425844738,0.20213080256082816,0.13226905739258887,0.05637328583771817,0.08272772640588077,0.17479348854737475,0.27004593471323335,0.35656060877960205,0.4509442924526452,0.5458964396851445,0.5413134889793689,0.44697424531966035,0.3518640093376215,0.26405397735156844,0.2173277859126148,0.2622746422011131,0.3467887426649794,0.44108711988285654,0.5401144675022336,0.6388608067293202,0.7381031290011963,0.8392589188139095,0.9348195882256145,0.9890640122523187,0.9250399959128774,0.8277160428402541,0.7291394931796149,0.6312093855479131,0.5311136288619787,0.42957561963926083,0.3326508062555904,0.242067243155196,0.23047755786018764,0.23049942523598665,0.19118171308730547,0.15652964704526706,0.19785926600693937,0.2315019272264287,0.23539959694584645,0.2117276567415054,0.17103130393579447,0.15779860693548153,0.19895705002212227,0.23178050972356923,0.26595715428023636,0.3398926213141287,0.43898136586307146,0.5360487349522636,0.6361089691286008,0.7280911869413185,0.8177253637533171,0.9136185924867073,0.9994987720938404,0.9841884343422582,0.8923201571536894,0.7967597510305775,0.7116924214135367,0.617465115868284,0.514748423241117,0.4113254569668099,0.3088981921560101,0.24372617160808074,0.26002872171612923,0.23876081760123724,0.18433648484571385,0.13656297835304154,0.1711685364516633,0.21337839456613694,0.23685608536894032,0.2522696939958182,0.2268494427110237,0.17383287750561505,0.1539535179304954,0.1898826741043722,0.22006914204062045,0.2714298605553285,0.3547889024113773,0.4509924670806573,0.5477572178391528,0.6490234384648017,0.7467069816213134,0.8464686619250723,0.9397900400873538,0.9638523313847651,0.8822797690903394,0.7825217837959269,0.6856119888751846,0.5865147358177045,0.4889305704322213,0.38760190323261523,0.29143644891382814,0.22729857291625266,0.2308220851136482,0.20209580347770184,0.1505978219670845,0.14771675181119415,0.19829998289002448,0.2165949256170021,0.21874363146928455,0.1927808046685473,0.15718982924855074,0.18021415454080425,0.21212204887034014,0.23812206059805074,0.3056150242733604,0.39590129558573994,0.4915391219129397,0.5924716043785585,0.6882160642832871,0.7782440816045502,0.8725305055645176,0.9650926538516189,0.9805221462775702,0.8916040184331901,0.7944843522466005,0.6953107596294825,0.5981484302679276,0.4959916277359002,0.39875568741995293,0.29896434228552127,0.22764581879341783,0.2388388644141608,0.2252433222054191,0.1778939347060149,0.14490725335958188,0.1873541074098819,0.21314971708239883,0.22504914174944846,0.21515836868955662,0.17745350328693998,0.16994347813626565,0.20657500019653607,0.22858490528965247,0.27423907812387593,0.3618993670969761,0.45836507473726407,0.5576520430332654,0.6556360528244378,0.7581500760479414,0.8553708609704507,0.952490736938933,1.0,0.9344642847699616,0.8383576511966893,0.7407541618917484,0.6407667721165715,0.537403636379312,0.4340137126869468,0.33340185247797716,0.24219438748676403,0.2292518634112113,HB
0.3941663154148184,0.4085988244613642,0.37486410706488493,0.2984847142284436,0.2157692249663622,0.13126974599065344,0.11507147687857666,0.18664167499855522,0.26337263053662185,0.3312487680644546,0.4052532297908934,0.49179532851784546,0.5846027805393165,0.6783021020428245,0.7419224343984111,0.6869841848236019,0.6041786455105017,0.5237102401290644,0.4552065034064384,0.4134030236194818,0.3758642584629287,0.3441575919844516,0.31424298180402144,0.33423994082923414,0.3816493798307584,0.39478938051251655,0.3821797745467651,0.4044253999985076,0.41924320053277564,0.40801465569667805,0.33838865200231394,0.2504484502312615,0.16150010290427252,0.0936585962850407,0.12989301029575528,0.21622202537304658,0.30953223929105966,0.3997679258532304,0.4897365395800487,0.5836239842922931,0.6741379748729136,0.7075983614354312,0.6377473339412308,0.5531868233752474,0.48130146471084656,0.43064325752242294,0.3907923240658927,0.35614335943182784,0.32329077341108314,0.31899277866411124,0.36105220410173844,0.3809301007927882,0.3528423159409385,0.36786333501978297,0.39343338121246096,0.39603091493824405,0.3348442787409297,0.2458541831355986,0.15622586085246748,0.0629454225057331,0.0,0.04554612008915937,0.13369098377972366,0.22698223435333464,0.315455494084406,0.4075137081889805,0.5015367744232985,0.5954469706255806,0.6793336002299869,0.6758606289967918,0.594348251053196,0.5115076965877835,0.44430159597950303,0.4010735646643072,0.35995607119421014,0.31859327819531724,0.28788303234587687,0.30403543812103007,0.35551325773484266,0.3867420440958177,0.3737953387766074,0.3890532708885174,0.4010918637424764,0.3958028058108912,0.33775984487682564,0.25162842287749065,0.16254007460227682,0.11339417762819404,0.17076522884377143,0.2623532316378808,0.3535882189648448,0.4426407575899306,0.5363021427349927,0.6192040342315538,0.6069043566296132,0.5304363712443362,0.4586443830693573,0.4154677745313772,0.3867252487212499,0.35916243521404134,0.3338471378995823,0.3537810528676185,0.39759349382037634,0.3975809571436689,0.3797880784824327,0.40058370123412324,0.41794456066079244,0.3970246797914253,0.32153167256215387,0.22975727169617077,0.14082729945839578,0.05156114120802846,0.002778328044853229,0.0620596896330281,0.15343031130220253,0.24158801125689144,0.33444299532053157,0.4261421628616643,0.5080330492825479,0.5841431953054023,0.6560249939777555,0.6324875431823028,0.5503997886677764,0.47409679821897954,0.41798327071167274,0.38769090844217324,0.36116408245282183,0.3307269265368503,0.3279176960072029,0.3717685374261829,0.41735565963945864,0.40009256093417334,0.39009919946665306,0.4164704902798172,0.4486155672203972,0.47541215346201693,0.5293516884458355,0.6098849550076754,0.694726781180406,0.7814890858279852,0.8689599444572381,0.9294023412816502,0.8833056098407751,0.7964815101866499,0.703457058831315,0.6094202481646095,0.5153802290184218,0.42134020987223597,0.3277307144211853,0.26710767049723294,0.32579065939627017,0.4092390850601636,0.4586132706858318,0.4732181617193111,0.45841179267840804,0.43749631114228615,0.4580356378250251,0.4675503270712117,0.4309982597569325,0.3983162619601409,0.4132463112985837,0.44978928840574117,0.4783315985073736,0.5261851454392367,0.6001362161363456,0.6874644104366893,0.776311894417557,0.8672445915868302,0.9488078788663522,0.9567332689324582,0.8787849005660954,0.7862238915706968,0.6978824537262053,0.6055895084168587,0.51162318752279,0.4280065253933706,0.4295353718612088,0.457265584440785,0.4575768472070191,0.4495676774562717,0.4369465300153238,0.44397395627649405,0.40948096873754924,0.3609019686737752,0.3616558445864465,0.3996157369672285,0.4424651300108914,0.48046963677673526,0.5368380984313296,0.6179190590775928,0.7052061599689669,0.7972204494927987,0.8815339387764342,0.908844982829326,0.8377158549605846,0.7485192099085697,0.6580260708793263,0.5640721212155685,0.4706676655898522,0.3851994876828898,0.3645343045585251,0.43174053100414767,0.46079357841392155,0.4488831265185852,0.42532780315128915,0.4320555985298936,0.4480789526983876,0.41127783902301707,0.37881350939237,0.40178583983512717,0.44073115374066407,0.4793438112139644,0.5218551775188486,0.5927335190894544,0.6787169984989742,0.7634855086598628,0.8504244670815274,0.9364765962710825,0.9844601019098119,0.9276843884071636,0.8357998068488169,0.7457024384328411,0.6556059388632488,0.5616841978365953,0.46764649518949086,0.376886750615406,0.3585431096220647,0.43127941975023554,0.47133397732114923,0.4700097650322853,0.450869528076011,0.4510973617996731,0.45545932502992825,0.4134031273848894,0.3768204737211446,0.39641638256733847,0.43412815243712466,0.4698900172976589,0.5151303428469066,0.5900525259972756,0.6719721851782391,0.7606696829178999,0.849556972729922,0.9387816496271125,0.9999999999999999,0.9553073409110423,0.8657446523649553,0.7747569676677765,0.6855422171531943,0.591802009765063,0.500751108587329,0.43012767017543696,0.44817296480057245,0.46328660238157593,0.44935046787507205,HB
0.36636031120044843,0.4241198944272656,0.4770911958579561,0.513589617338524,0.5658814522673442,0.6142703321752992,0.6262503967494816,0.5890066676892437,0.5604464359980682,0.5856656393270007,0.6269318089616368,0.632977819119871,0.5964876289231252,0.5122721809904985,0.42373905796984823,0.33298877572284147,0.24453608254990755,0.15380509902405748,0.06753546273769373,0.022208133792134377,0.08431634089991158,0.17134833113112136,0.2642014791248325,0.35855023883662784,0.45048968939869505,0.5386042765782927,0.6324484479985605,0.7260142646145776,0.7748813856589604,0.7080419669217136,0.6388044458895253,0.5944010625191943,0.5584283992884532,0.5135211365831781,0.4771416775935663,0.4851096230798556,0.5235645276966371,0.5782667853532414,0.593045517548194,0.5570164768542637,0.5330271853130765,0.565697893439988,0.6117672112915628,0.6325557006495842,0.5896660859477675,0.5060205101100138,0.41721848578005705,0.3290693905603176,0.2411156997094389,0.14996823635188894,0.0631581124377788,0.016636110457411757,0.0793313712510687,0.16202543168714512,0.24328628733517432,0.33455128304873927,0.42887514818419314,0.5210753308419115,0.6090187333133424,0.7026034893939203,0.7744545871358198,0.7323763502894646,0.6569002226123352,0.5998339758222019,0.5636996528170496,0.5237172557167854,0.4879972060096601,0.49402098679564765,0.5320969031343833,0.5854791273050318,0.6293214713195695,0.6198692410610364,0.574104446981505,0.5657088909725184,0.6042980777978976,0.6345780782952856,0.6094197115232275,0.5281357444857354,0.44148649564250275,0.3528082425138671,0.26240269310970665,0.17329782553509376,0.080604923517685,0.0013126746198589556,0.0,0.08430148705034768,0.17254303910422408,0.2642219208924691,0.35856104496286345,0.45109747877310913,0.5388763702993814,0.6323437688664576,0.7086900749349209,0.6808683769717662,0.6259083824177948,0.5877691932954295,0.5475692920378673,0.5114835069318561,0.5180095800771768,0.5514807473689293,0.6014355684994067,0.6362539404653332,0.6134949474870944,0.5800487031674814,0.5939899102795975,0.6368886451706267,0.6605638093063356,0.6212044903006358,0.5406748518175913,0.45380417461294564,0.3627493436508079,0.27474468713401745,0.1835028168712406,0.09545502823338292,0.015881627009092347,0.03049821854609447,0.1146188312561992,0.20867961148090874,0.30268596627358446,0.3911895354469267,0.48259261148368526,0.5769324919133353,0.6711253072959461,0.7424412226482903,0.7058233164079645,0.6455144525732383,0.6056332213565797,0.565996242432467,0.521077116235445,0.4967416174549276,0.5181356290620435,0.5688758599055216,0.6181836924468743,0.6127979448981627,0.5777710399691741,0.5890204125955446,0.630657513613006,0.6548801685388493,0.6733733163093399,0.6876808441617314,0.6629983683484036,0.6205043932094328,0.6181280842824429,0.6513063732092158,0.6488994224050545,0.6035432771801962,0.5511120197366491,0.5251482629391394,0.5585151374391585,0.6020308609257471,0.6380104096323237,0.6829135200211366,0.7567294247082633,0.841082022428932,0.9284934843101106,0.9999999999999999,0.9807924790128636,0.893433137803831,0.8035397775001191,0.7137357360834548,0.6195381731408233,0.5370752687260317,0.5555535967224526,0.6335537375951249,0.683949772746505,0.6831304902400087,0.6465110769957428,0.6126348041134039,0.6358279735388547,0.6659103442695523,0.6486050564934643,0.5986565884533602,0.5549674521835662,0.5443953651664298,0.5784841576222143,0.6168102743012677,0.6575138873922536,0.7213278663993622,0.7929785558343764,0.8733965825860605,0.9543270596982302,0.9660167783403187,0.8910663887413987,0.8168185983421595,0.7393059937219143,0.6482562764039105,0.5605996891404706,0.47009478919739667,0.44222323004598574,0.5165345116186394,0.5998030952791079,0.6604600224367686,0.6648051960564761,0.6356306527127701,0.6000691733002189,0.6207899227831492,0.6593543603742372,0.6587022979423903,0.6182468279416088,0.5659015002827626,0.5241542095759429,0.5277737622133066,0.5672827615838038,0.6053525036034969,0.6483997446301354,0.7227527419585612,0.8063771458937453,0.8928577562107297,0.9716472286278351,0.9726689948469692,0.892630822706001,0.8025883882167867,0.7083542075180197,0.6169482130903404,0.5294991214707799,0.4853973546765554,0.5551349005954366,0.6325539207442147,0.6711892424912608,0.6599477267783268,0.6225065989139024,0.5808868130727362,0.5891581651176804,0.6247350943608722,0.6309174105246728,0.5857110036673444,0.5329933173730951,0.5082818703134019,0.5360553272821166,0.5805924941657991,0.6172849134874095,0.6638117637175637,0.7353943435625311,0.8196139408892739,0.9060508262492116,0.9741032802213224,0.9392218846173602,0.8530621582615802,0.7619379700498207,0.6678614519237,0.5788872086191234,0.4933672331963984,0.48632824412814724,0.5643945877076783,0.6347023907310533,0.6640406879079565,0.6670415752727946,0.6262697612955027,0.605240900382327,0.6390368901707167,0.658584772735982,0.6302415152122155,0.5795515430556092,0.5416455258513254,0.5589571452238625,HB
0.0,0.06445842630110676,0.12988949353891832,0.11101964259288355,0.12052841397025893,0.12483042353414886,0.08320920090451778,0.03625421277387053,0.01912721459259381,0.10096216045271977,0.17294901077477687,0.21562381399780173,0.2019885819143814,0.21367689683996272,0.21001292195485433,0.15733735216440103,0.09359019484065834,0.09699925606119408,0.17386880678594752,0.2697057921903121,0.3692241350309051,0.4739947284042709,0.5741554554525465,0.6750002677620106,0.7706845411156618,0.8263082368611219,0.7658652222840754,0.6682005488807619,0.5754979677087042,0.4960808535814798,0.40605670293642193,0.320832445704208,0.27220042794612365,0.2658549840397906,0.25336961177928297,0.19757631809664256,0.13861590903769794,0.12894964092861305,0.1848787700258323,0.24689449689804843,0.307308664867997,0.31278241711695953,0.28041693513740706,0.22605802564098187,0.1463242681401491,0.14874775441379517,0.20917805244387244,0.30365923519825166,0.40316915435463274,0.5081288103718995,0.6079052500530109,0.7085046591023669,0.8044974332908326,0.8263489488187767,0.7448298158615212,0.6486714597529826,0.5495242175956547,0.4491949425349109,0.3589588519766309,0.28931423969227876,0.26737247209231274,0.27781207965518573,0.26164668211619335,0.19574862266271142,0.13770316895008783,0.1473180564362886,0.20910176553897086,0.25982856217845285,0.28085204894460913,0.27895705660094294,0.24809088535161905,0.2172250889672116,0.22169928864485144,0.23706122274359664,0.19502412222068588,0.12445607884370435,0.1143107778859287,0.1832797077227677,0.2757111594181121,0.37598644787778834,0.47620729595324063,0.5817574690384122,0.6780884055269647,0.7665890926852841,0.8225845095506807,0.7593238104019093,0.6651771671958153,0.5685538879664711,0.47211618551161294,0.37991455626412574,0.29615990069236564,0.2725870473947487,0.29210890704981063,0.3147117490299858,0.29306274023110723,0.2392509788779722,0.2273362954402025,0.2729369159095716,0.2940869842131353,0.2715497524591932,0.2746534235332878,0.28203632289618885,0.24470970698177652,0.1796627733727152,0.17800399598459982,0.25167264993482696,0.3490946838810838,0.4556609543149208,0.5444307490529039,0.6379833657654514,0.7365294913110265,0.8336141138849511,0.8835069437484315,0.8145620654753389,0.7174171397774272,0.6207759183098722,0.5291671100232556,0.44449597616688186,0.35862459589947493,0.301678649038122,0.27914867411315214,0.25782819098050425,0.22229370632490486,0.1593241737716824,0.1118140966372747,0.1365677116693209,0.19613238745799233,0.23334221318810888,0.21788397353015676,0.23367897738622267,0.2654297902920777,0.2600671204149787,0.2142875489849223,0.1612707625237384,0.18710883941833978,0.2515258076528357,0.29130754544682347,0.3087585090966747,0.3318307337950288,0.39185785500015635,0.4794374492083193,0.5583657931800179,0.647347542009181,0.7490354361944047,0.8498610519973471,0.9392322413707475,1.0,0.9585122947522811,0.8643932361131759,0.7577460055563465,0.6578389927270023,0.5568762872152195,0.4545862478088085,0.3554523923081616,0.26377077277063843,0.222374939718055,0.2795169154463004,0.3134427513758262,0.3147620357816141,0.3064512315728476,0.3271680703274582,0.3200461113617794,0.2742621477410567,0.27197028159365577,0.32554575562610144,0.35084211649621944,0.3344223644234203,0.3125872993913563,0.33265594992586833,0.4156946186469517,0.5166954285615013,0.6170550425702692,0.7130234568785179,0.8062311766576338,0.8943154316461186,0.9383763436648755,0.871892475440402,0.7756858878884807,0.6777753367050972,0.5775651757812157,0.47700073075909755,0.37316425584378665,0.2747020648876608,0.187168733653446,0.17402325035370314,0.2416748018528898,0.26925572407333975,0.26033127517784016,0.2608347350938929,0.2932955734572338,0.3157232061462345,0.3140236967518426,0.2938345968003142,0.24573680393089803,0.1884808704137797,0.20386389729018717,0.2718088807486634,0.3140500074881991,0.30562295730558464,0.3058641870050196,0.3660685629538398,0.45456251045332996,0.5471292573928057,0.633537459927286,0.7199903065900792,0.8180289769861222,0.9107111875257798,0.9623044040937598,0.9110258159841265,0.8166019979770844,0.717448242156931,0.6134477254987676,0.5051712656945697,0.40414465289344603,0.3012852548886773,0.22452475971207675,0.2396644262398997,0.3011804745376583,0.33328459145746225,0.36096162495045414,0.3271988446947376,0.264864557739815,0.2041038098601704,0.17547284900243243,0.2275960445018943,0.28267884622376327,0.2988012469408736,0.29711159809681686,0.3378358876625773,0.422394124252385,0.5146520879775274,0.61066864689667,0.7073803682422994,0.8008731445353168,0.8910775679352865,0.9496823397663805,0.8994611003769069,0.8048101573785966,0.7045941023678965,0.6050171057220721,0.5054860142129631,0.40130828997903967,0.3012279343100681,0.200984387201125,0.13724468088221098,0.18224984255935284,0.23492880713372144,0.2464434707245391,0.24424434287228358,0.2541720253807844,0.24337742505846838,0.20222302402479353,0.18513125182557055,0.23629780828441316,0.2767390222006787,HB
0.7616637477452382,0.761802233826854,0.7818960870664875,0.8288370008120054,0.8383571155432961,0.7676479998955625,0.6798429762206792,0.5887037017633416,0.5005360052539771,0.4090492713718911,0.3192683047511388,0.22966485518339458,0.13896894444161628,0.05995303008988678,0.06911294423720776,0.153876053624807,0.24318922343444632,0.3362697521541403,0.42584167891948316,0.5156606939500266,0.6061934485645655,0.6934154365172014,0.7768323734131355,0.8248059542576571,0.8048015567926345,0.7714394408199805,0.7463171665902122,0.7725011956029317,0.8198823633410008,0.8343123451640773,0.832698648920865,0.8403404427198016,0.87935181713235,0.901836377257045,0.8556023973174944,0.768403393259927,0.6780906705777581,0.5899832818557098,0.4993174730031615,0.41139253088294564,0.31913548460810054,0.22711086386610574,0.1391876199295327,0.057059962108166384,0.06611718519562632,0.15365845742604306,0.24670656992096668,0.33536856512707286,0.4262512744880304,0.5180782208476145,0.6061069631923064,0.6969311886806278,0.780478149324322,0.829604359284932,0.8058742090706106,0.7730361127932941,0.7445797719444658,0.7570690426590005,0.8010605596608218,0.8069568490526187,0.7836446542359328,0.7688765022707349,0.7942169961739851,0.8102174017074402,0.7539811118143833,0.6656554861600892,0.5756247627297033,0.48632651291563106,0.39650329269111745,0.31148676750235144,0.23757048911117779,0.16252118022985734,0.08110773109802377,0.0,0.003891255932139681,0.08980797738768992,0.18314968860113284,0.27569773206653464,0.36367111286188053,0.4553456551533572,0.5437474462112708,0.6328447875649852,0.7157518024536711,0.7689235194120219,0.7536274702805834,0.7231525189035484,0.7115830610578004,0.7447552083621569,0.7925409354534629,0.8144314194477029,0.8152181572036927,0.807985707490974,0.8421191255697795,0.8666933011792568,0.8273934079016991,0.74032039983178,0.6511816208728911,0.5610744626434132,0.4703090445556542,0.38160733486519044,0.28903152635220347,0.2007903695868754,0.10969521080908778,0.03262648846855848,0.04585031797606959,0.13153875186245495,0.22484221601211446,0.31821624417384115,0.4115593808250794,0.5025716500867623,0.591022668239076,0.6802349907233138,0.7645428733492996,0.8216241736567942,0.8101334496833035,0.7737567331287889,0.7421775563018218,0.7548427431140734,0.8015408334986289,0.8161320177538256,0.8049438871427397,0.8024529756859502,0.8398906104914956,0.856685818659183,0.798037152118868,0.7080056130558432,0.6198725663859777,0.5301053057517304,0.4409460007001585,0.3490433774099005,0.2610751504742678,0.16858129646207481,0.07817936631190564,0.015664625744273963,0.05884398202112723,0.14766488199126165,0.23660553285616787,0.32974763138657887,0.4231215804366058,0.5164169876160667,0.6065185669893747,0.6930163145955213,0.7183846988600493,0.6442775657502209,0.5532667101572932,0.48136937622489046,0.5207340057722891,0.6078740158930418,0.6987051827102548,0.787115024363576,0.8779803729637197,0.959109456017422,0.9678797418823235,0.9037112471832629,0.8621923318039355,0.8250087272068474,0.8287368808541236,0.8383870922835741,0.8233246771967191,0.7768938103174219,0.7687832872637324,0.8041521025819829,0.839089902653088,0.8531705320715954,0.8057967649572348,0.720543053426125,0.6324207107828241,0.5438205983886046,0.45341745116126503,0.3748480391404912,0.4047952559653732,0.49399397570319253,0.5823441624399313,0.6728486687525204,0.7612915538160907,0.850095373686409,0.9368622232723778,0.9775351180704637,0.9216019479816895,0.8749022096165862,0.8386056747476434,0.8348093163738541,0.8384155196917469,0.8205202576387087,0.7747115759165608,0.7382543974988938,0.7518425322222453,0.783743042742989,0.79337937977988,0.7445843463489654,0.6608377244219914,0.5708458264424647,0.48171788003390154,0.39877876532952733,0.4155260550448611,0.5039363146508256,0.5919302725765432,0.6835380305648016,0.7713828379576584,0.8598012676310531,0.9236178981159848,0.8886078929908312,0.831762253432806,0.8006777228915167,0.797473274802291,0.8225720165717483,0.8354398273504295,0.8115485175851425,0.7717772896932873,0.7849537466240069,0.8170958668776471,0.8508377514458323,0.8425802551662969,0.773078709144899,0.6823799543943023,0.5939274193140944,0.5028750536762849,0.4261407710996385,0.4589098045761924,0.5452527924645949,0.6350973805402913,0.724133971131121,0.8153644376258979,0.9033495785348251,0.9866169344854576,1.0,0.9341538063698176,0.8970452085044007,0.8622642267801528,0.8595071854105452,0.8551788590957097,0.8310030253294567,0.7823163589312843,0.7770170542463344,0.8098403989626926,0.8427791465975674,0.8547891795547706,0.8106610492632738,0.730613583085614,0.640056602172379,0.5550393935691751,0.47285037803227964,0.42202772827709684,0.4863532280986585,0.5763485131702453,0.6651823182309549,0.7536134341033047,0.8429015604966024,0.9226445392572149,0.9735642121698829,0.9261493254039856,0.8664127972132849,0.8215520764151287,0.7867930624390433,0.7846874465267815,HB
0.22084519244759504,0.25813017603396193,0.24125198664338388,0.30279746387992745,0.4052805563730447,0.513447590610966,0.614264126349744,0.6113555312341444,0.5144444234019553,0.4138513793996669,0.3246883243138191,0.25898950336725635,0.19789741790588955,0.11713528098915249,0.04887016852948478,0.062497538922324125,0.13952400680328803,0.209280652859959,0.22154272094842764,0.2512036855718215,0.25468548381565526,0.1915472668803705,0.23327158171789686,0.3388854955501278,0.44458845891384635,0.5500828775072416,0.6570675201806694,0.7006857667780478,0.6172553560782609,0.5141043022655994,0.4135966088520512,0.322612699724958,0.2608858670743154,0.19627994410553928,0.11500157313230275,0.03951456066133252,0.044072872910274286,0.12531944483987612,0.20296437688413416,0.24149513264083933,0.25504719836406753,0.2709843097319006,0.20594448020297895,0.19913844554834126,0.29362396441183536,0.4009606596212326,0.5050559516265402,0.6122972150750364,0.6696478912132352,0.5953786484840836,0.4953033753182555,0.4046284296652244,0.3199804041803359,0.25711508144399253,0.18903687579993644,0.10468987305870636,0.02264251684440166,0.0,0.07281232523783487,0.1590310857446836,0.2156460973921016,0.23516285076777776,0.2707754081838326,0.25363533628864,0.23162664048091453,0.3171027919063326,0.42109089510615016,0.529554778979053,0.6222218225409305,0.5920611140979183,0.4923763621685574,0.3949103508083859,0.3093983490528208,0.2473164230570991,0.18080411843624733,0.10152814166572544,0.041685295929683175,0.078111099311865,0.161644430153285,0.20847052886082873,0.2160839164359648,0.2546374592294808,0.24702218144518706,0.2513708156587061,0.34549983339888357,0.45422158634974397,0.5632339739087514,0.665950059689317,0.672959782615138,0.5781321979151889,0.4756865650103893,0.3776490663868587,0.2966327102985017,0.23871134411723516,0.16761993615491078,0.08788637592968462,0.047143701403654426,0.1020674062360587,0.18376526940182314,0.21095632561232114,0.21570959510830645,0.26573587138428467,0.2578568981715884,0.29957945365710026,0.39855023066264483,0.5049070222216762,0.6097895146870921,0.6330318515146388,0.5419483700739801,0.43741183415384455,0.3433377679035622,0.2761711602457887,0.2167175956854993,0.1393159983039579,0.06200727741673151,0.05513206732108278,0.08930155281723118,0.16192532831348883,0.23816328289205535,0.2968735994899473,0.36878480006241976,0.46321575901023804,0.5645475856070988,0.6687809688411342,0.7727088387387725,0.8809437559205558,0.9810625811126815,0.9876686406557008,0.8913240769301171,0.7871269119271781,0.6799634125400652,0.5710660754479219,0.4653779445677152,0.3635101839025302,0.30524782837543174,0.2606146654284648,0.24019115358096677,0.2241946399854281,0.15229714929907712,0.08532716374376947,0.11793080554215807,0.1964660312687384,0.2640242896436028,0.3239798297318689,0.4118787384167871,0.5117980483678638,0.6095548375482002,0.704957682086473,0.80942418993885,0.91134901209073,0.955801094297903,0.8778994092737359,0.772104132887777,0.6643930153861756,0.5603894096992265,0.45218433948303904,0.3490974931493357,0.30153415657709715,0.2638575997971896,0.24454710570328653,0.2360777950692442,0.16826311364705215,0.09203295916759979,0.1029403670035085,0.1812863736451974,0.2522606997778686,0.31024390946002056,0.39160126645369886,0.49048373077314766,0.5920842034517516,0.6949266725266806,0.7839196902259565,0.8762539462060995,0.9163633472295437,0.8358075761747578,0.7359682653007388,0.6476920044518389,0.5604735943800571,0.47360120226314784,0.3820218631261362,0.31726257968237503,0.3185354932000005,0.28314154741752773,0.2735454341481366,0.2389404557775906,0.16031437533280746,0.07571211028522318,0.06517752066279581,0.14484810112864788,0.2264950270072298,0.2931593799326736,0.3476124604401184,0.4323622964074537,0.5379747912112146,0.6413694748090198,0.7440312303529758,0.8459214148611004,0.9273323136025965,0.8910950865427302,0.790481539186869,0.6831588886614813,0.574395458695181,0.46954756873255754,0.3664375105762602,0.3216502811752592,0.31235506015552394,0.2843535558446061,0.2643438856847372,0.20473312047280012,0.12098570745574067,0.06706632077773633,0.12131958255778608,0.2051133639493613,0.27066747656039747,0.3320266277955174,0.41868071512586347,0.5183288514172856,0.6230584713056041,0.7308643491850811,0.834708378736703,0.9368862876883485,0.9805712660251568,0.9094077513590876,0.8072340650879043,0.6988291900898248,0.5908951906550454,0.48692002345699137,0.3791075807674741,0.29702285423836206,0.3068950775944502,0.27789786834170493,0.25289283480414493,0.22062170961847338,0.14747097447441526,0.08310441932383539,0.1181622649447841,0.19672732922702918,0.26255927167730697,0.3253642973182945,0.41310843971366407,0.5136250388758258,0.6163966282609784,0.7208836432319684,0.825154867770597,0.9286268488758224,1.0,0.94396023612556,0.8376930281322142,0.7314115917783818,0.6264580701154258,0.517716819024952,0.4116362013662024,0.3224307190708654,0.2930363729798581,0.24962558107241717,HB
0.0,0.045254518432869914,0.09455888115433406,0.1438732122584325,0.19318732938245833,0.24221341018014111,0.2878673080655979,0.3357380323353253,0.3850408478255319,0.4343551789296303,0.4836695100337287,0.5329838411378272,0.5822981722419256,0.631612503346024,0.6808716657159556,0.7277267973169614,0.7742364314788296,0.823465807809025,0.8727783290365346,0.9207275581552927,0.9433965146736973,0.941676130175002,0.9419320748593223,0.9317954259932009,0.9007836215778166,0.8652604792443411,0.8321170621025625,0.7982206082260235,0.7824940034295008,0.8055031649909106,0.8398504970844427,0.8682922956374393,0.8859353356485135,0.8928922437392423,0.884461693150628,0.8646076398689329,0.8192524471840071,0.7699554141528805,0.7206410830487819,0.6713313788468216,0.6230267312521002,0.5776203484475819,0.5287869376889822,0.4794809710898391,0.43136848945162765,0.3858636375861608,0.336934007471535,0.2876201430186817,0.23831766296612802,0.1904591456363582,0.14479632589542032,0.09576705119691029,0.04689191063199913,0.010690780186049995,0.028407589627831364,0.07493064130174976,0.12063056952049123,0.16968549736184507,0.21899968572814799,0.26831401683224704,0.31762834793634487,0.3669426790404439,0.41625701014454175,0.4654606749011301,0.5117677438673454,0.5588371395861997,0.6081103146075427,0.6574246457116416,0.7067389768157396,0.756053047139099,0.8050584860395665,0.8506614018937029,0.8983415340792086,0.9333082858554896,0.939727234409913,0.9534045733973114,0.9749931870974978,0.9910635266272626,0.9576842678987748,0.9091923773152918,0.8633061333015709,0.8157527894707378,0.7664586953595091,0.7171443642554101,0.6678300606283376,0.6186900972531705,0.5727041763038733,0.5254704304326504,0.49413627550897254,0.5266156712841589,0.5757497066468229,0.6248522159947517,0.6707080215200234,0.7183073211742133,0.7671902911974906,0.8126477318533889,0.8603505487409755,0.9006234562193255,0.9060604618941966,0.9105808852403461,0.9085287866536057,0.8955817379402313,0.8728250127316474,0.8408263205755876,0.8109642213482106,0.8163593438558547,0.8516455575377249,0.8861467822615157,0.9195736637579823,0.9482090339959801,0.9602553461901056,0.9581516873666202,0.9666373453400962,0.9845345391387325,0.9622229572310964,0.9168843882443863,0.867786599157391,0.8213155236543607,0.7744177117183111,0.7251550291274983,0.6758406980234005,0.6265263669193014,0.5774915506692981,0.5483833405494689,0.5827332203467711,0.6317687105638935,0.6779093118387763,0.7251599532249906,0.7734170943874087,0.818830936017723,0.8671371473301995,0.9087476563643528,0.9144894854529232,0.9023898641533943,0.8992451259082181,0.8954615145143373,0.887854348014253,0.8903118978266618,0.9075090865970604,0.9101674349224227,0.893838581113252,0.8692451482222223,0.8349994631266503,0.7996992801309919,0.7951599324049097,0.8268739270579591,0.8665334162284793,0.9030570808594789,0.934409240123309,0.9543076847528168,0.954641955529246,0.9602167444805241,0.9832397003726178,0.9665248203559056,0.9226108929736053,0.8736746263018186,0.8253608765289517,0.7799540149259968,0.7311304106790609,0.6818169083247989,0.6325025772207011,0.5831882461166022,0.5338741667229653,0.4856302773522412,0.4707389576844565,0.5130094069477187,0.5591166770495767,0.6063819102330008,0.655567608944972,0.7019786426941094,0.7489391054214014,0.7982046635563024,0.8475001733381211,0.8947010937298681,0.9241785733073017,0.9166475918600129,0.9074533018116959,0.9153778631228684,0.9201694734711575,0.9049021580799533,0.8770874775633506,0.8422101251541164,0.8061968140286491,0.7761955774222244,0.7911790993119275,0.8294752098036645,0.8666637688219889,0.9031536941231669,0.9368585745713006,0.9623778851215797,0.9622754910406526,0.958005356676596,0.978909798046921,1.0,0.9708670094452697,0.9231687641104156,0.8777737091660445,0.8289748292311679,0.779661457833877,0.7303471267297779,0.6810327956256799,0.6318471903189047,0.5970345116385705,0.6235587599329638,0.6694121107653447,0.7185759298804649,0.7665623844007514,0.8121229547725514,0.859589246489626,0.8977341393371563,0.9073741806940613,0.9063500581626227,0.90827844824638,0.9040360666441277,0.8940424484320186,0.8747771051603564,0.8454315819649799,0.8138681247535069,0.8154148685488206,0.84727275706436,0.8818979797290556,0.916327373451761,0.941473664234272,0.9586427120764845,0.9674893904579056,0.9753362962949691,0.9964422906062579,0.9861097377015852,0.9428509732756912,0.8937395072211796,0.8447444256674549,0.7991635188936524,0.7511905566117566,0.7018859549752436,0.6525716238711433,0.6032572927670455,0.5539429616629478,0.5046286305588499,0.455705289403972,0.4298441039401211,0.46632549230626935,0.511649819825708,0.5599454218477034,0.6092370938922456,0.656886349394172,0.7026266270849615,0.7474460706361761,0.7864353976217031,0.8245898772985513,0.8724075591891447,0.9080269314506532,0.9092761007270781,0.9069803972585213,0.8998547977688551,0.8923125366090999,HB
0.5286552501310063,0.549264353026204,0.48067587428770775,0.3885128157552433,0.2991838877337494,0.20647835712987073,0.11461227096994553,0.027900227968787494,0.0,0.07310685513118775,0.16484787059196704,0.2589936226148234,0.35317432968067797,0.4466620717776352,0.5290731869193239,0.6093307707781123,0.7020823311679102,0.7769565381980664,0.7527911328282436,0.7015075788954953,0.6557883340544769,0.6062108373157363,0.5985060641289249,0.6457736418814445,0.7058184700108482,0.7389417673849933,0.7393689747829474,0.7301809486705934,0.7573008832017379,0.7816935474840271,0.7232337573338091,0.6346337391439746,0.5455843304012284,0.45482976805746844,0.3646966301313146,0.2738181903511756,0.19373148585532918,0.10411413657108026,0.0433244431314358,0.0913702538991823,0.18352394796293692,0.27769976147919984,0.3718811041094071,0.4660624467396147,0.5602414861221314,0.6532260215147422,0.7340194139539301,0.7941334797200309,0.7588186103619853,0.7068567336701775,0.6592813211181999,0.6123560141493795,0.6175876016386671,0.6701333778142519,0.7214843766060527,0.7334614233294697,0.7223467206619377,0.7187503942918042,0.7513225808107938,0.7499092933612704,0.6746364140115154,0.5864798343007004,0.4974866190370236,0.4058133019541099,0.3144314704044927,0.22415807819039224,0.1308400109467145,0.04518391745285161,0.02644748883177861,0.10549560733388541,0.1955362753516986,0.2894928193031532,0.3836502718396707,0.4758330741583182,0.5638656248927887,0.6478144093649679,0.7371107238350215,0.7940673415517742,0.7563197140389363,0.7046257995081077,0.6572795816398281,0.6095801883086068,0.6044573431826267,0.6517808573678042,0.7026018273342151,0.7161376308581676,0.7076661944393609,0.7095453236828141,0.747968267570769,0.7492473844151221,0.6756388627423225,0.5876031751816518,0.4972708227484881,0.40750652098920237,0.3149740642387747,0.23592648390987214,0.16146172546768567,0.08596464715247232,0.014851587674101163,0.028244635104097304,0.11528996521350932,0.20489839336577553,0.298683640138943,0.3928635572188841,0.4865322092455103,0.5759695401617299,0.6685052230683265,0.7588899471000342,0.7803855986880631,0.7263173656194571,0.6793348557593007,0.6305723573951835,0.5985104921896253,0.6265443364323428,0.6859670463501238,0.7254991259979259,0.7287431883405883,0.7163032754726918,0.7384521626489867,0.7734036847342279,0.7364567545655573,0.6510489370012554,0.5659330744592831,0.4846506344105701,0.39289095042442146,0.3036524420999974,0.2103732344633965,0.11950163779092282,0.038133909388347376,0.0467560515021751,0.13050570671313177,0.22321844695798387,0.3173888464537845,0.4111829226615621,0.5008199511886297,0.5930430949731812,0.6871947948881155,0.7768088911507559,0.7927599287303261,0.7358113063507302,0.6884321884799388,0.6393860319882508,0.6178985747162863,0.6567113548410578,0.7057781229954022,0.7539902635894261,0.8232406841661343,0.9062907636961007,0.9811763029376784,0.9691796004886818,0.8856067324801372,0.7937895916984968,0.6996468052088002,0.6080182962001676,0.5798870082297566,0.6576009210992403,0.7445805814781207,0.8040448076597898,0.79262451766321,0.7528630504377335,0.7464906280637721,0.7524118847389479,0.7314043094195698,0.6774607550528461,0.6275979371439487,0.6390231204092743,0.6867232249285454,0.7344817510123799,0.7958310740318394,0.876063737890514,0.9540886465552346,0.9565958413279071,0.8756026224609438,0.7819513499924061,0.6877708578017457,0.5935895151715359,0.499416499317181,0.41058338840590336,0.4054521506951997,0.48965619335496835,0.579299394072237,0.668185751159556,0.7528080917492502,0.7925195329095559,0.768492928312647,0.7314676815811593,0.7355891186010269,0.739764930032703,0.7214852930050158,0.6695739889684592,0.6251461097581966,0.6426674543839549,0.6914884705638814,0.7384434949899609,0.8020373953744456,0.8840755457810535,0.9621736882144746,0.960508101105341,0.8746324945559097,0.7804899554040473,0.6869634630746325,0.5976616461549692,0.5081933851909091,0.4885198871308064,0.566683190471381,0.6559967895096951,0.7423202291786298,0.7926499871141796,0.7748420872925167,0.7423298171992173,0.7479260017295571,0.7532949430064647,0.7383982275486943,0.6877253292432163,0.6368709998895222,0.6444609201157264,0.6939742759521293,0.7417256088084679,0.8040192723572038,0.8845569891121424,0.967153784669487,0.9999999999999999,0.929708107409028,0.8369815814731515,0.7477658412153373,0.6545833037240935,0.5604083907705264,0.46910093483026194,0.44488370633073804,0.5218619163476663,0.6131779808407337,0.702082555714595,0.7844674468024829,0.8124420924709445,0.783109740476115,0.7560088387165159,0.7620379540999461,0.7570973908591526,0.7172645783446879,0.6577864396845216,0.6221019324346345,0.6539492539191877,0.7014982473389052,0.7504459782444245,0.8210094346065918,0.9046457787016936,0.9671228595615403,0.925348844416361,0.8378699561273323,0.744698020337836,0.6514771940301393,0.6002426600412679,0.6600661485436546,0.7448386685235521,0.792092892648142,HB
