0,1,2,3,4,5,6,7,8,9,10,11,12,13,14,15,16,17,18,19,20,21,22,23,24,25,26,27,28,29,30,31,32,33,34,35,36,37,38,39,40,41,42,43,44,45,46,47,48,49,50,51,52,53,54,55,56,57,58,59,60,61,62,63,64,65,66,67,68,69,70,71,72,73,74,75,76,77,78,79,80,81,82,83,84,85,86,87,88,89,90,91,92,93,94,95,96,97,98,99,100,101,102,103,104,105,106,107,108,109,110,111,112,113,114,115,116,117,118,119,120,121,122,123,124,125,126,127,128,129,130,131,132,133,134,135,136,137,138,139,140,141,142,143,144,145,146,147,148,149,150,151,152,153,154,155,156,157,158,159,160,161,162,163,164,165,166,167,168,169,170,171,172,173,174,175,176,177,178,179,180,181,182,183,184,185,186,187,188,189,190,191,192,193,194,195,196,197,198,199,200,201,202,203,204,205,206,207,208,209,210,211,212,213,214,215,216,217,218,219,220,221,222,223,224,225,226,227,228,229,230,231,232,233,234,235,236,237,238,239,240,241,242,243,244,245,246,247,248,249,250,251,252,253,254,Target
1.0,0.9776374756900471,0.9537332888163311,0.9298282920315214,0.9059639043826372,0.8844160736347108,0.8627309032526208,0.8388580182257116,0.8149530214409019,0.7910480246560919,0.7671513825798971,0.7446730558586453,0.7238487066731897,0.7000777411797018,0.6761727540654722,0.6522677572806622,0.6283627604958523,0.6044577637110423,0.5805527669262325,0.5566477701414225,0.5327941283758655,0.5114602371436795,0.48955947492613217,0.46577156096535954,0.44474252625241295,0.42326546623558814,0.403286206909231,0.38426289157368154,0.36758313008485266,0.35203449602626313,0.33969349703330454,0.32888745945822506,0.3174417649849679,0.3057387683048075,0.29318338736132,0.27892963701187956,0.264199183939413,0.24764176166892315,0.23390589514262072,0.22024088010462517,0.21152610944999728,0.21472538325401458,0.2269441256076794,0.24275557577181395,0.2604082508491422,0.27835667340468506,0.29756729057190445,0.31707778912729856,0.33620999316238853,0.35533617463129974,0.3737993921899554,0.39092090796907863,0.4035856543438946,0.41282224879222296,0.41809049576754576,0.4129322091196417,0.4042462655666479,0.3933330758692506,0.38320846251656826,0.3744107819578478,0.37092113819585437,0.36568894224203574,0.36781364550965967,0.3766188521394185,0.3875326400752598,0.3963861111901351,0.4057370813472243,0.4069454166080718,0.3917794892862999,0.3703465462060511,0.346534524735857,0.325246250079984,0.3032986332407225,0.27941545044939364,0.2555104536645838,0.23160572765602028,0.2080997345081287,0.18777924576673877,0.1645391577243176,0.14063518307396417,0.11673018628915438,0.09282684817425685,0.06970691606143964,0.04978378866141936,0.037107521024595025,0.04951904694773923,0.07291379989974156,0.09681847272011379,0.12072346950492391,0.14462846628973358,0.16853346307454353,0.1924327167490697,0.21505630974947354,0.23575098458676802,0.25950373688035333,0.28340873366516317,0.30731373044997323,0.3312187272347831,0.3551237240195928,0.37902872080440275,0.4029337175892128,0.42683871437402265,0.4507437111588325,0.47463002487226547,0.4966994637279839,0.5178775104313694,0.5417139849646425,0.5656189817494524,0.5895239785342621,0.613428975319072,0.6373339721038819,0.6612389688886916,0.6851439656735016,0.7090489600406668,0.7328321749721828,0.753697222900677,0.7761233957563226,0.8000192362641213,0.8239233995061758,0.8470853762464984,0.8641172776294087,0.885403302247404,0.9023783934145101,0.9248545548177173,0.9487553604240714,0.9726206713659907,0.9898051178596418,0.9779413034514878,0.954716970793272,0.930812937208012,0.9069079404232022,0.8830029436383923,0.8592388391767137,0.838478622391475,0.8159312663942714,0.7920326698325829,0.7681276730477725,0.7442228454981165,0.7206481150992649,0.700246011386156,0.6771554620532861,0.653252402457153,0.6293474056723433,0.6054434582301126,0.5821973134440616,0.5618486223519992,0.5383767108681232,0.5144745771724925,0.49151631063164747,0.47106346161891866,0.44765198733655753,0.4271561998310015,0.40560772959509617,0.38520440276644996,0.3654441529900322,0.34950330960248754,0.33812939774300577,0.3285637625966843,0.31977006857354684,0.3077395843666817,0.2962449055041737,0.28253387373685046,0.26888157972648274,0.25595525331589786,0.24202859366164142,0.22864370139869883,0.22563947533021367,0.23459166025466738,0.24782952196885366,0.26419272174956876,0.28400802624360366,0.30316374662564005,0.3222800779491519,0.34139635850211825,0.36037384165973396,0.3777468681111529,0.39365500662031294,0.40619076657841036,0.41403562587289067,0.4127809332939466,0.40502250872985424,0.39282076421969636,0.38240785606199834,0.3730143686000187,0.36748106919474754,0.359531242406821,0.35485892420888,0.3567542770142096,0.3669879428041358,0.37887290189746936,0.38881552887217574,0.3952092679163023,0.38637344008996,0.36338943087597775,0.34079026830818127,0.32006088285648315,0.2963184993850603,0.27241352919434614,0.2485085324095363,0.22460360331878804,0.20096013566897553,0.18047641698414796,0.15753507259702204,0.133633261818917,0.1097282650341066,0.08582326824929731,0.06191905966678113,0.03861893770975344,0.01832785330784903,0.0,0.004687211757423759,0.024848863831614387,0.04868026409166354,0.07258526087647393,0.0964877257973552,0.11950722515606149,0.13994819314141815,0.16355565556453622,0.18746053146709374,0.21136552825190302,0.23527052503671342,0.2591755218215227,0.2830805186063331,0.3069855153911435,0.3308905121759528,0.35479550896076295,0.3786743566291775,0.40044458780091474,0.42086957970182415,0.4378054001358467,0.4603749653376422,0.48427634966933253,0.508180418615537,0.5312969457874784,0.5482903365908317,0.5695763612088266,0.586551966798455,0.6091111538004074,0.6330124738292825,0.6569165545624681,0.6800387629304575,0.6970385866221024,0.7192960279421666,0.740852090222052,0.76252757383363,0.7863983113226624,0.8103033081074728,0.834208304892282,0.8581133016770924,0.8820182984619017,0.9059232952467121,0.9298282920315214,0.9537332888163318,0.9776374756900478,1.0,HB
0.7449554126581294,0.7449086393834344,0.7540196843034663,0.7647498060442989,0.7559236107901169,0.7560134263280621,0.7676307918455996,0.7661201514175449,0.747192814345691,0.727876020368768,0.7132799113788636,0.7126211891466205,0.7217098630958204,0.7309464017744538,0.7364268540881126,0.7348786279334428,0.732611296391769,0.7412704236521498,0.759586646724038,0.7708060930510405,0.7687678840243041,0.7418452215544754,0.709279750467445,0.672893778772635,0.6375746571870138,0.6047267872390604,0.5682218425802754,0.5314500381951678,0.49469219843583323,0.459743213288374,0.42661622296053114,0.3900144979079968,0.3532426271154194,0.31647072475456095,0.2796988223937024,0.2431022667934465,0.20997662337362466,0.17501899596562775,0.13826331367481248,0.10149141131395378,0.06472067098499154,0.02867940253078341,0.0,0.003148932055227177,0.03647518445675843,0.07323090769123253,0.110002810052091,0.14677471241294954,0.1835466147738083,0.22031851713466688,0.25709041949552536,0.2938620187719007,0.33027526040524524,0.36294261018252294,0.3985302183890129,0.4352978305752735,0.4720697329361321,0.5088416352969906,0.545613537657849,0.5823854400187078,0.6191573364605139,0.6558078320809531,0.6892252168949847,0.7238465031982371,0.7605928510984561,0.7973647534593148,0.8341366558201733,0.8709085581810319,0.9076088619292322,0.9337525382153053,0.9145917033086655,0.8805854590259423,0.8479097024489808,0.8177121572853425,0.7931317692066779,0.7799685753864658,0.7745356910741148,0.7636019693646074,0.7583112006724022,0.7551951758676495,0.7453296170609885,0.7461496215588289,0.758333887040943,0.7660811437488312,0.752526227823447,0.746027526388895,0.759605452351719,0.7673038732892642,0.7525464000499702,0.7350641895425395,0.7203231665878006,0.7174142977411893,0.718095726720256,0.7341350236402204,0.7428591730935572,0.7367350336621175,0.7338986735943627,0.7418582975716765,0.7546090902536429,0.774555448372383,0.7809227379987905,0.7611455145033243,0.729329310798271,0.6933086314282002,0.6607457843397178,0.62493953854169,0.5881960858091748,0.5535747995059224,0.5201574146918909,0.4835069190714515,0.4467350226296456,0.4099631202687871,0.37319121790792875,0.3364333781485941,0.30148439300113505,0.2683574026732922,0.23175567762075783,0.19498380682817973,0.1582119044673213,0.12144000210646283,0.08484344650620701,0.05191436802640023,0.03121855144755939,0.0509892587088524,0.08441380285469458,0.1211075255932546,0.15787942795411314,0.19464361861532953,0.22994463090588785,0.26279311407103956,0.29931504453129676,0.3360868390338614,0.37285874139472,0.40963064375557834,0.4464025461164368,0.4831744484772954,0.5199460477536708,0.5563592893870153,0.5890266391642931,0.6246142473707835,0.6613818595570443,0.6981537619179029,0.7349256642787614,0.7716975666396199,0.8084694690004783,0.8452413713613369,0.8820117111108352,0.9175684445744778,0.9267000642608612,0.8953320894482006,0.8629101184803472,0.8304109456240698,0.8036973425395143,0.7826676391299962,0.7725779520578068,0.7711232723118803,0.7607498961782084,0.7532977637466842,0.7438680685443471,0.7379836441377452,0.7446344087656381,0.7597247316951242,0.767289456071702,0.7551773460762463,0.7494708242397082,0.7572339931765586,0.7503922570328149,0.7330217492388101,0.7132878738124935,0.7099580343412796,0.7170797421508037,0.7293475426149691,0.7350569484654886,0.7322132922234035,0.7327081733501224,0.7367079327216401,0.7576503028156761,0.7768363440550423,0.7828119861304015,0.7580999567523183,0.7257425632405672,0.6902348665871735,0.6534689185426825,0.616697016181824,0.5799251138209653,0.543153211460107,0.5063946381857759,0.4713942033681866,0.4383064833186412,0.40171766722690083,0.3649458003803586,0.32817389801950025,0.29140219296039754,0.2549825842555281,0.22229434844875479,0.18673289060212783,0.14996648693975068,0.11319458457889209,0.07646482625586903,0.04364962706912642,0.03678473084346229,0.06714419300532015,0.10212080612683389,0.13519367647233538,0.1717769567289884,0.2085488485670865,0.24532075092794509,0.28209265328880356,0.3188645556496621,0.35562099424006866,0.39061302328242486,0.4237101517014775,0.46030006436855186,0.49707196672941034,0.5338438690902687,0.5706157714511272,0.6073876738119858,0.6441595761728444,0.6809309164374717,0.7171907901196778,0.7497335973577967,0.7855977573978401,0.8223669872525927,0.8591388896134511,0.8959107919743097,0.9326826943351683,0.9694350360676329,1.0,0.9850131971725693,0.949927923713376,0.9172188156463703,0.8827291301681548,0.8507914757935344,0.8266092890671564,0.8121084281593727,0.7996031803882815,0.7861186762643719,0.7819208711774387,0.7712978637676223,0.7565182537993238,0.7437060330867998,0.7505463567292537,0.7628497268457061,0.7640478160442082,0.7598653689767617,0.770321462146265,0.7813552390205281,0.7749810133861464,0.7575899362035351,0.7433444300051774,0.7346087377168528,0.741729266330214,0.7518082988181156,0.7517133330806745,0.7436471719334709,HB
0.49354564599161055,0.5188316180476233,0.5643890634020863,0.6108249054076704,0.6447540392900024,0.6743881866908872,0.6669012022023335,0.623801727372103,0.6087670178208322,0.6647643070056006,0.730254166515445,0.7944523922490418,0.8512157106049287,0.9122551827089656,0.969238035450178,1.0000000000000002,0.9573197934669719,0.9042608498485973,0.864814451622004,0.8346866479296773,0.8064077995035641,0.7760252160646577,0.7358649680114138,0.7031168375899621,0.6918117921984732,0.6859095930043682,0.6411641451691958,0.6035334549851075,0.5819464987730696,0.5968474139551903,0.6324884649880824,0.6446435625392581,0.6676359455093439,0.6981601049842179,0.7269856443219516,0.7562941340814944,0.7756322138956382,0.7874182516330659,0.7808024009905463,0.7735497733163201,0.7679139892675539,0.7759715902242161,0.7688331041963292,0.7579951224893786,0.7729127250452235,0.7999671375292112,0.8279265692998572,0.8584906034670541,0.849190634611966,0.801313622236586,0.7488783788656326,0.693875119887887,0.6376833102563904,0.5737907251517191,0.5095473063492955,0.4527444050923164,0.38867235112623155,0.32457478335633705,0.26780530507634337,0.20355074298628906,0.13803401354985145,0.07276511524202411,0.016418596629751203,0.0,0.04363932807358473,0.10278527747611177,0.16816979849262492,0.23368822379231635,0.29920664909200756,0.3647250743916981,0.4299842455234131,0.48846952607636984,0.5498797236079918,0.6153633214827134,0.6808817467824047,0.7463997290038975,0.8110776383851885,0.867771184345679,0.9240536666903789,0.9836794990011348,0.9969192037661292,0.9518996091002225,0.9057726538494173,0.8676069900966676,0.8359202448312899,0.808271231457854,0.7771231838640573,0.7436296468813774,0.7232890125827522,0.7240784554094362,0.7508192648233241,0.7851927323109158,0.8126322935017662,0.8369025262769956,0.8557880990376268,0.8553457379617262,0.843577901378628,0.8322503822996485,0.8238206994607964,0.8191512363371432,0.8018713748605166,0.7924279463015342,0.8136023268790777,0.8402936689550442,0.8673836771356882,0.8714059962136811,0.8273576685970485,0.7744160658009474,0.7218866908255959,0.6704725122273454,0.6227328681596564,0.5688354281348578,0.525311643598319,0.46212874575986307,0.39872484434361066,0.34171137200227664,0.2771000727089017,0.21722877288508302,0.15730501858698265,0.09356393390832518,0.03930638539949327,0.024297758234354427,0.07517274817330133,0.14045563912561043,0.20597406442530164,0.27148450304853067,0.3347139913940118,0.3917783402399597,0.45661261028922806,0.5221307368160077,0.5876491621156985,0.6531675874153888,0.718676980421652,0.7817558670320204,0.8388702474780769,0.8989631205513449,0.9575345539537274,0.9922056788921172,0.9548919997002956,0.9071760189210687,0.8656689699291673,0.8330086804553483,0.8045752192470192,0.7750407465730087,0.7430179592564692,0.7064195310982786,0.6791186883285105,0.6828317593281519,0.7107849062506582,0.7473786311471804,0.77908887505084,0.8015132400558402,0.8203342952538277,0.8219012560747014,0.8108256054210248,0.8012047768704493,0.8009640905344373,0.8057931325441419,0.7907494496929002,0.7726151968886494,0.7797257368914958,0.8054912566795993,0.8358965016734787,0.8603538106105872,0.8399951515227293,0.7892338879637746,0.7381326478103951,0.6832980369139472,0.6209507506901266,0.5609657456855237,0.5011682038320417,0.437344231560832,0.3805577307915906,0.31665767878680473,0.2591378444798116,0.19654424311715535,0.13161644122148397,0.07436630434644309,0.022966942068259888,0.031705001575455194,0.08992357444116439,0.15538899684278928,0.2209074221424805,0.28642584744216903,0.35194427274186024,0.41746269804155167,0.4829811233412429,0.5484995486409341,0.6140179739406251,0.6793286158512273,0.7381088037015247,0.7991840441975031,0.863311596182035,0.9200774700577223,0.9787430620534587,0.9813700348313354,0.9352857424788208,0.8912801406232955,0.8578636059660492,0.8255850879086459,0.7922428505741232,0.7626861091316404,0.7311719029923429,0.7002961397216754,0.688894439466579,0.7078642169247908,0.739632699463763,0.7724496300900106,0.7973228670425614,0.8243767607903514,0.8407613359726889,0.8452079120480622,0.8316142380071156,0.8144407297172613,0.8117466604212256,0.8035811142155622,0.7901437475663695,0.7926798306624305,0.8147427762190813,0.8440671461854923,0.8631104645136969,0.8450725904223544,0.7896871688346916,0.7344483254044236,0.6786952266867634,0.6196004393026293,0.5600778587313986,0.4961065949725705,0.4393371166925768,0.37509721081562164,0.3125023061242136,0.2549987697003655,0.18998284283246525,0.1276989628207359,0.07007838576161518,0.015561278947604729,0.015806252639655627,0.06985554012634054,0.12796338382214456,0.19319326277546445,0.2587116880751559,0.3242301133748471,0.3897485386745383,0.45523319430121334,0.5168305807521607,0.5751296807817541,0.6403867857655514,0.7059052110652426,0.7712067698972178,0.8299291113475022,0.8910706248257048,0.9552483918088905,0.9760262339070647,0.9302662798406833,0.8857360443861249,HB
1.0,0.9809636494699723,0.9606366380244498,0.940322911272764,0.9222212441750601,0.905029233781323,0.8847505461321157,0.8644235346865927,0.8440965232410693,0.8237695117955464,0.8034425003500234,0.7832100136359814,0.7664362582272741,0.7478774514356723,0.7275564084576898,0.7072293970121666,0.6869023855666436,0.6665753741211207,0.6462483626755977,0.6259223721658,0.6065831050318313,0.5904332296880437,0.5703622088332803,0.5500352593377407,0.5297082478922179,0.5093812364466948,0.489054225001172,0.4691470360644088,0.453099739164202,0.4334947637684634,0.41316813310883815,0.3928421227750456,0.37349022309792146,0.3573503471328653,0.33728197431052187,0.3173711983676204,0.30132223490429166,0.2819048949007392,0.2657745308062418,0.25208755996958465,0.24470567786915498,0.23665533439820563,0.2265202174393458,0.21463695482997258,0.20111051184309625,0.18758488671999407,0.1736166958130414,0.15829370187145475,0.14162442046947876,0.12450283287290298,0.1057193251309203,0.0903939944934089,0.07516917732826589,0.061214225057813154,0.050355756027366194,0.04064411844440374,0.04040728096853852,0.05110317585511548,0.06605739522421283,0.08032244741897498,0.09944255395504431,0.1160748507516488,0.1327980673539596,0.14809423327367577,0.16335269950112585,0.17861194099270628,0.19441175251071652,0.2095296525182252,0.21564234821821604,0.20908743441674937,0.19687303712862358,0.18663840408265853,0.17939825989604885,0.1856401514402657,0.19781004517080114,0.20622863063357744,0.19589660238369067,0.1788667987016136,0.1587082528282302,0.14216114278086245,0.12689142961638855,0.1303652983744067,0.1457737104201976,0.16586324804306685,0.1861902594885898,0.20651725358811757,0.22661210673466103,0.24285197648702972,0.2620775507326011,0.28240336282644685,0.3027303742719697,0.32305738571749265,0.3433843971630156,0.36371140860853857,0.3840384200540614,0.4043654314995846,0.4246923248271388,0.444720015336697,0.4607698836993086,0.4802523196557038,0.5005785348374412,0.5209055462829641,0.5412325577284873,0.5615595691740103,0.581886580619533,0.602213592065056,0.6225406035105789,0.6428676149561017,0.6631925275094013,0.682541184051827,0.6986766109980809,0.7187537068484358,0.7390807182939587,0.7594077297394819,0.7797347411850046,0.8000617526305278,0.8203887640760505,0.8407157755215735,0.8610427869670965,0.8813697984126196,0.9016967016521718,0.921740343675459,0.9377995553466436,0.9572104968657027,0.9698417886738824,0.9545042631291651,0.9342971220811842,0.9176826012922745,0.8989488277837185,0.8786269276213305,0.8582999161758071,0.8379729047302842,0.8176458932847612,0.7973391190072565,0.779789534051816,0.7620561168674571,0.7417598013924271,0.7214327899469042,0.7011057785013814,0.6807787670558585,0.660452155394228,0.640725435323525,0.6247606332978508,0.604892457925583,0.5845656637180014,0.5642386522724785,0.5439116408269558,0.5235846293814326,0.5032635842358726,0.4845899471966131,0.4679101047800702,0.44769873820704453,0.4278515777421965,0.41497682309851625,0.3975411969052933,0.37723439948652215,0.3569073880409992,0.336582012075036,0.31763435377888083,0.3011752873502124,0.2818624504458618,0.26581576817290753,0.24716587855062,0.23106796441288047,0.21604936278774356,0.20405382374440428,0.19496709921950173,0.19653381447164153,0.2060604742478016,0.19883294096943627,0.18494356774226328,0.16963799147967074,0.15305022444863536,0.14131426575259587,0.12918207275189997,0.11272662181885285,0.09676126979676447,0.0808536259772984,0.06427323203932567,0.048956435650165275,0.033697108019031585,0.019985225321464517,0.006547465594902047,0.0,0.00793257087470578,0.022043594900567176,0.03727293922966568,0.052655227775858404,0.07057627612716777,0.08685059256296002,0.10626211115958273,0.12216432160142476,0.13828531243804365,0.15499213309913384,0.17136545780154,0.18720921699977588,0.20325052971277502,0.21758604184579122,0.22666701475786266,0.23445262195371197,0.2321155640444762,0.22214855156853774,0.21059688617312877,0.19310926758250901,0.17281610656052115,0.15248909511499797,0.13217631975451627,0.11457242667611767,0.10914654272999857,0.11983383071599496,0.13943443902688168,0.15976089209655497,0.18008783333209666,0.2001544407994933,0.21628765051206233,0.2356479718846234,0.2559739954344118,0.2763010068799351,0.2966280183254578,0.3169550297709808,0.33728204121650374,0.3576090526620267,0.3779315406080075,0.3967852912939043,0.413290622629237,0.4334951445543609,0.4538221559998836,0.4741491674454066,0.49447617889092954,0.5148031903364525,0.5351302017819757,0.5554572132274984,0.5757842246730211,0.5961108586366459,0.6157211512036276,0.6317667815407126,0.6516703165653552,0.6719973280108784,0.6923243394564011,0.7126513509019241,0.7329783623474471,0.75330537379297,0.7734211210133695,0.78754239277754,0.8034915389857016,0.8237695117955464,0.8440965232410693,0.8644235346865927,0.8847504907901305,0.904825042354787,0.9209882502035496,0.9403106739466445,0.9606366380244498,0.9809636494699723,1.0,HB
0.6573994529896532,0.6302183426258872,0.6305837045394864,0.6536135720644529,0.6248008461613881,0.5574819460168687,0.4901766856239263,0.41909589240814343,0.3471410374210548,0.2791042235747982,0.20916644795668088,0.1372765705720898,0.072493253738169,0.060488522929171895,0.12150961283715117,0.19179444214453306,0.2558017620324247,0.3142334926688792,0.3721302129702218,0.4357424965123657,0.5018258121366401,0.5598729642496023,0.6204426498420936,0.6907207380451712,0.7629114154077801,0.8351166036097877,0.9073210057263708,0.9778762549572084,1.0,0.9411439315335905,0.8733784919920551,0.80646318467876,0.7408095032252171,0.6840481880293838,0.636337824336686,0.5930283027622583,0.5451208636021523,0.48776302862145,0.42756930560764234,0.3739962796414708,0.35527432675258414,0.39788317177443994,0.457771165863512,0.5175102084900036,0.5764442251642836,0.6299417596263244,0.656360936769915,0.6358803886873701,0.6389329894593097,0.659838048765667,0.6263756815809862,0.55798671320473,0.48704805102609144,0.4196739043230627,0.3481313716766959,0.2760048105957306,0.20763800814808414,0.14896454976932044,0.08989815813988461,0.025113522391843668,0.0,0.05211118140699694,0.12362153014595684,0.1957691141653703,0.2652075796365851,0.33367680127732197,0.40572871281782036,0.4779338844289482,0.5501390726309561,0.6223442608329639,0.6945122870702107,0.7642993731895644,0.8324639668921012,0.904288556701055,0.9572683105050561,0.9201647779970952,0.8534532285957523,0.7853553326983933,0.7210267673362754,0.6732757010146744,0.6312431810251558,0.586989370044624,0.5348045933813637,0.47806872901127523,0.4212749639681372,0.36895264220340124,0.3589359592995603,0.40594000773203237,0.46398378406661084,0.5245495805726184,0.5827639439782135,0.6376000111308093,0.6618190171950005,0.647189968822703,0.6538584149170197,0.6672990724213095,0.6186451058244031,0.5517073003743636,0.4803620465496375,0.4095844189094842,0.34211325115829166,0.2704520480430785,0.19864785442085636,0.1310021009255346,0.060723247355097876,0.0055895809976772015,0.03326293473269143,0.09918483430615471,0.16939284762647228,0.24157574193320425,0.31378093013521197,0.3859861183372196,0.4581913065392274,0.5303964947412352,0.6026016829432428,0.6748068711452504,0.7470120593472582,0.8192164052815543,0.8909194081183802,0.9533316216512522,0.9486276502725024,0.8825393622824904,0.8155187804124278,0.7516311121565771,0.6974654872878601,0.6527381168553081,0.6071985416540624,0.556162289627026,0.5022128989000121,0.4454361863564857,0.39264621946980754,0.38798497290813666,0.434240788192601,0.4934677299189157,0.5566677610207797,0.6140644078137789,0.6604878132081144,0.6653344509730885,0.6485943156233356,0.6632928552594501,0.6701903433490237,0.6174872708036843,0.5501890038495845,0.47994975139024737,0.4092118445112946,0.3417306583504203,0.2700569122549868,0.1981224292592751,0.13017256538761607,0.06391760232773663,0.05492042002915459,0.11915258623800523,0.1873073595198545,0.2570666811014736,0.32923278776356696,0.4014377309377521,0.47334861076066687,0.5412300313949743,0.611365615994331,0.6835462522911,0.7557514404931096,0.8279566106573581,0.8997987361705653,0.9469984125781128,0.9037002997937829,0.8370521430198761,0.7714514588481243,0.711187000190403,0.6623196900604149,0.6206858769719328,0.5729636501287882,0.5176575017797167,0.45879488567972443,0.4078212735680105,0.39130714796859783,0.4338080079658912,0.4916017124702971,0.5502509460825433,0.6062602795028629,0.6555933218811147,0.6661067783503793,0.6489037048658988,0.6614544270029976,0.6712601609105917,0.6228439586730516,0.555017299831424,0.48335376209329933,0.4155723439679336,0.34529638752138975,0.27314136016228,0.2031922859495025,0.13553761226160016,0.08486943217072956,0.11841128378713722,0.18463957545007886,0.2556127801748232,0.327804272427024,0.3987517384353742,0.46614511024697264,0.5377158720575428,0.6099195984810339,0.6821247866830398,0.7543299748850494,0.8265264091894386,0.8967726169787777,0.9311019421539877,0.8780069237669048,0.8087396343262829,0.7445846928625064,0.6906978445607079,0.6483788810590303,0.603547826789194,0.5515084370382131,0.49601572864787963,0.4409750845341193,0.39540375285980206,0.40079690203392754,0.4502955558605886,0.5075633285068508,0.5669549760326034,0.6248145898697832,0.660581810007487,0.6473107902172393,0.6359630794501381,0.657750094774145,0.6591545563072796,0.6009934440956286,0.5308177105898391,0.4634854345494627,0.3923690320241517,0.3244379010618444,0.2543758024611224,0.18350540449842517,0.11979596727248737,0.1081924017413542,0.17026791924395906,0.24091883206443404,0.3084086248528824,0.380090549791305,0.45229485660949825,0.524499939184319,0.5964831472923477,0.6646218518613947,0.7344393357534915,0.8066083211370325,0.878813509339039,0.9507313092531011,0.9983160361939181,0.9568596216039078,0.8881323933477412,0.820474584964942,0.7549901508406651,0.6948738783152872,0.6466189546915502,0.6072249459763548,HB
0.9975227581066158,0.9486906959642679,0.8975853104168844,0.8432255229207436,0.791991477105973,0.7392315304686358,0.6844902391786171,0.6297218626639524,0.5749535406265233,0.5203791546948285,0.4691785271945105,0.4165762588936869,0.3654144052433267,0.3133625423985097,0.2629973251668749,0.21273993084492726,0.1676086665779335,0.15439352677093288,0.18557998219677996,0.1830920676633826,0.14810620914515138,0.1082284528093369,0.06639410124260792,0.02495286580422995,0.008739756099549134,0.041544018988473375,0.08866317635723597,0.13471836128604964,0.1786562631126022,0.20480958696480123,0.19329207991260577,0.1584884360758948,0.13188770527795124,0.11352654949128826,0.14979819135922046,0.20423683838766327,0.258177168336185,0.3087304764148763,0.3627901026471144,0.4175495348531554,0.47113117153607187,0.5217985967074056,0.5761055563379461,0.630873217652513,0.6856311721458462,0.7389837670200524,0.7897769357853847,0.8441903404179146,0.898958325283035,0.9536874763852762,1.0,0.9821011297188537,0.9330789425342628,0.8861545215659824,0.8357277496933969,0.7813641397431824,0.7273808047635036,0.6768341202373632,0.6228802685008271,0.5708530788420895,0.5189615846894399,0.4656169941815166,0.4148720301210759,0.3614708680868496,0.3114630636515242,0.2633693766678482,0.2187426116945349,0.18153662069088905,0.1574944283400166,0.15431112874170705,0.13058661521321357,0.10095048268275109,0.0998127609576952,0.11236624118990057,0.12227303753619523,0.16430680759298777,0.2097267821823483,0.22525555125610153,0.20831690815230253,0.17759952839580506,0.14493859664591102,0.1527796120781456,0.18530224653994465,0.189417185216594,0.15791066756570704,0.11700390718914988,0.1301041920778635,0.17964582903617432,0.2318990055335518,0.2834653467318543,0.33811297404551477,0.3927318803330654,0.4441282415688864,0.49669547517710055,0.5514297234418345,0.6061925603414954,0.6598564836329709,0.7104836538831117,0.764747392114347,0.81951380582095,0.8732758616919046,0.8982728869063829,0.8603105146635265,0.8063512772596052,0.75168704016066,0.6999612787848345,0.647748330892849,0.5930365321460914,0.5382751908800386,0.4847319649945522,0.4368606530420588,0.3973022622864485,0.35310728487502485,0.30310023235402694,0.2570744288774418,0.2224141110561656,0.1951380204285983,0.16250741475895758,0.12413932242965331,0.0816119516331334,0.03681749060277173,0.0,0.010016855615608833,0.046700458291989766,0.08687545276221309,0.130127184466034,0.16690775042344808,0.17285788747838826,0.1583292632490294,0.1885959844280236,0.2102673145928875,0.1737850551446919,0.1494159594283847,0.18388213860831204,0.23796819988578566,0.29273606042388467,0.34750340537922153,0.4017341955032415,0.45234467712438897,0.506057986273155,0.5608211680544074,0.615550993348568,0.6680605152521332,0.7195123482483684,0.774137899170264,0.8289060585735303,0.8833836481797949,0.9327109118578428,0.9434804641861457,0.8982721888375204,0.8457770136118675,0.7910787621093848,0.7384430159846577,0.6871037113460899,0.6327511139595964,0.581732945648083,0.5287056985748991,0.47503138029922753,0.42441357539535784,0.37036844715825745,0.31921781501802526,0.26845924876267213,0.22252915225704528,0.2014076321201932,0.19271279371177785,0.16165889658863342,0.12755378305736909,0.09137349655345206,0.05360889467627461,0.05342291465683946,0.09701663506152391,0.14231114166418102,0.17777773633807326,0.1858911785155405,0.1649184602755489,0.13456475195944817,0.0997042712853562,0.06247521211665408,0.08448326369454762,0.13512999296322137,0.1892334608200279,0.23983332434797078,0.2935761409248734,0.3483385059445646,0.40253844391272453,0.45313184425349895,0.5067843559927953,0.5566120823068018,0.60515100207763,0.6593758456170059,0.7102713984794399,0.7634735492034094,0.8182280225557305,0.8728858953262119,0.9240038066124258,0.9477884810244231,0.9054264787535474,0.8508950942013332,0.7995230699519941,0.7469226827296874,0.6925232608463817,0.641703126938355,0.5883974444483048,0.5336401600891737,0.47887342193926286,0.4247719036719012,0.37421779931515153,0.32129983894552516,0.2715753560938772,0.22491478551559863,0.18615356980784747,0.14904466614300327,0.14113456594681317,0.17085694409777796,0.15580544618707515,0.12092733412161472,0.08494913992135045,0.07922943430957308,0.10326995324852906,0.13708720674112074,0.18028203054697367,0.21195681039889747,0.21735912593918538,0.19273764931050663,0.15616871840373037,0.13159003013759518,0.15696750355443512,0.19827135408828778,0.22204721131196714,0.20974587785542365,0.16692284815666603,0.12737273526816895,0.14352704667310978,0.19189900554164097,0.24587178127857923,0.30048976681066786,0.35189654208412835,0.40445203068951197,0.4591858708289239,0.5139542473435889,0.5687226238582536,0.6234910003729185,0.6781915151220367,0.7302617743032257,0.7821261234800149,0.8368077270461128,0.8911301282858727,0.9214679072994173,0.8838414892386101,0.8297249016726983,0.7789471722219871,0.7256443514734287,0.6736971184835873,0.62173195908612,0.5713773540833208,HB
1.0,0.9578018279676297,0.9128796175179967,0.8770666042779596,0.8506512118911413,0.8290280023231784,0.8129859111143849,0.7944944959078768,0.7730688997665047,0.7476547332419978,0.7210154053309021,0.6890258597314884,0.6582231345902938,0.6213340423388751,0.5910304958143224,0.5670183283652297,0.5650778780503978,0.5890548133296414,0.6238176714524248,0.6638682905345314,0.7018378655474167,0.7405817853429408,0.7792133339869098,0.8126297827747115,0.8453722906504073,0.8669860732742796,0.8678293631916469,0.8568948176518516,0.8445942017853518,0.840763353743301,0.8364155933629696,0.8216965731719614,0.8132249118964809,0.8307441564864098,0.839135490870148,0.8363227895463761,0.8617563087904152,0.8792329359256656,0.8553729500359777,0.8157933382812339,0.7809958116985001,0.736412871230403,0.685357735057285,0.640547792003092,0.5900210286445984,0.5412468059902253,0.49519465493691794,0.44346171207772533,0.3967351470697493,0.34869641788888517,0.29671530512883937,0.24890659165335016,0.20197210395320386,0.15142016239801992,0.11380793173379544,0.12093810755908796,0.16278753360817044,0.21058644540712224,0.26262010255412194,0.3147029919011535,0.36678588124818523,0.41886877059521677,0.4709516599422483,0.5230345492892794,0.5751174386363107,0.627200327983342,0.6792832173303738,0.7313661066774049,0.7834444058141607,0.833767049184668,0.878684911074924,0.9252294735156514,0.9137002697667365,0.8723510792607776,0.8391267980312416,0.8162135842602627,0.7960741972898953,0.7739323412007726,0.7558031851268956,0.7337691679852325,0.708982026718584,0.6782254837462753,0.6468753023704434,0.61388701840362,0.5814457778386048,0.5492716063803131,0.5240719179338835,0.5159515386208939,0.5332725153370508,0.5671566976081703,0.6044269194139247,0.6456208939906118,0.6902261388963542,0.7306970345528765,0.7657632371702197,0.7957666204622174,0.817119480753072,0.8274429611996046,0.8211854970517984,0.8119591819973286,0.8081005547096265,0.8147825310646242,0.8145390436165292,0.7926035123678052,0.7898116722675261,0.8094843493455033,0.8157914318615889,0.8251045846922263,0.8537368794319888,0.8642149011612499,0.8337006870494807,0.7891961750141585,0.7380235957178811,0.6928815270297253,0.6429747126065235,0.5909001323778356,0.5388172430308034,0.4867383375467942,0.4363527762929522,0.39148625411468085,0.3400674622859414,0.2881398132274966,0.24172516370283748,0.19336288072426466,0.14132328122130478,0.09098696117556537,0.04635506159583935,0.012559248268716683,0.03207572849721507,0.07969013724423624,0.13166227450513412,0.17913763288017348,0.2264082503784064,0.27840279629564635,0.3304856856426788,0.3825685749897094,0.4346514643367414,0.4867335112149771,0.5379199802135215,0.5826959745668105,0.6334028468432966,0.6854835613002586,0.7375664506472908,0.7896493399943216,0.8417322293413527,0.8934943592323525,0.9221131589583931,0.8906845057233357,0.8551694365479094,0.8367876038691033,0.8176929431111633,0.7986182394397408,0.7796351674465467,0.761537275929983,0.738996567276798,0.7098060679818357,0.6783676793911941,0.6445933060638571,0.6126076526381841,0.5895424828867624,0.5774867937869683,0.5780653835147336,0.6040856424666006,0.6387441015787614,0.675398904236338,0.7161268961784113,0.7551585484466075,0.7896318113186529,0.8234646409031601,0.8472527495978559,0.8524481110226212,0.8455486021814298,0.8300771513713063,0.8197982079403525,0.8018868574472089,0.7858453890689481,0.7896315626414516,0.8024853146805855,0.7978186576609481,0.814562173770182,0.8430442862264538,0.8534297225334468,0.8247368932290646,0.7767660494774944,0.7247148286006191,0.6726727106836499,0.6244751364519281,0.5778947210182743,0.52598011949692,0.47674553104470885,0.4310881898364738,0.3793003815448732,0.3281748854694906,0.2834414589078065,0.23263052874266954,0.18056637482570825,0.1313994320870081,0.08570412062387711,0.03673103107988507,0.0,0.002543059063267239,0.04485372894946493,0.09667472849073178,0.14763200697174927,0.1923349782672903,0.24334421178800025,0.29542555883114896,0.34750844817818116,0.39959133752521114,0.4516742268722429,0.5037571162192749,0.5558400055663049,0.6079197103544876,0.6586025857432285,0.7033626606627859,0.7545899963832514,0.8066721025298231,0.8587549918768549,0.9106074903635875,0.9397453764206287,0.9003180002442954,0.8513569253736133,0.8179807977709637,0.797636072381902,0.7799591975695823,0.7684077039723292,0.7550875350098665,0.7350344094803234,0.7106836957698797,0.681193800270057,0.6456020358675658,0.6146620611305595,0.582435818977709,0.5536312671075994,0.5304051459314194,0.5293754337912691,0.5518205521045041,0.5827177469708174,0.6203143219758156,0.6527180326372879,0.6856006202250413,0.7248015746393197,0.76679139489169,0.8019345840150469,0.8280526467138842,0.8487002045493852,0.8548182777346331,0.8454909081638127,0.8353857326507836,0.8356594900017575,0.8276922115097762,0.809040842488205,0.8104864607114275,0.8358315425679999,0.8374846873577055,HB
0.702197307394573,0.7083995224035305,0.7036263774055654,0.6867833653534686,0.6653711805682386,0.6573229328757758,0.6445150227678716,0.6268411930357537,0.6193853410737337,0.6071299917274139,0.6102048039623073,0.6301053182862181,0.6607079349039559,0.6877872603434537,0.7062141388891393,0.7064525218074992,0.6840198475056672,0.6432338302032822,0.5960051024543486,0.5455886013054435,0.49514248385343695,0.44559935615247726,0.40178958085375915,0.3525370526107202,0.30209741203340756,0.25345354582687885,0.2093929661069176,0.15949174395982102,0.11020563777252934,0.0691967765010233,0.055995176287806814,0.08787912691996114,0.1363619746372734,0.18680393625992364,0.23715861034194552,0.2831557343080019,0.3294716194862607,0.3798533218938346,0.4303004540886005,0.48074758628336645,0.5311898822702495,0.5800974018965729,0.6239880752979087,0.6737975446485939,0.7242441041120434,0.7746904698648688,0.8244282568078708,0.8682766043807962,0.9172966994748591,0.9666115426676619,0.9783866570863454,0.9370371962460452,0.8907610838174612,0.840400276481437,0.7922621867808278,0.7537819592936569,0.7252474022164782,0.7127641193492192,0.7178875925970355,0.713072933278052,0.7125706195422142,0.7129130675781871,0.7014149683418406,0.6860039499128442,0.6706757122102055,0.6760257937196342,0.6987722748301434,0.6981635907427665,0.6810915309758933,0.6702249177157272,0.6565710167884106,0.6535485972065959,0.6742802350676272,0.7020700302332089,0.732179053413656,0.744171934474224,0.7364584580967227,0.7111071541086996,0.6628589995671182,0.6127692636937786,0.5683482516568318,0.5202559899941946,0.47165739826225195,0.4275779067668123,0.3776600820922008,0.32778260509747137,0.28383640378579955,0.23505194693577602,0.18462249100560257,0.13644161540820388,0.0927101759618496,0.06170257360622855,0.08169240827585145,0.12873306898700587,0.17916142254050127,0.22933054099102845,0.27398481338268266,0.32178079453109565,0.37221085553552447,0.4226579877302902,0.47307636909307316,0.5204199601048151,0.5654522371970999,0.6157073807601109,0.6661545055589672,0.7166013823348097,0.7666100351731969,0.8108050986298935,0.8592125561702205,0.9096505968984491,0.9588084388067165,0.9688014295227695,0.9229085209788909,0.8780017797655729,0.8308948907409216,0.7879969123217826,0.7526570564393115,0.7283778524288053,0.7198878620773413,0.721134556596467,0.719327928818334,0.7227365805920408,0.7216446020684898,0.7074573708862312,0.6830815466628851,0.6643551542056648,0.6561731338563069,0.6426875523356842,0.6298885119340144,0.615785549949062,0.5990865055862239,0.6040228631773675,0.6251737458115155,0.6547461307376684,0.684956368763035,0.7001591818117686,0.7036551816279722,0.6878674732154538,0.6422622409496629,0.5918556014958342,0.5422724046971285,0.498453698837768,0.44925167464758664,0.3998613855637768,0.35608523119924274,0.3066484883034041,0.25620304622625734,0.20596743970072284,0.16110265006865143,0.11357588093476012,0.06319102548458355,0.01706124609199311,0.0,0.03469198465891554,0.07830006219818142,0.1278243338531425,0.17827042001230342,0.22871722470512446,0.2786535824482924,0.3227561883359843,0.3713255582348042,0.4217669378409804,0.4722140700357461,0.5226611882311117,0.5729703749723437,0.618393343169123,0.6653058108090567,0.7157105878644231,0.7661577200591888,0.8166044117127266,0.8664273976020288,0.9103850132110515,0.9591746605615729,1.0,0.9756522546789467,0.9255871937918304,0.8754720518000393,0.8314746446365314,0.7952368898132737,0.7596713325516166,0.727141552265746,0.7128951743991817,0.710460955406825,0.71072486136885,0.7165835744342267,0.7232174834529858,0.71912784213465,0.700446275173242,0.6797910132093165,0.6721296792204668,0.657311549303606,0.6462483888689857,0.634431445497542,0.6196845090514295,0.6198978902103242,0.6419002980631247,0.6712941634089137,0.7017054207798651,0.7172397989217573,0.7169523981726201,0.689553954403744,0.6449925376520534,0.5947334047225691,0.5443202619794513,0.49719305458691665,0.45196155553337747,0.4016847327763152,0.35195777966999586,0.30810702885774155,0.2590780790454851,0.20863477019102772,0.15853193286566714,0.11409315676310916,0.06685216507806757,0.0414909770491283,0.07033696799607747,0.12012100323892994,0.16665444520395933,0.21244019057670627,0.2627830748983716,0.3132302070931373,0.36367724441752725,0.4138234558692956,0.458355541595297,0.506294744388435,0.5567267249218154,0.6071738571165811,0.657620989311347,0.7079859624551953,0.7541530512458153,0.8002953851624962,0.8506703749452574,0.9011158017283326,0.9505245671625263,0.9888370561899947,0.974035847282089,0.9244901986115387,0.8740570606225059,0.8260502530895296,0.7852126258678617,0.7490952320590599,0.7273405128015394,0.7194505188931278,0.7191925717941084,0.7205850274274245,0.7271274199490233,0.7230885266646182,0.7075516625863413,0.6945791515988068,0.6896768528122025,0.6746541312905591,0.6613186020970753,0.6482507589119634,0.6362414836542035,0.6377576044263226,HB
0.19326077737480984,0.19056735147347037,0.13469881561163521,0.07390839018291384,0.037034975272188575,0.07351258832677621,0.13427270963286808,0.1824801912667139,0.21718397048244587,0.2749895372753084,0.3391126445372149,0.4033681496610618,0.4675534689470683,0.5290982838545267,0.5903883089063641,0.654548760599737,0.7188042657235839,0.7830595462717279,0.8470133508818029,0.9048807142682734,0.9475426048678296,0.9221369720303135,0.8592380528590259,0.7986974175281901,0.7363380160180352,0.6742177276211313,0.6136278299143542,0.5529406166278527,0.4926714236306581,0.4327155661283867,0.377019368037813,0.3340418877645328,0.29499076293212,0.2484361528311112,0.19734203126289995,0.14672691057138298,0.10046182941028103,0.05492434728450524,0.04882155182827397,0.09143905724346835,0.14375897024977358,0.19705755415387938,0.24945997078230364,0.29998139703142934,0.3220219942672823,0.300397989901374,0.29896328852047505,0.3275829488962212,0.3439889333858621,0.3117915622796653,0.25243663779862047,0.19246884650785323,0.12882052530393984,0.06498872142187795,0.01973011508744038,0.044668417358780244,0.10488145620442813,0.16488657656123096,0.22813074326619498,0.2923813680835078,0.35661383624036036,0.4190057963418209,0.4795466875199005,0.5435621041083464,0.6078174841460301,0.672072989269877,0.7363054574267297,0.7986974175281901,0.8592383087062697,0.9232498301419808,0.9844680902229416,0.9924328328112272,0.9349133686599774,0.8720244371780911,0.8118437039625207,0.7482511112761928,0.688149021909232,0.6329566645140227,0.5727280615048304,0.5102457680431557,0.4512634314554219,0.39622229604786174,0.35094950194387686,0.3136764667188614,0.26901202901170707,0.21880178070429956,0.16683282601633054,0.11478947056209354,0.06982511885880938,0.06822464564598663,0.11157033150136986,0.16417516504177376,0.2180050591734155,0.2719106178801364,0.32316414054563036,0.3415313941539203,0.32246235653181576,0.3339086360078597,0.36238379236360174,0.3665020488943245,0.32092662699853947,0.2583484890404186,0.198315136371101,0.13567922295587753,0.0768689469458016,0.04691539051167515,0.08891402383176383,0.15158134367088605,0.21161785301493774,0.274862019719902,0.3391126445372149,0.4033666493833049,0.46701509567338195,0.5270539690774599,0.5902981357824241,0.654548760599737,0.7188042657235839,0.783059130419205,0.8468920362166378,0.9070728632468302,0.9692170173376095,1.0,0.9522617172910212,0.8887333411671189,0.8286505973079393,0.7655290692197775,0.7012800370534439,0.6371783379175741,0.5762931529105325,0.5153481981853624,0.45722795721626597,0.4033316112687898,0.35933911282565334,0.32067193151244977,0.2763961997468479,0.22738212001375047,0.17405161088324517,0.12168609864951696,0.07582211429700669,0.07343189244488457,0.11609557614779165,0.16858194799119708,0.22366343871418481,0.2799784166928213,0.32193217283103637,0.3236083010826767,0.30491532349416095,0.32353315048874276,0.34745673138498745,0.33256194044973264,0.2753408413359941,0.21531217352417364,0.15352458874483266,0.09336834200902477,0.031920229666889566,0.0,0.04107746754230057,0.10063119652354702,0.16387523814234772,0.2281193900021471,0.2912409180903093,0.35115103967602823,0.4092086990801248,0.46682538277425867,0.5226690200368022,0.5811794668172977,0.633219915102582,0.6855384828362491,0.7480211177539923,0.8122668186309979,0.8765223237548451,0.9405043049155625,0.9838502787768545,0.9461804752039608,0.8823637333115583,0.818110592247738,0.7545974060692257,0.694592029587897,0.6313337192936396,0.570456442718423,0.5098209596674764,0.4507105436939577,0.3931548715620111,0.34296846173272555,0.3027002046811157,0.26090959915438994,0.21333471235299406,0.1619763878106818,0.10871038782332998,0.056207873854127954,0.012376859384296335,0.0211870744164262,0.06526626518775347,0.11839158994630272,0.1744261156333815,0.2282575195306279,0.26722080690161343,0.2612817044851041,0.26115076080644006,0.294117665491083,0.3181454357513156,0.29479158295999086,0.23398496974213023,0.17185650574378109,0.11113081557127591,0.04900360962573991,0.006518855992812211,0.03380974759762345,0.09384665407470305,0.1561423662897189,0.21668325746779893,0.2806986740562444,0.3449540540939283,0.4092080589400183,0.47285650523009515,0.5328953786341731,0.5961395453391375,0.6603901701564504,0.7246456752802976,0.7888602151032248,0.850559686302251,0.889753021103412,0.8524494598646374,0.7892628751485019,0.7289980076828223,0.6662191149008415,0.6020086331806219,0.5398663771865305,0.4796546827273508,0.42094112975807596,0.36798428296791974,0.3244608935910114,0.285939422240581,0.24048388049413805,0.19032631210922724,0.13748110276837766,0.08606807492485669,0.04557116433933717,0.05706947154905584,0.10570322059397663,0.15845791724395308,0.21281889319946723,0.2682968293424962,0.31191533588528364,0.31133601156240964,0.30570507064538166,0.33174361190698587,0.3544946340280767,0.3295963414530554,0.2711350346876865,0.2104167645131544,0.1463556775652708,0.08384380562756877,0.04654644664740715,0.07800312701504153,HB
0.5687018029486912,0.561337499535828,0.5427925551301753,0.5202984754750426,0.49531495108591583,0.5006207970521619,0.5375675639575996,0.5606442842924708,0.558037117822408,0.5104513402535871,0.4498011287918895,0.38967597222783334,0.3343122488596064,0.27413776771254006,0.21299674066229224,0.15308881703289623,0.09769890308515916,0.03931296455072053,0.017323603343102567,0.056105395341751074,0.10397015053232783,0.14980678798824643,0.20254241481430213,0.26348551584198754,0.3241656757117757,0.37982699940479425,0.4391557369756023,0.5002925768301398,0.5614404004851732,0.622588224140207,0.6837316209445374,0.7436060769264439,0.7990073706979806,0.8593962280524867,0.9205423694146202,0.9805237242078013,1.0,0.9473588863660061,0.8878615891786032,0.8323447932143553,0.7746639039461238,0.7181573502230498,0.6580492736442503,0.6069689486363425,0.5703098567317533,0.5432116736452939,0.5133526923738265,0.47385648774752487,0.42897008229363665,0.3815431339961841,0.33152393513055545,0.28227493826861827,0.23386089087555728,0.1938954394192185,0.2041969140933766,0.24870737496407203,0.29766744990734817,0.34923656925644675,0.400778017143111,0.4519180189875549,0.5012622637730597,0.5402338084146829,0.5572013315074622,0.5413714515388899,0.5285298560495488,0.5221819103129561,0.5000419062546033,0.4968679053532843,0.5337452052869844,0.5628973505468837,0.5632657383534443,0.518378622908328,0.4599567980274144,0.4038929751578617,0.3430440385857816,0.28279942719662476,0.22894875611612653,0.18367789291105563,0.14244910779495623,0.09152019479804341,0.03536452335773688,0.005983355727893214,0.0422941712950371,0.1021178663131963,0.15872348569626715,0.21685008391709704,0.2779562814334293,0.3391041050884631,0.4002519287434969,0.461355055386262,0.519480110164624,0.5760872584670775,0.6370585528533796,0.6982063765084132,0.7593542001634472,0.820502023818481,0.8816498474735148,0.9427764350070049,0.9981066282525497,0.9912996661329185,0.9329211026530089,0.8740096153134034,0.8180529545973365,0.7572480131997965,0.6965964483039253,0.6446801671255071,0.605106444997104,0.5676741624980803,0.5445663873679103,0.5157774939997686,0.47829039489066916,0.43311780659158994,0.3850462583682841,0.3369823706313748,0.2873914108554301,0.2424356557209032,0.23128138539151144,0.2682202736552264,0.3179006884820843,0.36780170548785995,0.41776040616035126,0.4714770596466842,0.5204228055272153,0.5535112817696619,0.563017266564414,0.5522831654545446,0.5374391808865762,0.5167136876241281,0.5103067199252507,0.5412195207961004,0.5704900520390337,0.5794990582408106,0.5402625094743305,0.48091980666474243,0.4255544963291169,0.3655841064088856,0.30967339199298993,0.25070726885172023,0.18964295487963123,0.13196861377490754,0.08271322843763573,0.08874722535660662,0.14466644887217495,0.20507575428840208,0.2605215358447608,0.3203040730703808,0.38144660704030153,0.4425642656618598,0.5010346220751116,0.5573391463958273,0.6182532893927555,0.6794010548052183,0.7405488623758198,0.8015355390316539,0.8582525080915129,0.9131331388674395,0.9146366235306396,0.8601278800125058,0.8036070157830131,0.7426828416252995,0.6841615183270693,0.6321756894915656,0.5909643315350348,0.5623482890438276,0.5386692282814873,0.5062385598053569,0.46666460643703167,0.41850037399036344,0.3695835581085194,0.3207098373699244,0.2773335858362209,0.27482715787232115,0.3131646798758356,0.36049723019307134,0.4096942616974293,0.46095948512116247,0.511972576858897,0.5513225427604149,0.57131148682811,0.5692181353881738,0.5556279442337138,0.535108822315377,0.5212141571656201,0.5471517767021206,0.5753322446256457,0.5797137731312869,0.5390413492678625,0.47973418354979946,0.42433080611587415,0.36415272679702504,0.3077226042268757,0.24940627212998212,0.18829570115501704,0.1276488311757632,0.0729984795737042,0.046171777497790445,0.08551489566541093,0.14480117160922734,0.20552648841729548,0.2613152520586166,0.3204652061251625,0.3815992476385417,0.44274235229003134,0.5025959444645194,0.5579998705573064,0.6184071775438307,0.6795536954034584,0.7407015190584911,0.8018492232138619,0.8627138356714026,0.9188061862774903,0.97235998354789,0.9637767833837392,0.9048814416374544,0.8464405214106954,0.7901091515138698,0.7292129919858725,0.6705206078767803,0.6203715725138095,0.5822851717260105,0.5559886520058883,0.5273926461662568,0.4909200530652136,0.4476831955271088,0.3999288228504605,0.3510282683966299,0.30208282926588614,0.2527447993804348,0.2228263241248376,0.24272984272484543,0.2893127341585564,0.3392009770948339,0.3909511225971505,0.4416455996139259,0.49232846099278293,0.5336481531484061,0.5541073436307591,0.5430185600077233,0.5266335118990508,0.5134175931064859,0.4907259216166946,0.4823527233335807,0.5180376703505538,0.5439827771648633,0.553805601108105,0.517381204000805,0.4624798807296475,0.4059288675719608,0.3454721180687357,0.28983571933001584,0.23044486821859256,0.16931386744876165,0.10976153248639964,0.054243059676289174,0.0,HB
0.08027953577615121,0.1084537211173211,0.13942836062371633,0.11956091720408057,0.07765817735986158,0.04101646993245556,0.013787484208295897,0.01648946525654449,0.0487373576789053,0.08811671665239296,0.12622000458501992,0.16254609325814506,0.182197745064272,0.17092643774556238,0.16385872483541974,0.1708434434802355,0.1648460128892657,0.1573628956058042,0.19526062668660638,0.24371201938408737,0.2971915136662968,0.3479202733693132,0.39962198467062415,0.4491981005954624,0.49807123683468024,0.5500042003751264,0.5997048597387289,0.6533351226247917,0.7081752463940174,0.7625591014024569,0.8124197955390344,0.8657341864911097,0.9205711959665301,0.9748435566676583,1.0,0.9563758669912885,0.9015863061062395,0.8467411359058898,0.7921965410593204,0.7420063646011934,0.6891736359993839,0.6343692146670581,0.5817962726710062,0.531411375770537,0.4777283151043803,0.42814948390577734,0.37762267931142235,0.3315693923672427,0.29271380723369567,0.26724545281790646,0.2516418955080242,0.22603932061831733,0.18802339981470806,0.14436482442093346,0.10219283930330669,0.06266467569448231,0.028033332497104824,0.01188647434425627,0.03236048233796596,0.07030962938836216,0.10863237359555655,0.14645497282659004,0.1833499729329715,0.19387337509151514,0.17956973572521662,0.1731540711180588,0.17350213187156083,0.1688040536716704,0.1683122314275487,0.21097860868985663,0.26026258774680144,0.3130715773353332,0.35510145351898315,0.40296316037704605,0.4549234234094788,0.5048697893423972,0.554363632106901,0.6075459746143079,0.6572125090384011,0.7109737192608121,0.7657757542902675,0.8179192311453325,0.8686796947617021,0.9225881029505267,0.9456811948263186,0.9035163070090793,0.8488504158965369,0.794005120642453,0.7391598104060124,0.6843173749345528,0.6304600002620107,0.5808134128871565,0.526914982944356,0.4761017690720337,0.4242632591783968,0.37434468044527835,0.32843914540441466,0.2887226574910313,0.26659826090627536,0.24929220675944608,0.21890632949520472,0.18191529185165245,0.14025233497952883,0.09694360276771896,0.06364296568632011,0.02882924623132921,0.0,0.007146406492387181,0.042164059571684565,0.08056050274174364,0.11853901141124168,0.15506142559442027,0.18387841106332514,0.17337071278974858,0.1555482951889673,0.1505455981779218,0.1645215887805258,0.16387252578625366,0.1769597124331379,0.22338738911807665,0.27559582978355124,0.3254394503783622,0.3795075266286052,0.4297541324515599,0.48250789265414595,0.536251031537043,0.5859319896958111,0.639869421269772,0.6905662276247335,0.7425099773512138,0.792742391035465,0.8454709820147392,0.8995021461000634,0.9331626241702193,0.9040473380314769,0.8509556533168228,0.7971816654392685,0.7475213207957292,0.6934082491426692,0.6385644162061073,0.5837191059696674,0.5288741659901437,0.47443609741623316,0.4244976874191604,0.3734769464858212,0.32542193973091127,0.2827791193986573,0.25456142411488125,0.2370196459882088,0.21221673049549739,0.17689863462803967,0.1385160268029202,0.0973490092004855,0.05397675341093977,0.020068724035122498,0.003602755056523854,0.02484813492073079,0.0642024123677557,0.10393357143178505,0.143366127181366,0.18012676752638712,0.20569438385455396,0.20067752921048143,0.1974811582356646,0.2010284866279406,0.1937699220304412,0.1889169958252388,0.22996117731701937,0.27943124183953105,0.32789352870524535,0.37153690613790213,0.4202147273383958,0.47376680918478997,0.5234250913469238,0.5742958382814567,0.6248486285269195,0.6749018326499228,0.72772452652127,0.7825449621867973,0.8357862870728383,0.8857009308642898,0.9398529109359801,0.973472575558854,0.937325333472667,0.8875692952851946,0.8331674961095523,0.7802840917273706,0.7301277834534632,0.6756029750874792,0.6211646636648989,0.5718660684465289,0.5279884879250447,0.47714161425132917,0.42284550690196565,0.37350073162260466,0.32739760518277916,0.29180416004805454,0.26977118217126117,0.2503768390140588,0.21935034213230975,0.18010764860753503,0.1402578672839867,0.09869661379130146,0.056156630598117485,0.021117944463029836,0.0043299466519451935,0.024927238007328212,0.06690169347233788,0.10285448146996412,0.13879057254395266,0.17174295978551668,0.1831851696427822,0.17105389341674315,0.17038554689193464,0.1836037596690927,0.17856988240876648,0.17381037925483955,0.2140927929723473,0.26580748422549894,0.31683825481997796,0.3685966781236534,0.42057771365414554,0.47054830848263873,0.5200273344603847,0.5714980945831327,0.6220481086091536,0.6763182305886664,0.7263327795037589,0.7794153340084433,0.8342487573743858,0.8890924538182721,0.9424245098125865,0.9580103994587021,0.9146400915169217,0.8694407357596226,0.8186027597003898,0.7673847260122917,0.7126486013335434,0.659283676511798,0.6094479371814199,0.5552378887120262,0.5043852816719065,0.45257905438131285,0.4022180674368636,0.3507768116113774,0.3070346771160677,0.27837547395399076,0.25944513659047685,0.2333227231979249,0.19849821383910737,0.15967545237243996,0.11859256959524478,0.07918671914391529,0.03656791862527575,0.004875066276159301,HB
0.9412796729359778,0.9338043369864109,0.8988453581660392,0.8575369634899785,0.8170433271615758,0.775716296376948,0.7351456767376192,0.6959369990935831,0.6583191926406058,0.6469436906417785,0.6739014322795815,0.7092364282400072,0.746411521773338,0.7711489552597699,0.7735433693810476,0.7668016487763314,0.751983161136853,0.7269969931212805,0.6758485379603365,0.6226441613716684,0.5716562323355789,0.5239765847522464,0.47652583673899457,0.42640256205552035,0.37874915205364573,0.32608237764696163,0.2728596038356778,0.22012807386616012,0.17239176236432058,0.12078013735058019,0.0675829131086218,0.018057042811891633,0.0011278767345631047,0.03869866975148112,0.0860174473741217,0.13520381220466865,0.17688391208191706,0.2193944873167692,0.2672537574095764,0.3185988926554158,0.36646021898512665,0.41926930529827416,0.47249276849265215,0.5257164609903233,0.5789401534879945,0.632163833768687,0.6852185547365865,0.733943124843657,0.7842709297206001,0.837459488548072,0.8906761018861191,0.9395810058801406,0.9366537169869398,0.9080479422272272,0.9048615651647449,0.9149213324009895,0.9194346831084443,0.888379932756838,0.8477979353573928,0.8034229262666817,0.7593265363569803,0.7185978392747636,0.6782247801876564,0.6469969320247293,0.6486521109808752,0.6844617812272491,0.7188414136004715,0.7453056507847535,0.7570335844711162,0.7480574657571064,0.7407433041912888,0.7518858058437534,0.7560185716391103,0.7264576723617824,0.6743170491302424,0.6253475759376415,0.5755914815095167,0.5305259769043726,0.49478575242386474,0.446147415950731,0.3972436165897723,0.3471640437305045,0.29398786378405245,0.24106115666826172,0.19298206318867223,0.15300929492056875,0.16746020392488897,0.21554338819387248,0.2686742473445955,0.31992456394000085,0.36790529683393475,0.4207592765832056,0.473982793478589,0.5272064859762602,0.5803940652905661,0.6307616913728975,0.6794539201811407,0.7325021285386664,0.7857258210363376,0.8389471480415001,0.8895504002249592,0.8954228256245347,0.8659730415722606,0.8656418842859943,0.8833346538932427,0.9001798276265067,0.9007640748471581,0.8661724164451616,0.8211296728609023,0.7774870926086692,0.7372360802905138,0.6982360087926123,0.6577310521000619,0.6250437294563678,0.624631793640827,0.6538085219924294,0.6893037102535429,0.7244018352712231,0.748247675824782,0.7609300226110873,0.7696279802156127,0.7546314430768637,0.744683272591949,0.735944159397568,0.6946467741098432,0.6424243029797514,0.5936274259026464,0.5444980948545002,0.49698358744762866,0.44521398400270934,0.39758678726267743,0.34571647048865034,0.29256842638972097,0.24290059672909475,0.1935522654870116,0.14042580012672196,0.08723025688110048,0.03677509761961634,0.0009690747948563061,0.02094875542798641,0.06765657245420159,0.11830988320749752,0.17150772133336817,0.2247314138310394,0.27795351696740295,0.3303342796602507,0.37788160859996717,0.4300298096581466,0.4832507488911168,0.5364744413887881,0.5896981338864595,0.6429214494635045,0.6956752284326062,0.7434841768991667,0.7950023595508626,0.8482174689465365,0.9014014700034967,0.9452280093235812,0.9315554678842348,0.9118757931101928,0.9170429055378719,0.9302755821880402,0.9250574435672785,0.8872053041623971,0.8461803852127061,0.8062576170197069,0.7660117550411376,0.7261205656672074,0.6936877224688875,0.6932717360191694,0.7214309394745257,0.7510897033799726,0.7586971000534508,0.755677532952884,0.7735406035671266,0.780343342186987,0.7721410522484589,0.7652317906318233,0.760605070058707,0.7590762654577685,0.7264296664993626,0.6784394922551202,0.6282097356589775,0.5799470571150733,0.5321965560707742,0.481273476574785,0.4333546934246592,0.38203656913151823,0.3288365294735773,0.27758058581269957,0.22960434949258696,0.17675241152998872,0.12354104086676115,0.07229808755228323,0.025443182949479504,0.0,0.03006982116929008,0.08195936971530787,0.13516161364027407,0.1860567470570657,0.23430017439229173,0.2872529197010339,0.3404765547386293,0.39370024723630054,0.44692393973397176,0.5001476322316432,0.5533713247293144,0.6065950172269856,0.6598187097246568,0.7130424022223281,0.7662660947199995,0.8194897872176707,0.8727113619008773,0.9241551517374651,0.9391435948037128,0.9096160320312296,0.8983710160392171,0.9103844298460115,0.9297587607935851,0.966501036920342,1.0,0.9766270394032079,0.9376535740552971,0.8962777888457505,0.8548552495033013,0.8144184329423536,0.7745016401065523,0.7352475644393877,0.7048754091652347,0.7137987272991626,0.7445280002338164,0.7728343283871746,0.7896669449625429,0.7843943251592402,0.780866293303548,0.7764891543046433,0.7839662942870946,0.794100216649688,0.7982677745633564,0.7874166789937418,0.7783999417921224,0.7387853907179849,0.6913675757136932,0.6395660494064537,0.5920583850420342,0.5399035308038014,0.4880664076792553,0.4404550232995849,0.3878289160866593,0.3346104981135865,0.28277976096079943,0.23516651990171017,0.1825333012534201,0.1295920825341122,0.08967636291135855,HB
0.18629951920028198,0.15608839422384913,0.12465725186648358,0.09588282007608828,0.06619162402669099,0.03952834771654634,0.03709018585674828,0.06430045441702559,0.1025934184299443,0.13897842102374636,0.17173530883819021,0.20763096242774903,0.24273625987955139,0.2725699890517249,0.29215866286672887,0.3159717442356639,0.3513896685031307,0.38639945173029944,0.42879827057527387,0.473322336601967,0.5179190152460367,0.5624626427316102,0.6073116112059145,0.6522980174521804,0.6990365882349583,0.7439698854535859,0.7895759250673264,0.8329616060168237,0.8747282606659963,0.9156487106396065,0.9327175444695281,0.8989609387680075,0.8569985926407766,0.8178817269555134,0.7748264702115053,0.7280697462358865,0.6830783297602916,0.637009533091051,0.5909322821673391,0.5436619517136303,0.4982376273671094,0.4504632910671893,0.4054646054249573,0.3594199097288332,0.31531061093041113,0.27171053031263037,0.22754392834389925,0.18815919082387533,0.15287945906704858,0.12264448946137219,0.09059956868628638,0.06382913637235277,0.04640244517298375,0.058898343385363705,0.08936059003400987,0.12482239923685967,0.1624920985423236,0.20106889124116845,0.2394593994592098,0.2761626389675379,0.30136641999438096,0.3170931943571338,0.3463685649099014,0.38279191690092695,0.4251429225456985,0.4691407026077814,0.5131580164225209,0.5573680809026633,0.60288356524439,0.6484910847257475,0.6937539021357602,0.7411689595805511,0.7893272976267829,0.8337822819203342,0.876880415934399,0.918358515104428,0.956797509685549,0.9517025966701849,0.9109534774410708,0.8664640642461809,0.8210788992895122,0.7756646145720252,0.7286388476703201,0.682802046311292,0.6359593293715753,0.5870549155644089,0.5381739824909624,0.49169937722615975,0.4456255766030772,0.39984687265193997,0.3536555476480421,0.3089641233300301,0.2654905741775577,0.2295515112957991,0.1934281113094426,0.1585143548312935,0.12760354987413136,0.09567366688057288,0.06453108627081139,0.03361307050120088,0.010408912818594795,0.017422028001610412,0.047206210189654874,0.08609486384922571,0.12749907554362838,0.16636336335405266,0.2043655352434407,0.23951583170922486,0.26719554015215596,0.2865312123596785,0.3129915792266924,0.34873236136736707,0.38604557469604484,0.4205813483318557,0.4633631850852866,0.5079839238010495,0.5527764233721486,0.5973811755614351,0.6432959304969053,0.6883420869538415,0.73473081118629,0.7797271972257811,0.8238234942601017,0.865816636975173,0.9078672080976726,0.9475989711109116,0.9453844176592774,0.904654851003398,0.8593188779582559,0.8143478089176681,0.7675732622502924,0.7224929310814394,0.6766095452194456,0.6303730467366806,0.5847462408903534,0.5377200584203494,0.48996278694246276,0.4450480301088171,0.4026784419898186,0.36176161266823503,0.3168006428083632,0.27270386303815164,0.22951326141803607,0.19293913385758898,0.1562181462041975,0.12574398063069148,0.10254125709813011,0.0749837433673528,0.04866141783092692,0.036749651936902605,0.05719227997926857,0.09253759217366164,0.13074631852834828,0.17035273396883632,0.2090261486683438,0.24738298498773836,0.2825218583825293,0.30364009426276994,0.321685921231851,0.35390803197308074,0.3926543107459227,0.43593418028382624,0.4803298858727363,0.52485926959039,0.5699482036487336,0.6155817929478902,0.6612697298207022,0.7074712007429294,0.7524027495005328,0.7981809860305218,0.8443172633212153,0.8909649492327971,0.9279694635271263,0.9671378880613628,0.9999999999999998,0.9779680886508486,0.9343391814142432,0.8895837099783501,0.8432076668315414,0.7978553592455861,0.751308919803082,0.7054194785339916,0.6575983380451003,0.6125219490096727,0.5642638518674326,0.5187204495239295,0.47174447073908143,0.42633868666489305,0.3789731266920656,0.3301535816267913,0.2842454491693859,0.24094797170863147,0.1999088159650999,0.1617680993914109,0.12879450518062163,0.09750865488805571,0.06602099507304882,0.03504974426042817,0.008362101186513038,0.0,0.022436739661713,0.05772421256643201,0.09683022225357296,0.139114122686532,0.17883557490727686,0.21689388833836498,0.2514208894356994,0.2772374105361549,0.295320800701092,0.32315314900673076,0.35912414920928415,0.400815819548636,0.4486011751094203,0.4949608857859822,0.5390940403162676,0.5839679635619268,0.628881755783776,0.6754103163988616,0.7207609588121118,0.765609516526806,0.8094096279547955,0.8522466447897661,0.894138971781469,0.9281929419965416,0.9113412684548514,0.8682660907794013,0.8208182528736621,0.7734507508324608,0.7286167938479173,0.6840782519292967,0.639530604977723,0.5925959140786474,0.5475233263018455,0.4997227591166884,0.4538123947416659,0.4072788053495293,0.36196250396091334,0.3169133308188147,0.272897430908013,0.2311639557263122,0.19293456467524817,0.1573214774783338,0.12826003365720984,0.09681774981365532,0.06371393493434163,0.0311641146427849,0.014912909228326221,0.0321644949643497,0.06762115972831662,0.10530769456799072,0.14388158470981538,0.18222546770629333,0.2199634487428498,0.2545655498894386,0.28037668462170284,HB
0.20244455072599976,0.20845649151618295,0.18443726288438367,0.1756964797513445,0.1610320590660087,0.14469203382605256,0.1634866140436575,0.1760274594730603,0.1843436198365931,0.22742162017126943,0.2743230004390347,0.32511958437616517,0.3747552206229656,0.42241607893951705,0.47366368193743247,0.5251048620736358,0.5742797157665684,0.6223279681427445,0.6735878045701778,0.7221222022820952,0.7707787167461468,0.8210910157212958,0.8682871249968442,0.917235247111533,0.9247875672342232,0.878252564559844,0.8305311787199796,0.7809818282185872,0.7297528543314988,0.6820817095700875,0.6324570864341863,0.5810146993553007,0.5313135534104785,0.4836983659929661,0.4324719020625576,0.3812222568328574,0.33411225607212436,0.29103762460928073,0.2571966305019634,0.2350576417192618,0.21220300631325595,0.18203254238735778,0.14784317146446868,0.11053123891666072,0.07112975415904177,0.03736531482066252,0.02422280923039244,0.047650455406809455,0.08506850251819309,0.12329520155688367,0.16057487991133812,0.19503791019449424,0.2162162329144829,0.19788771399126603,0.17417399268586808,0.17438243368632078,0.18481473955819738,0.18527433437598662,0.19793459205970343,0.24326012512555562,0.2902988236554118,0.3409763260777736,0.390245187400724,0.43821139275358933,0.48952594420725615,0.5397329473899477,0.5870054716908917,0.6380599766701285,0.6891552827474405,0.7364961392926119,0.7865947265040811,0.8376537457825572,0.8849564556452134,0.9316360269891097,0.9288127812472791,0.8799131302144001,0.8299113393932869,0.7825142348503755,0.7314045366738713,0.6819905586800306,0.6341494499871967,0.5829116043574536,0.5341359767861136,0.4857140493406782,0.43470760077168147,0.3873750942392571,0.33839200828285354,0.2933712115448226,0.2528013223814789,0.2215656071757156,0.20049528114945558,0.1779891303614941,0.14521459678038717,0.10533932517746947,0.0661876575223882,0.030092874251297586,0.0016431561448467802,0.0,0.028622073435301543,0.06570560244315848,0.10405965483275048,0.14236918752903005,0.17705212495591305,0.1868827597463012,0.16340139916937013,0.1423916919192204,0.15353006619861842,0.16837425663570238,0.17137274739590447,0.1962427303819897,0.24333071123727623,0.2919608092047612,0.3433273062349933,0.39237028719238487,0.44054074990705416,0.49189642283768364,0.543374148200289,0.5942912667603486,0.6361633447269892,0.6755373509824814,0.7242616631283316,0.7716039384016853,0.8227046157743505,0.8739236390289715,0.9215175747542195,0.9709090103180791,0.9999999999999998,0.9667658972831865,0.9164099763606093,0.8673803534676101,0.8191989536777673,0.7678455027409585,0.71705093099969,0.6699275848769497,0.6193194181886537,0.5689302704739387,0.5217436751283644,0.47090322558652153,0.4226588148264363,0.37384008392695867,0.3259293323710952,0.28008264685792605,0.2403905445385237,0.2152352041843103,0.1986789752783773,0.17053950408370522,0.13566962146882067,0.09919501871609127,0.0619872528612494,0.029255432111225277,0.016721839889649925,0.04015377684233379,0.07654335640654297,0.11828849068675573,0.1575307529362352,0.18918913488428601,0.20968006905993364,0.1939555123329979,0.17724275305581583,0.17677329267198283,0.18494405248823642,0.18053154235971924,0.20952880342635116,0.25689801947343616,0.304168448931627,0.35417339187263,0.4047319598014649,0.45186417861798867,0.5026938783431194,0.5541543373266156,0.6039148109515482,0.6514803731779948,0.7026938995411318,0.7532644767254848,0.8003961094649568,0.8509512800040777,0.8984993480616663,0.9469378230352954,0.9594885807182931,0.9157407576469792,0.8681761188779316,0.8176346305264648,0.7705103139667238,0.7199122746580504,0.6695114401668931,0.6223289700436367,0.5713837188010695,0.5204003994065194,0.47318761188811287,0.42291455087928664,0.3742030438248063,0.32725197025694786,0.2810425545089785,0.2414728702877864,0.21498136184637873,0.19603975584326594,0.1682658668245427,0.1358983878972705,0.10106682769821596,0.06869056504888804,0.03157324917980331,0.005370544980464187,0.01430610273290811,0.05125755082753558,0.08823049419208073,0.1222902441706688,0.15874838708600092,0.19020953779204242,0.20948552248125396,0.1922033079601031,0.17673995765204753,0.18103496082767445,0.1947868402841767,0.19098068311080774,0.2183660306897789,0.26459390945165573,0.3151546191688783,0.36462206161884914,0.4124200725335301,0.46367479408173784,0.5130715307687417,0.5609312603525811,0.6121977560896346,0.6615201284358847,0.7094424481716306,0.7607388403645492,0.8105160340496695,0.8580659183351285,0.9082542887233414,0.9488143288488755,0.9341129780704458,0.88511158000533,0.8378104681929632,0.7867480754591649,0.7352704328795987,0.6837923700225652,0.6324053878851768,0.583979258975559,0.5352054801390824,0.4841070159287779,0.43665849106920196,0.3871190902051478,0.3400147130323323,0.2950229734281897,0.2577685181156224,0.23272082716446185,0.2124895318126343,0.18674984091043323,0.15331952558012718,0.11387795744398843,0.07483624237626862,0.0414651397493111,0.02278132049034054,0.04125808917949347,0.0742526833442202,HB
0.645152121887534,0.6381716059491043,0.5877690593961213,0.539335817729903,0.4933917445983027,0.46024063567244866,0.44500966685827437,0.428054776764792,0.40756251876910854,0.40272584303034775,0.3859223871261439,0.33640683804360183,0.3033314354536978,0.28205967054405545,0.2984390507066623,0.3445969048932609,0.3910931861507261,0.4071446326201771,0.3860909108723578,0.3552471693776422,0.32855362256831855,0.32246056564316805,0.3385990833478043,0.3794820370631167,0.41423770547425454,0.44173133206669424,0.46493535013603937,0.4785308470873615,0.4668754229495795,0.4444946142125712,0.43945416821670635,0.4659380693903612,0.48759493207147897,0.505167168731852,0.507169885243216,0.46462659876639134,0.4092704984037654,0.34565576984438184,0.28960997726752535,0.22712472557727081,0.17558559894011916,0.13058286778433326,0.06866933259717989,0.022870259895499068,0.03378091796486227,0.08064156380869503,0.14041089378921434,0.20554165574898664,0.2707221215482123,0.33590258734743816,0.40108305314666426,0.46626351894589013,0.5314439847451158,0.5966244505443414,0.6618022331295268,0.7254467952265704,0.7811332633616919,0.8450541471889654,0.91023307873262,0.9747659573372978,1.0000000000000002,0.950069932514974,0.8913837379793013,0.8333541864216356,0.7751627539592973,0.7198303303069296,0.6644814293284937,0.6166277657757433,0.6166311930149406,0.6400001995685234,0.5988143506531685,0.5505390001603383,0.5123473443065814,0.4915723324646739,0.47553839248388585,0.45875249393540374,0.44244944389071494,0.4154057100544297,0.3833980975659952,0.36077001256003305,0.35929948947670765,0.37875329247144696,0.4173110148633037,0.4509238672372109,0.48121904545984306,0.4930707883824683,0.48676029450741587,0.4742755646811465,0.461828140163439,0.48027931515469935,0.4944291457102439,0.5159423023320537,0.5189348925343145,0.4702684294969244,0.41477955665823374,0.3508912278469316,0.2905757252858854,0.23257580383070264,0.16804635774882026,0.11141596299920642,0.05042448633482177,0.004868433417912987,0.007920866148859007,0.05137225482478569,0.10990587487234782,0.17497625980467557,0.24015672560390056,0.3053371914031273,0.37051765720235275,0.43569812300157773,0.5008785888008045,0.5660590546000297,0.6311502689819097,0.6903484826801523,0.7494141693516869,0.814487264854032,0.8796674623331262,0.9435467021957302,0.9598591770106435,0.9058034943387703,0.8487570794543202,0.7930172783473888,0.7346442589852564,0.6772354195383532,0.6202170813564829,0.570272707790026,0.5666293397671682,0.5877076763834019,0.5516503791963518,0.5102718511793503,0.4769907076965596,0.4606233340519261,0.4452427122028131,0.42379001947699035,0.4019593265957475,0.37591417202434063,0.34907372097061673,0.334698973448883,0.3381648555818628,0.3696169119987245,0.40833355299836893,0.4407435812925484,0.46764164885106996,0.483439577839462,0.489195365771095,0.4793730153609881,0.47256468020524633,0.49002770616957547,0.5040125103768605,0.5235679496441821,0.5310576977738786,0.4928776044637455,0.43441243224034176,0.3766851168476466,0.3161873278742018,0.25232543305562527,0.19664233833340328,0.1329899123820497,0.07029061982160334,0.01831143264743229,0.0,0.0394009261962347,0.09598909984502879,0.15674118761241296,0.22188498260249023,0.2870654484017172,0.3522459142009422,0.4174107904212352,0.47942789067670444,0.5359663637880836,0.6006742729916013,0.6658545902541697,0.7310350560533954,0.7962155218526219,0.8613959378101745,0.9262819348817792,0.9805886643502493,0.979680416891451,0.9270344173098024,0.867749627344385,0.8116101423161382,0.7561015513366793,0.7011613103564571,0.6733741411099696,0.6368895390816174,0.5893709242617231,0.5407842528936226,0.5007360090849333,0.46922120697068403,0.4466511895293652,0.4241629500180819,0.40946079337037355,0.39575167664839794,0.37641553695979946,0.3599026361661859,0.36328335340589346,0.3946966740803821,0.4351109332332186,0.4730723833014927,0.5018199986507483,0.5165396300521172,0.5171343802522845,0.4976616816243633,0.47313128440140395,0.4612352159699107,0.48037416440961755,0.4953858162942246,0.5151080798880112,0.5215235215507568,0.47782048412624056,0.4160602228764463,0.359151269201635,0.2976765129900725,0.23808715127025293,0.1794183608265998,0.11458451822914584,0.05691767848254692,0.006569807722131227,0.006213250756866406,0.05547237533746885,0.1109925343634437,0.17531423821471748,0.24049419842978526,0.30561815151603877,0.36583151741094344,0.4239128393696683,0.4889224086837849,0.5541028744830132,0.6192833402822384,0.6844638060814636,0.7496442718806888,0.8148031372200022,0.8762047195565896,0.9331337547511038,0.9792861718531454,0.9465167812006501,0.8881300500826963,0.8317957862086545,0.775620178112099,0.7194407473208047,0.6812116835458701,0.6535250600138494,0.6058496284041166,0.557582404245198,0.5159374502104297,0.4901336528904314,0.4721051847931699,0.46308413021206096,0.4529664911245681,0.4272837509498202,0.40082496721920213,0.3775391585598513,0.3764236880812646,0.4081116867806134,0.43979600364489135,HB
0.22259250560847021,0.28137691309709434,0.3466057240470949,0.41202925650100897,0.4808601965135665,0.5513706232220462,0.6218118205470963,0.6892085091769528,0.7564382842295444,0.8265100057329021,0.8926207735385178,0.958909325542811,0.9845504859280253,0.9336266328971635,0.8658498771720219,0.7953713751419779,0.7252161534228853,0.6591250926790199,0.5903879881203818,0.5198791712922192,0.4493538703036922,0.378847594322372,0.3102115353916278,0.244051642129388,0.17386777280638566,0.10765217453139952,0.10657863936890355,0.1652815276181797,0.20275368841187913,0.17581079190697502,0.1356984787133887,0.11426125984816748,0.09614109631121293,0.07232690707586109,0.04312793634342471,0.006409929440666429,0.029342203651373522,0.07665943558991295,0.12570356918160164,0.1672941437141392,0.2218966452719543,0.2864139987655262,0.35149199326571023,0.41676529231742176,0.4846729903588499,0.5506378799172066,0.620519656831176,0.6870714036502062,0.7549649034858043,0.8207614637994433,0.859809843188878,0.8141763735007296,0.7482981012298074,0.6798010651233485,0.6092993434386423,0.5387740424501158,0.46838668293089947,0.40143853873223556,0.3337456001176041,0.26328215556770085,0.19275685457917457,0.12225331475817558,0.05906396207397713,0.0708256548022902,0.1359251195114458,0.18327755899574172,0.17285800655914596,0.13382769541284845,0.12411830394291068,0.14387310654160423,0.12939300441877488,0.11116481495060915,0.07296707368525801,0.0671797322297022,0.10727044439484124,0.1501188988398704,0.1996531517934027,0.253473024974164,0.3151915043086636,0.38136671215241524,0.4477953048805038,0.5169371631426803,0.5826925385649883,0.6523402140946059,0.7189694354867703,0.7868753403634893,0.8537260748088981,0.9145613647611329,0.9103593530944186,0.8485789452323697,0.7801824052239642,0.7096832062569313,0.6391579052684043,0.5686338778651127,0.4987198279686692,0.4329233495213395,0.36365912817960433,0.2931407173974637,0.22261541640893656,0.152215743378863,0.09813350718546843,0.13163665619903486,0.19616679387517,0.21854737483287223,0.18468015354858924,0.14617814500471693,0.13016394338088533,0.10860346178934399,0.08152351024787585,0.04021575158849022,0.008042172017366567,0.03921940840748017,0.09062162454394229,0.13670565396480716,0.17949196619351981,0.23266654467015868,0.2956737519846847,0.3609701160353588,0.4294695443554354,0.4953511036058852,0.56519104295702,0.6319003704131171,0.6998111555757595,0.7677678949862033,0.8344301518579974,0.9040579372730347,0.9663519483567838,0.9801250181228575,0.9235173912941249,0.8642759821512477,0.805842101340647,0.7402485285397719,0.6732428303642694,0.6028455397098135,0.5323202387212876,0.4617949377327605,0.39126963674423354,0.3207443357557077,0.25021903476718055,0.17994904368861075,0.13195255727555744,0.16873025158419586,0.21233565496697537,0.20057018659332126,0.15966497425375403,0.13549639108187794,0.1366921916619691,0.11794693883271157,0.09809572895665164,0.051680561676649694,0.005587748607330467,0.0,0.04924076993948556,0.10615774027932356,0.15593467195736943,0.1938884527844088,0.246307225024193,0.31297701455135074,0.38119977287851536,0.447531134555336,0.5143976574930696,0.5819114827025432,0.6507004914882052,0.7167068173483501,0.7867710022879003,0.8546907828927489,0.9214090951592658,0.9873968448396159,1.0,0.943705177206191,0.8750542162126066,0.8045463698876706,0.7342207505044805,0.6676325590939259,0.6012917151027969,0.5403528005221961,0.47199536711158163,0.4087578403998081,0.35234431287804735,0.2919712741558219,0.22268760231782958,0.15216788234100054,0.0823837176581147,0.048323213684628774,0.10228881858232086,0.17196302756410609,0.2161747895148175,0.1983844644755014,0.15821899287619867,0.13488909544150862,0.12665260039127613,0.10999294944368476,0.09169706709353409,0.054134767395159655,0.035602071282516023,0.07641256340377256,0.12528743092320405,0.16296695103319359,0.20758234143406973,0.26934080436202723,0.33595308615071395,0.4022488398501608,0.46860509844793874,0.5367121876219613,0.607199913309986,0.6776620230263976,0.7453375015576057,0.811651267578465,0.8550058922184597,0.8165282934912869,0.7504811457969286,0.6801356711128973,0.6096301804042811,0.5410312197080956,0.47484417336022877,0.40464359291286633,0.33411848324195514,0.2635965022693082,0.19403543290341763,0.1350957942961103,0.12989248470436332,0.1737793679694698,0.16956507752177286,0.1348083452929819,0.11628874124452893,0.1244774670908585,0.1094415629948079,0.08652485478078076,0.04598734322307951,0.06692521197033707,0.1137754809273005,0.15575438438910771,0.18965959598568316,0.2468102329583085,0.3105381156236461,0.375570216770562,0.44418513214993627,0.5098986309486858,0.5794060410738596,0.647512202871325,0.7140731602902882,0.7827374050436663,0.845849667175225,0.8597747527476681,0.802636948210712,0.7343051807300046,0.663806770112246,0.5932814691237175,0.5227967357932352,0.45474033035028893,0.3881192368420724,0.3177895822413038,0.24726428125277822,0.17674963525480802,0.11159219151720456,HB
0.19423054111247662,0.2243353606843722,0.24669088787320093,0.2570541863505197,0.23588093561675672,0.20314531302004724,0.16643298483557134,0.11988347186288817,0.08407199206390714,0.04397566099974648,0.0028910770739167813,0.01620454397599569,0.06349281710897225,0.10987608618169242,0.1559643531068874,0.20047773312291406,0.2484613278311837,0.295574359729078,0.34739169275165727,0.39953144581916045,0.45167131891816126,0.5038111920171627,0.5558350726688556,0.6039620711010522,0.6528694351342846,0.704955365037682,0.757095238136683,0.8092351112356843,0.8613749843346853,0.913514857433687,0.9655041291318912,0.9999999999999999,0.9665090424680033,0.9201045232662307,0.8689625040445684,0.8168249087141223,0.7646869093145815,0.7134783153801744,0.6696567797108303,0.6292005141330871,0.5786079531125955,0.534219689200277,0.49040925852268324,0.44372498906823676,0.3931011323665562,0.3465101132603229,0.2972715380366783,0.25947986695359104,0.23520171791812705,0.22999661117385994,0.21933235947652696,0.19257563884857343,0.15863780011713968,0.12214163618450191,0.10647273579212324,0.12283937776238807,0.15653007890351855,0.19471816558930255,0.2270008499210897,0.24824435974367376,0.25253508969089944,0.2495422983091865,0.23789835733196807,0.20879380595254837,0.1732083660888749,0.1551515966693563,0.1748943354423388,0.20708048675035828,0.23561977643239296,0.25643456374779394,0.27121571683713863,0.24718122243538965,0.20009953738939334,0.15134957740513755,0.10319245874631722,0.05341663885173131,0.032626369584204507,0.06643751340325921,0.11663961570507297,0.16672239010323076,0.2138366776932551,0.26564870824910336,0.31774409340733223,0.3668721602468802,0.41479455550626454,0.4667927545073861,0.518932627606388,0.5710725007053888,0.6232123738043899,0.6752280801767955,0.7232642998882693,0.7722646138263748,0.8243565468249091,0.8764437489713545,0.9173765923480671,0.8928342814741984,0.8465560423073218,0.7949854870558702,0.7428461930622207,0.6907242017575134,0.6408353139013682,0.5935733849318791,0.5417019639522164,0.4896914120876338,0.4416862712583741,0.39321305582680866,0.34711425772487237,0.3038117366626173,0.2666958592106311,0.24220574211148482,0.23258353649847108,0.2218271930010357,0.19728501889978445,0.16482500683409274,0.12962828325754627,0.09940093061645416,0.09503847394884513,0.12129368822134101,0.15574638748876157,0.18915882003818585,0.21795665551883225,0.22938214602227014,0.22473240024623664,0.22025313216598297,0.19825252289656692,0.16092847796286225,0.12890090288421374,0.12794768152377223,0.1565027512870253,0.19166670541405562,0.21846788961690955,0.23852070898399658,0.2450939109556184,0.20879221504373413,0.16256660878957552,0.11162733958780435,0.06439149409806932,0.017379416400643,0.003715521034661662,0.0408587000996653,0.08724464388928299,0.13871524716383365,0.1900685241668868,0.23668083740714863,0.2877230501696816,0.3398599346093715,0.39199410325048667,0.4427178251604419,0.48943880650579763,0.5410047296845574,0.5931439807288926,0.6452838538278934,0.6974237269268945,0.7495636000258953,0.8017034731248963,0.8538432834036739,0.9051177740611008,0.922241852476252,0.8771757694054662,0.8250544592367198,0.7730180788419173,0.7248392725074652,0.6759943390094488,0.6239102862162013,0.5718891783788697,0.5238129364744445,0.47485527812533646,0.4233083096184077,0.3765869269892891,0.3284585978425304,0.28727722253263044,0.25481074411212756,0.23911869602073155,0.24234516768890357,0.2346200094642964,0.20493808070043895,0.1722650785703922,0.14877453648331185,0.15365514654708512,0.18381671651168097,0.217457651625396,0.24845600705360316,0.2596748632279976,0.25800230190299966,0.2490776360915724,0.23746525113082828,0.20568250976996005,0.1698135961143622,0.15601086348302629,0.18053606026495495,0.21125370652178843,0.24093172962468523,0.2598513751418482,0.2616391623371449,0.2234676881918941,0.17156490694429005,0.12168631010695552,0.07442249193508121,0.024593830568882202,0.0,0.028620487541861528,0.0784977756260562,0.12781081291660612,0.1710544198468783,0.2133257065394113,0.2642583223881988,0.3068399404802574,0.3513808876069736,0.3991630490959698,0.4511478846093032,0.503287757708304,0.5554276308073051,0.607567072848406,0.6592143259796864,0.7060164232122205,0.7565790191427676,0.8087116769268262,0.8605000132680055,0.8880412407581889,0.851997873785128,0.803382250568912,0.7513083810554214,0.6991685079564206,0.6470437117775739,0.597058774412517,0.5498783430420778,0.498024270993889,0.44588446183690145,0.39386430853441146,0.3458470759629343,0.3006398734956516,0.261233988684649,0.23347486335323453,0.22184648299624066,0.21277635429353114,0.1919146483314288,0.1585820569005446,0.12193392772407219,0.10097635258555593,0.1106380862794184,0.14192125251818555,0.17967215269776593,0.21300309838065423,0.23911797330894558,0.25138670667802676,0.248869255768298,0.24114036354699142,0.22202354868358498,0.18637146994130982,0.15416752642803988,0.1510185369597229,0.1789571960970463,0.21236313173805998,0.23905031838863688,0.254735130582762,HB
0.13983438698327255,0.12095768911408666,0.13741388639492946,0.15553686934761668,0.15656204170860133,0.13888741612498867,0.10589012514127472,0.07326636523978314,0.03973842425469276,0.010993731424780107,0.0,0.025485578561771804,0.055412631446959404,0.08482348612276946,0.11534974333189929,0.14539361309171195,0.16614019249472411,0.18928015448272717,0.22660431858761476,0.2702549315496683,0.3159324690764824,0.36191058915942054,0.41356124766474256,0.4633101873628409,0.5106250403230286,0.5629841828687796,0.6155622242269807,0.6669678045396752,0.7132353649354148,0.764935278671049,0.8137902367385468,0.8385203086634798,0.8136325981705472,0.7648884876406428,0.717118185700816,0.667907609957554,0.61536866157527,0.5629628655782888,0.5153815980251013,0.4659348729308146,0.4133889588318116,0.3608081482216037,0.30822733761139554,0.25564655611597,0.203425629291899,0.17404408508523828,0.19620540779338613,0.20694975119319414,0.20426155381626243,0.19612237517492348,0.18097066396950257,0.16411617141880885,0.1527172377672923,0.16974982025626062,0.18081338462208052,0.1679929122539292,0.14577450829124539,0.11679347396395556,0.08666751666379091,0.0690748006153954,0.07344851372090577,0.09968963655434426,0.12611842409032614,0.15871084375357936,0.17918138673195583,0.20157574444781368,0.2237463923959202,0.25887014482355486,0.29983753890914033,0.3484015301769299,0.3967346282533115,0.44532982693076417,0.497838910409252,0.5503113806888376,0.5984569180871127,0.6472990839521651,0.6998185892498332,0.7523993998600413,0.8049801730883066,0.8573309903615056,0.904587159596639,0.9479350192914973,0.9501086640854022,0.9060808955254991,0.8593811306753569,0.8089598701748362,0.7563912224452596,0.7038123249613568,0.6522906280152598,0.6060153133534054,0.5544099179291142,0.5018307329944702,0.44924992238426253,0.3967319901913753,0.34792716189750195,0.30010385348074897,0.2571303497133375,0.21408525469630746,0.2064177746699949,0.22690682591540723,0.23472989818879264,0.23570120015515683,0.23102443929758554,0.21669353578776196,0.19730819485890505,0.19814150405350528,0.21090307068546288,0.2019291569149253,0.17371385931102368,0.14346825541046404,0.10689128141268078,0.0772953760266124,0.054279897354713835,0.061616678382210965,0.0874729553745548,0.11949651578775722,0.14568206014762297,0.16843466549226882,0.18640911785118175,0.20752725561743612,0.2407449232243548,0.28522464292595684,0.33210923851281593,0.3840824324294758,0.4311190053349456,0.48120337488402387,0.5337645282682415,0.5856585068180682,0.6319852965878976,0.6831685185245184,0.7357302886337957,0.7859064511949494,0.8328716389612849,0.8830638181755412,0.9206393837150537,0.9117227251271445,0.8640118753850661,0.8114587422069153,0.7588779315967076,0.7062971209864988,0.6537163103762913,0.6011356337310734,0.5488832860016757,0.5019421861018094,0.45172237344259814,0.3991558209255017,0.34657501031529314,0.29399419970508545,0.24141766345204796,0.19109594474037772,0.17538728951881866,0.18283796696799204,0.17581053795026347,0.16346879308700069,0.15575905784502253,0.13837223781906194,0.1213894474432764,0.1301283247664451,0.15174380425913792,0.1563305818633447,0.1347676668756448,0.10381165216068133,0.069290131304933,0.03933509118708334,0.019128426115473163,0.024901799310830697,0.053985379494271735,0.08443501656529251,0.1155819557728246,0.13158047967141595,0.1528779656981274,0.1747538524967689,0.20186914815790336,0.23962115521390137,0.28172418338145033,0.33182541251208253,0.382394621140268,0.4290581720142397,0.48121750124921436,0.5337856477578937,0.5841887908289407,0.630985875788133,0.683197099551575,0.7357767443087497,0.7874647585432075,0.8253869859221716,0.8197919948872372,0.7769497210731731,0.7246900474756544,0.6735236995035223,0.6271885749396018,0.57528604742122,0.5227060019237262,0.4701251913135165,0.4175477619039887,0.36624716697927817,0.31993824460229936,0.2681445849981534,0.21557130612710695,0.16686448807033316,0.16886690237450508,0.19371306933905297,0.2011621032066342,0.20281660410105906,0.1989277799821867,0.18443183534159746,0.16887341616010976,0.1676527973676667,0.18547543003430422,0.19925959463495868,0.18275302455832643,0.15431045375677122,0.12748621759777334,0.10243535929410519,0.08663713321988831,0.09445228398714378,0.12190616326661541,0.1492821079185367,0.1792399959548956,0.2007106552681821,0.22280428440658873,0.2500666645553056,0.2805604283229979,0.32694936421657417,0.3732451174373077,0.4244088180251764,0.474904750076772,0.5216273225966408,0.5720515206891426,0.6120488651098137,0.6564611070489237,0.7065448885325338,0.7591035527764567,0.810383256509992,0.8566847652898935,0.9084955350991388,0.9589575346637453,1.0000000000000002,0.9998664492093867,0.95489499720896,0.9023872255210217,0.849806414910814,0.7972256043006045,0.744644793690397,0.6920639830801893,0.6395409382967618,0.590618345994874,0.5425507575098156,0.49008430423960747,0.4375034936293998,0.3849226830191921,0.3323578071351587,0.2821202251622077,0.23814129358521052,0.23137580454743412,HB
0.21422125214733523,0.23845041202331707,0.2707253576696025,0.3106501532259307,0.36536246395548755,0.42597887436299176,0.4894885852905675,0.5549672504943286,0.6169061307843722,0.6854452944251801,0.7493639553998921,0.8128081195787671,0.8816268629897717,0.9467255115885311,0.9999851201217054,0.9932288132512748,0.9338863898673038,0.8651404582157676,0.7961705481796855,0.7293134822652043,0.6682664266601079,0.6000306320566675,0.5310528721864587,0.4620744841007631,0.3930990795022593,0.3256009886331168,0.26476726668078543,0.19696370812957675,0.1279868980714538,0.05924511894527673,0.01603167251461035,0.06360057727092117,0.12234271837352795,0.17067322342116786,0.22735332378372064,0.2785769201497499,0.3016829270179491,0.304197063631527,0.28499540435233484,0.2546393159336877,0.22602067620937816,0.1976337415956062,0.21336828490083448,0.24459355137517869,0.26699920005064737,0.2583285502704391,0.2315330882043991,0.19516276249618825,0.15231339568932412,0.10943489970640963,0.07511313687768872,0.0673900622597805,0.09429328822450911,0.13565687441976237,0.17257352759093414,0.20032246435925782,0.22653058217316158,0.2598204215021902,0.30633088999050617,0.3635104919884924,0.4233434956466493,0.48985588722148754,0.550711432243548,0.6180422693275831,0.6864342913345236,0.747742364336393,0.8141787312704294,0.8818563994923567,0.9383904970330537,0.9538514231769166,0.9036730160100686,0.8353963730289655,0.7664183180194086,0.6974399299337126,0.6284663571545781,0.5618682072514483,0.511765601622814,0.4622662335480052,0.40556514845232017,0.34931662312134937,0.2888489270208152,0.22124072108701687,0.15226491795665242,0.08347879080079035,0.037307644030791565,0.0795559011041238,0.14046616543135926,0.20058588268387045,0.2568252402566833,0.2917559437228303,0.29555019285948103,0.2824914831970784,0.2595504906333246,0.224640560012332,0.19344825407276156,0.19359294419149675,0.22610832186646945,0.2506970173439875,0.24581268258770916,0.22120632062125267,0.18443077501004357,0.14438666196659034,0.1022289215589205,0.06749393373125012,0.04674128901333141,0.061656032389550086,0.09594125648666618,0.13176094914253644,0.16163038836898713,0.1866756857809735,0.22229516520043013,0.2731855794254314,0.3299923799612279,0.3934925478305431,0.45735698711185724,0.5207564647887082,0.589033179665553,0.6503536298010768,0.7167702778111338,0.7844753863960443,0.8450994036933694,0.8986981590318879,0.8876735157360642,0.8247716197895996,0.759715626443606,0.6973521815501174,0.628631021917023,0.5596526338313266,0.49067424574562923,0.4217013790844686,0.35452948901548353,0.2936358278512152,0.2255639527297415,0.15658665971632124,0.0876085388842327,0.019960606654335633,0.0,0.06093596427533554,0.12596699121609234,0.1833557595225852,0.2327205936618748,0.26600293890989213,0.28421047520633946,0.27341701684619846,0.24411277023525524,0.20859400632026492,0.17250117806322662,0.1585405094711576,0.18886007957712092,0.2272329475131618,0.25147409339983895,0.25136816833504527,0.22511247420331615,0.1823774094329218,0.13825869163011495,0.0978310458064593,0.06911106320803784,0.07337058579327382,0.10374954553677784,0.1422682817464005,0.17549977248943716,0.20703160131362464,0.23056825872875253,0.265859014115031,0.3153195724779845,0.37803966520953036,0.4408234442018266,0.5055366000547201,0.5680604518171466,0.6368035096910492,0.7040374859728658,0.7649201155521561,0.8329204201230513,0.8987961410011918,0.9595589916620508,1.0000000000000002,0.9695557535099939,0.9035697039596406,0.8421422270026906,0.7782258523470389,0.7252073377458401,0.6595501411966624,0.5905827464250344,0.5216044477465809,0.4530342476845519,0.39128586312360203,0.3254529845698191,0.2564951603957253,0.1875167723100304,0.11854105944450266,0.05284812116510973,0.04935638793275743,0.106451112232689,0.16896828979369216,0.23218747454649336,0.27928305010219723,0.2828245319095355,0.27405748619248893,0.25445040177593636,0.2251787926413622,0.19267359151899655,0.17898426372236753,0.214112194810671,0.24581590891099503,0.2605838563098062,0.2509497816343633,0.22305449277766876,0.18022339702982348,0.13217740529287103,0.09475264122350446,0.07204007644493027,0.07317150882488987,0.1089060844257046,0.14639991321508994,0.17846573429937584,0.20560721707956575,0.23040723538691044,0.26523109841195014,0.3170730792450527,0.3772659662841171,0.43853464237399176,0.5069870129769616,0.5759650904732145,0.6449012953471043,0.7099378304849562,0.7723417362681915,0.8410698515967778,0.9083803144876132,0.9660648026426208,0.9890829278501434,0.941773770271211,0.873318079812077,0.8048972917028128,0.7435726195488208,0.6771739578989846,0.6082086736017247,0.5392302855160274,0.47026180281618957,0.40361063169761047,0.3425279025754855,0.2817144987860385,0.2271579892832698,0.17348146854709467,0.11810557756066586,0.12902097577954996,0.18674125807159725,0.24299040182920684,0.2814600814099766,0.2855670234264167,0.2703559545767831,0.24174972314276166,0.21404847553687856,0.1814808342409242,0.19413241248210933,0.22768926082501273,HB
0.20496237999807387,0.2502282807825632,0.2995657343959287,0.3490652235662376,0.3977884766086798,0.4484903533276653,0.4983791076612646,0.5529249106666868,0.6084131967380729,0.6604406575860152,0.71209519156149,0.7633024644508565,0.8158617396391764,0.8707206295758593,0.9200929222348061,0.9641015303824828,0.9898789096873747,0.9516641365280579,0.9007039021197151,0.8480072565635309,0.7972870316456683,0.7468789630066349,0.6949462365155773,0.6448418284183502,0.5907051836590912,0.5407119835062427,0.487495161660186,0.43759096117241214,0.38775913353957125,0.3457218156591412,0.29971006556622204,0.24631768797386056,0.20836876381604752,0.1954360392592075,0.16871519158345294,0.14062370383964928,0.1330217985825498,0.1372624528799956,0.11822016100310273,0.09117429951595402,0.0642362689264474,0.039975595282133125,0.02897006640868638,0.04552996914716101,0.08114871393421341,0.12115694971415392,0.15893435051197302,0.19509553666149893,0.2240389553422607,0.22422398403555477,0.205718292256431,0.1990083927114884,0.20454354330349778,0.20700744029488727,0.17808639695968964,0.1616955505426666,0.19735867315663824,0.24488197072444728,0.294843101706476,0.34881491915310747,0.39847246087410626,0.4424968200581648,0.47895678358965543,0.5242687587146194,0.5754572685001783,0.6261274772956272,0.679050760219084,0.7298960462083214,0.7829468545245385,0.8379503051831491,0.8881194965563078,0.9421000151078717,0.9921201224686959,0.9946324490567867,0.9482247204706816,0.8947428825017009,0.8446315325341044,0.7935027046589221,0.7420265306715402,0.6920609997787895,0.6380695333540677,0.5876558887138575,0.5340162301303587,0.4784830075263934,0.4252302881836413,0.37474659518292286,0.3241905832873201,0.27463943078428577,0.22649117423245324,0.18563817240300573,0.15434630753482625,0.13162645417414487,0.10506359747046201,0.07727893648626794,0.04838253466827547,0.018289451227655462,0.0,0.016509736991678348,0.054572791045166213,0.09584831485406065,0.13752052118352986,0.1784957523024785,0.21325664364269337,0.23156437812751374,0.21897801365200753,0.20050706338476643,0.19925271582252047,0.20743944202324271,0.20470257024805594,0.1719630166375853,0.16939472066882721,0.21212495232026207,0.25977909338047145,0.3090671661033807,0.3583383152183649,0.40755236953090523,0.4569922401834471,0.50893372283222,0.5590622165490017,0.6119516648717106,0.662517524928646,0.7169239777624509,0.766927190840906,0.8213934946786406,0.8738327946815624,0.9241740719112271,0.9671442477616078,0.9779952173800209,0.9348880689123741,0.8802869232863731,0.8248107518460125,0.7729858072708934,0.72540317900226,0.6825271908657368,0.6322176309887789,0.5803325600187091,0.5288568703115556,0.4783153094732865,0.42585997353991056,0.3759212510048068,0.3241918216726566,0.2746941743839638,0.22669464282605378,0.18261256765167555,0.1473518530696919,0.1202887727450962,0.10023065957386079,0.07372554338753468,0.04336706510148114,0.01799601412683216,0.007355698759668794,0.028450938681999438,0.06497725111994146,0.10439876794296443,0.14497333355439224,0.1850862896885367,0.21971306786585532,0.2347976374313433,0.23208065087394691,0.21050560309371968,0.19778896903233922,0.1791836865249158,0.16047620610979363,0.19434460985752533,0.24442935748617034,0.2942285043384004,0.34356399383584535,0.3924729979599787,0.4462160585644216,0.5003487190050849,0.5502849092459491,0.6007873409892363,0.6525367510690218,0.7024980284565724,0.7571348384830464,0.809238571287774,0.8609684462257007,0.9155123735351137,0.9575772270769068,0.9948282308885837,0.9733458886328835,0.9216898306421145,0.8708936449647219,0.8205523924550985,0.7685936789641389,0.7184455665654809,0.6648690617632979,0.6147432268509213,0.5611359967904762,0.511070927558635,0.458895088374622,0.40780512903522725,0.35246566445187855,0.29996352842823637,0.25131404506879995,0.20610102234690164,0.1708794162880124,0.1479990716465006,0.12496030560336913,0.09623976424307734,0.06824672050864133,0.04213194428356781,0.03111329743016855,0.04975250874517678,0.08590023637686295,0.12869594181447186,0.16878390144190003,0.20711989604213776,0.23961115830729895,0.2560068054302779,0.24625236360997416,0.22110392261738487,0.1999728544475622,0.19671122834832777,0.21514016265178493,0.22684555244625215,0.21492754342160214,0.18112759758548214,0.1857897138825294,0.2307156006011638,0.27932840203368203,0.3287859634003566,0.3784217492377927,0.42783159056538456,0.47657216435391214,0.5287013330948439,0.5842060776232637,0.6396873555601802,0.6915518625682594,0.7433450339971209,0.7944247162198129,0.8471086871266832,0.8999969661807047,0.9509538609165983,0.9999999999999999,0.9884797719112887,0.9396810712859783,0.8870133574653135,0.8361941187352223,0.7832451495788361,0.732720344039061,0.6821384443575443,0.6298015811340515,0.5798048160714565,0.52580159848044,0.4754074639606728,0.42283287142978876,0.3728348372904299,0.3184138178014785,0.26811536924849133,0.2204623610807398,0.18182449379168297,0.15718648972169913,0.13701665016442555,0.11384078678123555,HB
0.9973596443423411,0.9838367063778397,0.9655712598111685,0.9428968320107316,0.9139971197386796,0.8864614413361995,0.8656593364747551,0.8605273207222861,0.8851242232614143,0.9149836322015508,0.941839968125119,0.9512861021298924,0.9463389037911465,0.9380338488126811,0.9340091273443507,0.9479686883602083,0.9705012282585597,0.9826210419465,0.9950404385309777,0.9693093164014073,0.9240930775707497,0.8748552206111841,0.8241247986592339,0.7746268521250566,0.729088266028364,0.6789368804791995,0.6281964078866329,0.5781365896570705,0.5326227271507624,0.4830094495542507,0.43227044642859275,0.38155843817069196,0.3333718191316833,0.28690833250674946,0.23634547826904517,0.18560331465575186,0.13493593644254337,0.08759610750048036,0.040510204251785864,0.0034112060382923692,0.022079667127414493,0.07080945249239329,0.1215472028325475,0.17228936644584053,0.22303153005913362,0.27377369367242715,0.32451585728572035,0.37525802089901356,0.42600018451230653,0.47674234812560007,0.5274793159220006,0.5769060147364116,0.6224939805800882,0.6726678548509344,0.7234055199685421,0.7729417936863818,0.8184861706415043,0.8683240986787402,0.9142620540091597,0.9572046896562636,0.9821248191823979,0.9717630800820245,0.9538144202027647,0.9336994672010588,0.9082503187784399,0.878700915553571,0.8516760507295733,0.829750112126058,0.8284532626627479,0.855396660325517,0.886814726596358,0.9108038658280342,0.9209826768054072,0.9205931368092235,0.9145006666457436,0.9143727556338452,0.9328885433476422,0.9579968794881168,0.9797110016536055,0.9868770420499853,0.9589548072448166,0.9135578213148212,0.8647122097835724,0.814031463910138,0.76634518507479,0.7194270799592848,0.6688001943984512,0.6181581433959451,0.5711503955235606,0.5235600516390224,0.4728752262389034,0.4221330626256106,0.37149225315304096,0.32450030757228504,0.2768937091799118,0.22620809446606271,0.17546620753752645,0.12515869970132304,0.07948877275822608,0.03750451342632677,0.04681975100973429,0.0936210654026875,0.14433482601183562,0.1944425376550541,0.23997053669806823,0.2895223766283736,0.3402605678244122,0.39100273143770586,0.4417448950509986,0.49248705866429204,0.5431166018153222,0.5900601829502867,0.6377203146238772,0.6884120268238392,0.7391538285626469,0.789430213898521,0.8351243023639194,0.8837646193239415,0.9289343365831573,0.9706037370098022,0.9944901398274144,0.9838988601678065,0.9706054964611421,0.9507368109899128,0.9233048991691255,0.8958590332193579,0.8713081604266728,0.8531398139982789,0.8649125652139573,0.894123573855113,0.9233201802703088,0.9452306997669244,0.9442986084748906,0.9433868697142858,0.9383066316701156,0.9303314340449911,0.9426712213403172,0.9660453167473448,0.9862144157492359,0.998251896326418,0.9955133799122153,0.9490202892500548,0.8982931555769302,0.8490879984028503,0.8033848983647487,0.7531031042560195,0.7024633869738217,0.6554809227680443,0.6078645716709696,0.5571786816862807,0.5068279009443404,0.46103720769169637,0.4119864335036691,0.3612535152093352,0.31051135159604154,0.25977413267594945,0.21034044365253945,0.16477129419903846,0.1145857762471319,0.06384560364135394,0.014748576247147538,0.0,0.04045969663041965,0.08985581094151446,0.13540579882479015,0.1855212193744783,0.23626261137147342,0.2870047749847669,0.3377308001962532,0.3864394208182302,0.4324756484962596,0.4829297543396511,0.5336719067576077,0.5844140703709011,0.6351362321619449,0.6836786678369526,0.7298345148504262,0.7803390385304483,0.8309798764398146,0.878031178956006,0.9250354786398636,0.9687056453519409,1.0,0.9959934922775051,0.9809093099559807,0.9612202856667995,0.9347517286065743,0.9064536159220109,0.8783722366007172,0.8562675215233557,0.8559606920175213,0.8806786026257312,0.9129029668090274,0.9418524133934576,0.9532092663320397,0.9499760230493046,0.9363765413319254,0.9297068940142135,0.9390953297392819,0.9631089161667028,0.984719663478788,0.9959862274570865,0.9989100406288285,0.9583382453617182,0.9078435412073187,0.8571182802908877,0.8085125894934488,0.7623980912028652,0.7119185542555986,0.6611911421223502,0.6124435861788715,0.5664434395274993,0.5159935673038785,0.4652640039538129,0.41638918612963466,0.3704824443006564,0.3200685803521571,0.2693265035027253,0.21858433988943338,0.16784217627613984,0.11710001266284636,0.06642700181459316,0.023375894624749483,0.028149899839839232,0.07310672801801466,0.12378144857935791,0.17339472617586965,0.21890858868217827,0.2689684069117408,0.3197095772265402,0.37045174083983384,0.42119390445312727,0.4719190485336359,0.5205897673256032,0.566653276606452,0.6171188726126744,0.6678610362259678,0.7184992165451378,0.7655255947433437,0.8131006625768618,0.863460871981818,0.9093584234043757,0.9559935971157665,0.9899786010311187,0.9901591107432826,0.9744098740866087,0.9508657022384421,0.9260521380246916,0.9006474864792722,0.8726205988576445,0.8456725703765169,0.83594190109752,0.8533695130499845,0.8854385343815432,0.9097895442984454,HB
0.27685379057266246,0.31522157360210823,0.36889064844274333,0.42323651577725696,0.47461803628286037,0.5296942205898808,0.5852451057653506,0.6407967573512757,0.6963484089372011,0.7519000605231269,0.8074517121090522,0.8630033636949775,0.9185540902714825,0.9724498752828553,0.9844346022347287,0.9351066239054034,0.8795748786901277,0.8247718226139188,0.7735028257391795,0.7187589473093418,0.663296308889577,0.6106773449654564,0.5579275282777721,0.5048892127628523,0.45387954934005703,0.40485758243135106,0.3594774863971347,0.3210602078414383,0.28873583201120534,0.2707076690658796,0.2514519864210958,0.2219393552628397,0.21879976479537488,0.20317352488965779,0.16465213365864106,0.12381355964717822,0.07473765134944155,0.02881546547969438,0.0,0.01663637429425624,0.05957019096543892,0.10901416992407664,0.15669016226698507,0.20061748622236586,0.24142680406120487,0.2695295545104909,0.26367288594260385,0.2766138424177893,0.3117029778616689,0.34148272129838997,0.3280437891840101,0.2834098833946068,0.24585897016325597,0.26447385527996237,0.3144785806361108,0.36781605450452026,0.42333404204647185,0.4788603156124437,0.532418749034887,0.5843430206011354,0.6396967832746215,0.6952483762325296,0.7508000278184551,0.8063516794043805,0.8617774523404848,0.9021915623931381,0.87160651365843,0.8170253819634908,0.7657085030488079,0.7111948348737999,0.6561122316453302,0.6047205247799371,0.5506764310154916,0.4990791484379523,0.4475973725589669,0.3995278246377433,0.3593389077753629,0.3266372261217029,0.29759795449774706,0.2626305900280901,0.21740997063448386,0.1708490677478005,0.12315894512065517,0.07808379128565535,0.04238023244660649,0.04436961324041888,0.08732069505197948,0.13333356070068825,0.17914002329541145,0.22652152511018664,0.269678395717062,0.30373355528659796,0.3176778810208697,0.2995060438527315,0.316671126815386,0.3506372521232807,0.3799832221919274,0.37012130831414536,0.3308342301067224,0.3336113467981189,0.38075087402319163,0.43370242206031084,0.4891560115951056,0.5423348292299889,0.5936741250205183,0.6408816149699043,0.6938904242089937,0.7493930136890893,0.8022633510218672,0.8256862691403791,0.7827555176346076,0.7275469447358979,0.6758130943897959,0.6220572415422866,0.5689936626134128,0.5183892591041147,0.4669221381872718,0.41684245053576097,0.3788884410123815,0.3495991897140819,0.3200060971703046,0.28018271692111385,0.2383633834468053,0.19299066446419944,0.1494287972209477,0.10924729847704695,0.10293506020672094,0.14193783322023312,0.18746498513800003,0.23278461324505262,0.27607780035478335,0.3075385265825167,0.3051255464166178,0.28473980336240534,0.3042548547110955,0.33404105715265453,0.3415560362145358,0.3041791909502082,0.28375453988991584,0.32057728478837555,0.373013446083302,0.42426382101882665,0.4788891844274036,0.5343133786521771,0.5866338053303813,0.6397441441423802,0.6950756163596049,0.7329807592325913,0.6994287643703357,0.6444552004038705,0.5927956803191919,0.5391816987265144,0.48761567018950924,0.43663046367647274,0.38752074324071406,0.3455753239971717,0.3141617345700336,0.2816516007580385,0.2454150899234736,0.20397110401820762,0.16091488087140338,0.11556258579186285,0.07053092822686624,0.04147367312586492,0.05654863111360808,0.09908616824402705,0.14829593259737284,0.19360288546605608,0.23251649977712685,0.24601376577883205,0.2240542249127382,0.22757764767468758,0.26293221180473914,0.30026228347522466,0.30785089725776715,0.27638558983058814,0.2891652736776158,0.33855253177214006,0.39247782471959247,0.44743381829882367,0.49874464957293674,0.5532799271658174,0.6088270448398826,0.6642393179041023,0.7157648799022002,0.7396346827081862,0.6982223146463514,0.6429715714909462,0.5905865607845407,0.5377437368838792,0.48586137847494515,0.4334063811693444,0.3835410282600803,0.3383354018975957,0.3031399727141404,0.2728754914611833,0.23877714148581708,0.1980954811354657,0.15110588332819264,0.10505593737968322,0.06100311792127999,0.029329830048705263,0.042336180323941264,0.08540198950609623,0.13208560361999844,0.17873498012677624,0.22089408074701067,0.25149411295086055,0.24243181005253256,0.23326207471832483,0.2657904435679881,0.3015875581262898,0.328024124343232,0.31135252209634645,0.3196761548735094,0.36778519545514887,0.42292426059695665,0.47576839673600213,0.5283409284611446,0.5834176998543542,0.631882516439738,0.6826386607389289,0.7338621985486485,0.7884796929338643,0.8440277995393889,0.8995794511253142,0.9550731485525502,0.9999999999999999,0.9767106543889136,0.9219238319684885,0.8664003147838631,0.8128956534624409,0.7609229101334404,0.7055611686193465,0.6501840876097537,0.5981481212562089,0.5448942926411376,0.49291466120296856,0.4413390242001395,0.391801847022882,0.34626273724375833,0.3111111901127148,0.28080237178950906,0.24539768980779164,0.20258339869899356,0.15840310642397215,0.11303010783363299,0.0696026444278054,0.04066068947824286,0.05797817255096771,0.10072467844449262,0.14622225628295382,0.1924154036212834,0.23451029662881429,0.2632504440943303,HB
0.7700607200231677,0.7907576718538949,0.8069837792883572,0.8046043107423837,0.7949903954319275,0.7885830836454004,0.803193112122619,0.8171825860603443,0.8161204999452643,0.7793181218037502,0.7373426816099184,0.6928037872806871,0.6462141414236708,0.6014560734038397,0.5594152691746881,0.5131107890089555,0.4689635079229289,0.42641601706824545,0.37996434855625266,0.3333463033841873,0.286728236027653,0.24011016867111884,0.19350829855084478,0.14891639793408268,0.10674964560197414,0.0603855495932874,0.017107545399556057,0.008250643635922927,0.04544794730484997,0.09193602823476915,0.13846516369726913,0.18156030801997997,0.22095849059222944,0.25784902154561035,0.2944347313594166,0.3379572349330065,0.3809190217708151,0.4176784004896344,0.45430809426493185,0.4926681915690779,0.5298658103366689,0.5663127506940473,0.6104252308177145,0.6569439195330704,0.7000967238738727,0.7435923777288933,0.7901505384727197,0.836768605829254,0.883386673185788,0.9300047347550695,0.9762871568088429,1.0,0.9662842780448933,0.9255075538720743,0.8882606037652729,0.858327787852819,0.8441452738162785,0.8481689817770521,0.8387064600408474,0.8210091425995154,0.7964082652264102,0.7646916362544844,0.7308825320166104,0.7016362234804883,0.6798442434660903,0.6816604981792322,0.7092591781466862,0.7382994450459164,0.7630188606312309,0.783745958622325,0.7825381399850564,0.7748756932923075,0.7623549425702907,0.768020126292585,0.7830810347623778,0.7941648519541971,0.8018454148434992,0.804396730959773,0.8003377460918724,0.7951063361682407,0.7988327298715148,0.7818450565757566,0.7426193895305253,0.6971744538694216,0.6505604614306326,0.603942394074098,0.5573295796268798,0.5120307109622242,0.4716043265768612,0.430436167168421,0.385497703712206,0.34386938333047407,0.29782071810826366,0.2512285256414642,0.2069973171798573,0.1684529075602792,0.16769546630963,0.2052477790247435,0.250810097257446,0.2974252996420423,0.34404336699857624,0.39064241731769994,0.43508083650207646,0.4773709786990749,0.5237804868047462,0.5703985155795952,0.6170165829361292,0.6636346502926638,0.7102527176491977,0.756867287746321,0.8023961700148812,0.8440044910650788,0.8899906378231166,0.936557895596221,0.9730142015188432,0.950665614209159,0.9094544897894221,0.8682897751954037,0.8401477921633733,0.8253551956165124,0.8255621364587169,0.8290492875687359,0.8175538672121208,0.7959977611521789,0.7683920699286744,0.7383953080098122,0.7113008261025051,0.6975099696437395,0.711873257749223,0.7331506414940077,0.7612092453255068,0.7819535000063911,0.7882157992291947,0.7856082908720732,0.7767447286900899,0.7794790258919053,0.7868621364870199,0.7643440116015319,0.7199207268684631,0.6781695873974818,0.632989941432101,0.5864080447835764,0.5423558802074331,0.4997535280826984,0.455724812278027,0.41350605552383696,0.37164726101111584,0.3268625180803259,0.28025717285351565,0.23364527963087361,0.18929240830469013,0.1748360893104885,0.20904118391560272,0.2554294279833709,0.30204710365217596,0.348214488181323,0.38996247415591406,0.435172819293746,0.48178456884805215,0.528402636204587,0.5750207035611217,0.6216387709176563,0.6682568382741896,0.7148151638280686,0.7583096516196683,0.8014559744385321,0.8479939194986745,0.8946119868552092,0.9412191466872937,0.982682812463344,0.9713598123204938,0.9314909343616169,0.8959580766432809,0.8678767476708666,0.8503433561250009,0.8435873805861807,0.8501999376066958,0.8372678732105978,0.8125499373049423,0.7793699904758964,0.7434268307234995,0.7134345528624306,0.6957624349697196,0.7092757476417753,0.735455504243778,0.7617011150621757,0.7869425163478019,0.8041366258164537,0.8159774578727752,0.8061341819066961,0.7959851222675514,0.7969552902150976,0.8012343436264071,0.7909841514702936,0.7496458294738635,0.7081035351917491,0.6625746529231877,0.6159819491576868,0.5716122927929435,0.5292552406465798,0.48308064958250635,0.4408770721828826,0.39632816889650085,0.35097455313598164,0.3093239229257237,0.2632205228317364,0.21660304122221524,0.17014169045899402,0.12756794309340658,0.08345326200492348,0.036954895547165856,0.0,0.011654206530922362,0.055364996676802614,0.10197277928036913,0.1485364121235901,0.19209598247724474,0.23517901039188177,0.2817098605048541,0.32832792786138726,0.3749459952179221,0.42156406257445683,0.46818212993099,0.5148001972875245,0.5614182646440593,0.6080363320005941,0.6546543993571272,0.7012724667136618,0.7478905340701967,0.7945086014267297,0.8411266687832644,0.887744736139799,0.9343275213565279,0.9723313805621427,0.9558812410480857,0.9168648738961556,0.8827435037605316,0.8614655822621782,0.849302013087238,0.8467042525450599,0.8344249031654574,0.8071243002008175,0.7780273937165856,0.7481654357235481,0.7185188771966649,0.6972255592540004,0.7075755702596531,0.7310213889677077,0.7549389017064818,0.7787894683543441,0.7879412316793266,0.7823755689663294,0.7684315275506239,0.7629545200724797,0.7694276850121002,HB
0.4573836655808381,0.42752524936594627,0.40305675942994035,0.38981041449737197,0.39638760959427577,0.4014687684982161,0.4100038741224612,0.4166133025738106,0.4057072754952109,0.37869077952518415,0.3410620956963113,0.3026979658409792,0.2664619552701786,0.23113542304237789,0.201112909769515,0.20617394910752496,0.23776070919578873,0.27132241789148903,0.3034023915272286,0.3359539590252163,0.36569539056917333,0.394167100096825,0.43359745597593835,0.4818596038163647,0.5336608333493358,0.5864017733992104,0.6379484237232753,0.6920143057405985,0.7491199994782476,0.8062552993592556,0.8630915283909917,0.9143321424371949,0.9594852196196593,0.9551491715272666,0.9067662071508504,0.8497685106217299,0.7939421563296423,0.7434548308480167,0.687199028682818,0.6300649140228396,0.5729295672463366,0.5157942204698336,0.45865887369333036,0.4015235269168276,0.3444015615131699,0.2896022940115812,0.2385792274067864,0.18182270258470923,0.12468751720179316,0.06755266049664765,0.01184598638967227,0.0,0.05150313617565461,0.10365197610104171,0.15712098471382996,0.21374809712330345,0.26464193966495,0.3194548391129417,0.371247918050827,0.42262067554634,0.4680065084566316,0.49284410110816657,0.4863767817140634,0.4655607835840405,0.43455345798627043,0.42125736432894634,0.41404259459800286,0.42440817065781244,0.4314368476201085,0.4483416941864391,0.4481959678454628,0.4303773813161127,0.4000776680901412,0.36731228134847016,0.3320929699635262,0.29597039754065957,0.2573194603439155,0.23818699612690497,0.26308953348725406,0.29570970767672655,0.32957083392767506,0.36220136075676224,0.38874260350668655,0.4199806955040599,0.45803886029272567,0.505901047964284,0.5619272061929133,0.6143834327299067,0.6675012267132643,0.721173572067912,0.7730869045529272,0.829317795120861,0.879878463766482,0.9353295817988707,0.985685166126967,1.0,0.9603737415339806,0.905536454217704,0.8484134662063441,0.7912781616053359,0.7343821866677236,0.6828602521584337,0.6286880939001185,0.5715777815890823,0.5150729552589817,0.46927463698961036,0.4177945346313059,0.3607175177202595,0.30358217094375606,0.2464924049119923,0.19289552732666215,0.1411405546228497,0.10883610150987444,0.1495185485631474,0.19996698253663303,0.2563074669477914,0.31061653997703575,0.3620312721155676,0.4188813625855292,0.47368082603318973,0.5151657086344441,0.5315798539926513,0.5225547071361696,0.4942300524211394,0.4650699636985056,0.45550395535426924,0.44028957259347834,0.44893008978462956,0.4566738555983272,0.46669194175821627,0.46307623480191906,0.44108874553995725,0.4106794758906256,0.37549306860412934,0.3380565090951819,0.30230927913149674,0.26290936398515097,0.23401248359900184,0.24150446913448054,0.273035292953707,0.307266446440136,0.33902505121362436,0.3644235597123757,0.3922559756015511,0.4289824038065211,0.4767386436040604,0.5261458885129844,0.5795994021294744,0.6304884497106953,0.6870322610471318,0.7393179384105988,0.792650369834379,0.8482287966080078,0.8987168056820125,0.9475608205586736,0.9508081307354797,0.9067303943586276,0.8544574428473612,0.7974492915938092,0.7403139448173062,0.6831785980408027,0.6260432512642993,0.5689166338387723,0.5137134106248133,0.4629430518212392,0.40634230390763704,0.3492072415492653,0.2920718947727621,0.23493654799625863,0.1778012012197554,0.12066585444325195,0.06353570321880175,0.01078133646475532,0.01744004811606259,0.06606919281449986,0.11788092725689814,0.16236350448494052,0.21822753549462792,0.27533515751690407,0.32947196154360237,0.3806319344606275,0.4307641868265004,0.47294831238574053,0.4875384596034398,0.4771463238737468,0.44866311038484286,0.42315835628335274,0.40588835647508836,0.3957141565289588,0.4028241670234265,0.40568579149238637,0.41660380746938164,0.4126437441556605,0.39421026445546326,0.364794786870996,0.33096630962488827,0.2920399054200218,0.2501199546159816,0.21752390034432012,0.20270797636569782,0.2265535972885524,0.26389761053959027,0.29768046053248476,0.32904835913878205,0.357856984224024,0.3898203881268172,0.42710666715244394,0.47137264249282373,0.5217258776947666,0.5725055104600079,0.6272986735216337,0.6826433430787122,0.7333233229611531,0.7897628605745737,0.8424916579225097,0.8953385726416174,0.9487219948318288,0.9762948954645689,0.9453730301816687,0.8926254246579455,0.8355510792803238,0.7784157325038203,0.7212803857273171,0.6641450389508139,0.6070096921743104,0.5498743453978072,0.49273899862130577,0.43560365184480254,0.3784683050682991,0.32133295829179587,0.2641976115152924,0.2070622647387892,0.14992691796228796,0.0927951193276868,0.03865874551464832,0.0359557849658112,0.08800628474558492,0.13455175269552155,0.17729404137908578,0.23316747867765586,0.2890026698689532,0.3394771733520048,0.39361286721348354,0.4416738101494828,0.4798731385397397,0.4941450586780076,0.48585037938552755,0.4587848149420817,0.4361800843388721,0.4185395492196238,0.4241756798227201,0.43511899825262357,0.44362081518274477,0.45690381790475,0.45766873783524065,HB
