0,1,2,3,4,5,6,7,8,9,10,11,12,13,14,15,16,17,18,19,20,21,22,23,24,25,26,27,28,29,30,31,32,33,34,35,36,37,38,39,40,41,42,43,44,45,46,47,48,49,50,51,52,53,54,55,56,57,58,59,60,61,62,63,64,65,66,67,68,69,70,71,72,73,74,75,76,77,78,79,80,81,82,83,84,85,86,87,88,89,90,91,92,93,94,95,96,97,98,99,100,101,102,103,104,105,106,107,108,109,110,111,112,113,114,115,116,117,118,119,120,121,122,123,124,125,126,127,128,129,130,131,132,133,134,135,136,137,138,139,140,141,142,143,144,145,146,147,148,149,150,151,152,153,154,155,156,157,158,159,160,161,162,163,164,165,166,167,168,169,170,171,172,173,174,175,176,177,178,179,180,181,182,183,184,185,186,187,188,189,190,191,192,193,194,195,196,197,198,199,200,201,202,203,204,205,206,207,208,209,210,211,212,213,214,215,216,217,218,219,220,221,222,223,224,225,226,227,228,229,230,231,232,233,234,235,236,237,238,239,240,241,242,243,244,245,246,247,248,249,250,251,252,253,254,Target
0.6997516059980556,0.7508610212618495,0.796643237339023,0.8238498341237891,0.8327755878047273,0.8353959363483129,0.7968480125770133,0.7330459335614284,0.6572439998910161,0.5710571259558322,0.4829291437363964,0.3944578724261719,0.31387512927047967,0.33413113559485963,0.42595498406690513,0.5206830096445084,0.6154128514844351,0.7101370447211289,0.8034089149191671,0.8900135472639609,0.9627894253152472,0.9547732311747327,0.8829817870502795,0.830386310896089,0.8061069910337376,0.7790876926028251,0.8061175104490291,0.8361179489597211,0.8492803745717975,0.8476185819358023,0.8165660476626214,0.7611691391456031,0.736070725715536,0.777382139670297,0.8215609981425139,0.8575535138382334,0.871876669961334,0.8760215339159888,0.8553697153290644,0.7979267431673599,0.7235827756431948,0.6414475674720502,0.5550220946190197,0.4812272743638092,0.5235210568487217,0.6170916729013313,0.7088077037771884,0.7970116346636088,0.8854161617634623,0.9687498397983952,0.9999999999999999,0.9423043455443764,0.8764011757623219,0.8663838561122995,0.8433228068303834,0.8159284375690649,0.8474972103313868,0.8628010940569998,0.8429016601003473,0.8183158087461476,0.7856488193030927,0.7342596831292795,0.7182901553799433,0.7660076369987129,0.8142762959729865,0.8501065788796734,0.8680756183592356,0.8611555586255336,0.8421048181111587,0.7891524738379468,0.7188230750468955,0.6352449672043282,0.5466406261164342,0.461411908380262,0.47672291180830795,0.5679352933388523,0.6581015107887577,0.7479477295437179,0.8411384880819502,0.9275427256580705,0.9907325220639868,0.9612400455138438,0.8862998148962088,0.8411843945688221,0.817078136461422,0.7841175806573938,0.7923949884168863,0.8095636039308142,0.8050750600016722,0.7796122436699394,0.7481920984780756,0.6939911246054752,0.6655405796573451,0.7014428799889406,0.7401251022077361,0.7665376654696469,0.7733377742568269,0.7670214841554343,0.724470330239381,0.6617234367904804,0.5863250588990937,0.5030255364687198,0.5032854018987453,0.591456691617852,0.6848338542470193,0.7724027878895402,0.861354048642497,0.9219106610851365,0.894016609589798,0.8219294788540791,0.7835428535641286,0.7583701058415097,0.7547758185147141,0.7879958059728217,0.7863353250745061,0.7750898719126246,0.7535119163035492,0.748507551139722,0.7612854819209532,0.7411311490088118,0.7114273830212484,0.7325191918789807,0.7572433834477553,0.7885687983488608,0.7761121343113354,0.6915167469002858,0.6020901308903434,0.507659293333765,0.4172974755552582,0.32763555863701577,0.23308586130395137,0.1406630228109257,0.056705468886833366,0.034952258022097005,0.10982122403366656,0.19830912952449442,0.2871928668319427,0.3764068001462141,0.4638672667206539,0.5523267651907172,0.6329853033817269,0.6991760473808329,0.739301510890002,0.7394047531926063,0.7194623301040158,0.689324129688672,0.6462185773835866,0.6195557843424745,0.6570103912360165,0.7143812800132486,0.7486446339144609,0.7673327706554113,0.7653167055556339,0.744479697149213,0.7632497616822081,0.7970907003155981,0.8269799836496988,0.841720868076035,0.771208152616819,0.6782216939955555,0.5902024810149326,0.49783826908433537,0.4031317837822096,0.3097929374075815,0.22216513788565806,0.1286492946912594,0.037389753426818384,0.0,0.06637046875535291,0.1592202542869149,0.2483955066309237,0.3389671310242578,0.42770320411532936,0.517832826613485,0.5967690791299175,0.6694495353393889,0.7371529324026974,0.8020463848791709,0.8303639342610044,0.8311632507624073,0.8063599988387397,0.7637007577227338,0.7104147023511483,0.6756027117171169,0.7030078007250941,0.753480896542739,0.7884722503010583,0.8144673465680609,0.8313971511339268,0.8087031864808741,0.7808577373730671,0.8023655360144516,0.8237466869816484,0.8466835420789623,0.896708355297878,0.8517796135187968,0.7620795575691787,0.6716058579729808,0.5821239794145766,0.48758461425498634,0.3928601555774377,0.2995538476540188,0.2119218861077311,0.1189478712173907,0.055369467734412536,0.10091010254778388,0.18990615234600072,0.2774823164949799,0.36790374432378437,0.45652189510122676,0.548032141649771,0.634792059349467,0.7156275462453622,0.7892081045569223,0.8371689670035759,0.8422043881712206,0.8256552273622689,0.7879094608152669,0.743725266973356,0.6955736959699484,0.7015402911036172,0.7555706549988571,0.8042088592115147,0.8166853368130501,0.8092985004364869,0.7816334688605765,0.7457997412329774,0.7572903060082571,0.7901116787894488,0.8138596161476167,0.8308153482420358,0.7626391176019557,0.6696353453489531,0.5772109237200195,0.48921908945173553,0.3951365959191243,0.30053024370429615,0.21045738146492454,0.12063175752990019,0.03876660371263385,0.047802671783409245,0.1310752724217782,0.22067754594933564,0.31047589147184473,0.3991107734383713,0.4884499636313243,0.5756355092605553,0.6607868941754581,0.7352157596397483,0.7933837752963825,0.8032489728174735,0.7914609157002893,0.7577990758474668,0.7067751444520717,0.6570392549571645,HB
0.22093727257928153,0.2312059350185267,0.18479365583726448,0.22401086972794326,0.21166613799501155,0.2139097582932532,0.17788440819922036,0.15957334944426593,0.1489468022368401,0.2049008794789744,0.24784913878628112,0.28507278770587074,0.2896207298455469,0.325619669975314,0.35742384127315985,0.3087986225507744,0.32380467562992177,0.35674712724805113,0.41884800242329545,0.5292747195657235,0.6484022080873184,0.7793752037473536,0.8973235872567966,0.9230949203163985,0.8178934530936144,0.685859459543992,0.5461608093617887,0.4327731875272045,0.3276365449226417,0.3037857815648497,0.3363780998079702,0.28488860538034766,0.23944989342336065,0.17083453707448903,0.1355648739572337,0.19636074587913566,0.2252272795117416,0.2536727004696968,0.24383448256843687,0.25422399952323094,0.250915771401659,0.24478431753267138,0.23638088491914733,0.22005313175946162,0.18950726014070085,0.19166459566106564,0.1464425549859083,0.17402875242741134,0.25234817475212346,0.3118750849971321,0.2796918392100687,0.2804978564720839,0.32026133387626743,0.2920575986319509,0.2707009424617759,0.32021917807001543,0.40762606174617577,0.5194144430338281,0.6304753070508773,0.7615134868846631,0.8987078791047796,0.9999999999999996,0.9804022676351116,0.857485103000243,0.7303494860802031,0.5934741790893074,0.48503054206022256,0.3856087175825542,0.26238178686558733,0.20409868318597946,0.2571561114886487,0.25131839436908354,0.20541218203150446,0.14380250829288732,0.1225164666063927,0.17256882628755355,0.2224397011553383,0.23132452269531534,0.24131658689970292,0.24145995220543348,0.23361954135195617,0.25230741563799475,0.25052942996562644,0.25489479258170133,0.2158103912919911,0.18845240262327412,0.2286247422760912,0.2974279226517571,0.31568431719576573,0.32475635480764264,0.34468118566284556,0.370079906611843,0.3151658286293957,0.3276002208845976,0.3453586720876478,0.3611044371334038,0.474020803543894,0.5963193407697411,0.7178021596613662,0.8520150904529005,0.9645126100394381,0.9753264027180406,0.8688023231277975,0.7352729451372237,0.5957604684726654,0.47408005680502097,0.35753644938076823,0.30606931400842674,0.2938906542683095,0.29031654594402934,0.2525679969871888,0.19625478031927024,0.17589545820878438,0.2281475887386879,0.24528108820444405,0.23089776435546616,0.2348779979080713,0.20864135841239984,0.22451007114737598,0.23924530068357308,0.21215945527502011,0.23750214988776586,0.21548517096009423,0.17146072952060631,0.19802261759016915,0.236498190468172,0.2608358184211452,0.2836680485538441,0.2680288352695017,0.26786859662887164,0.30529451016121856,0.2897792517287132,0.22708945762265786,0.19345817614759797,0.16659033856773187,0.14190401957128662,0.17734560623925333,0.19534668582395653,0.16250396038317572,0.13208455082992865,0.08064028607835372,0.06505168341551881,0.09764826557453343,0.13771213732626997,0.12879823521646339,0.13582648456143698,0.09206497367080146,0.10856779930690719,0.10737537703490396,0.12617869072241916,0.11438419353712259,0.06603426019433334,0.058600880660655275,0.07672413256779098,0.09549322874754962,0.1653333469314937,0.16965442195568992,0.0957093861780125,0.09999713197429694,0.21412408273358707,0.33328184083358803,0.4387327473245275,0.5285635813748404,0.4689753489915067,0.3529642645761908,0.2691730117120108,0.250576253263775,0.21955950966588889,0.19072068183345348,0.22810831946929833,0.23495405847670625,0.22714455376680442,0.18934522216470073,0.14595684385698293,0.10810089171749349,0.07917304908565859,0.10507325211094631,0.1387872119812954,0.1321847896564723,0.12757588960563293,0.12586809041455504,0.12600729212267048,0.1422278744873724,0.13452586455234128,0.12232749654686792,0.09513627227171018,0.029347662654268802,0.0,0.05434779619456087,0.08175699671694936,0.14174559377396623,0.13243593929848485,0.05988810227226349,0.0924561005547253,0.20049982032939306,0.32308109488601433,0.4425422938704595,0.5686036694698107,0.6695749200958092,0.5968727648469558,0.4809572529053603,0.3571635018234698,0.2528654031800319,0.18754063229982476,0.14536598464627382,0.17511336734305027,0.20043207708794997,0.17595200236013797,0.18778438013515686,0.1764652635078381,0.11636364583626957,0.058654704471214014,0.014441943852809391,0.04395206998308199,0.09828444889217991,0.14236117535228976,0.1278161000883622,0.11495604988266406,0.13040419141818216,0.1446866795416799,0.1380767943840433,0.11426532505969922,0.10871606699782888,0.06970742332495927,0.01780057876736585,0.06914706045022267,0.13509060859105482,0.19061442201542667,0.2151626532296742,0.1426222551693055,0.04926005141726719,0.08535715552052947,0.20450314751318777,0.3184968344303276,0.41595572758942856,0.5070746772748094,0.44512868219759216,0.3386793922277751,0.2755206062565092,0.2400401703399493,0.2031733925951551,0.2061014694269181,0.19230659984282772,0.19373892884913202,0.16903790473750568,0.13346078839094888,0.07379547225017902,0.06423995700533736,0.07988441507759214,0.11306737123019905,0.09911257958357256,0.05916711309030287,0.0600309099770433,0.12431712610075518,0.09450748729941472,HB
0.8192942093004868,0.8517059181228658,0.8260378129094906,0.7838831490514443,0.783314467729357,0.7825201113488908,0.7617661596553417,0.7543385339705829,0.7508837447442286,0.7444583054547141,0.7282180897780505,0.7430601341237008,0.7788116384264888,0.8132146029024686,0.8438538353375419,0.8598959746023859,0.802983826515529,0.7221280284768307,0.6402748377538033,0.5558259164657203,0.4703024256894338,0.4349931004264386,0.5040224323760715,0.5878991638935155,0.6705715118998316,0.7579510726788273,0.8398114487006095,0.9229440330117885,0.9708536878416169,0.9209410034963953,0.8494099874415392,0.8168679671663269,0.7764877530364839,0.7450604717821393,0.7694396618049225,0.7802075997256132,0.7788130461502888,0.7702290407266,0.7612396900578712,0.7443201501290225,0.7212877630259446,0.7253408714698545,0.7434711028663604,0.7473626168978912,0.7481983926482517,0.7006395029614957,0.6225990825654176,0.5400977404867192,0.45790656454477296,0.3733007458436214,0.2974620564907694,0.30194912189201284,0.3850754278348095,0.4670746875415249,0.5517705177788584,0.6357085050360477,0.7183970458795076,0.8018094998274231,0.8196265681777118,0.7531551825618056,0.6813920414542923,0.6475541677593873,0.6191787696128855,0.6214872580143286,0.6647718803199788,0.7115364507691481,0.7410887444584106,0.7278510049308765,0.7225320290849936,0.7840949037714352,0.8479739623746735,0.8821462878330549,0.8611875110234747,0.8447687902131168,0.850758172429802,0.8635908900679446,0.8924298282136115,0.8995358913656307,0.8407541047214256,0.7611936336222139,0.6775303894124268,0.5965634621096682,0.5102829267038956,0.44460150899742923,0.4909915522495586,0.577605028107773,0.6589200807876817,0.744571723836572,0.8282918587322147,0.9109784034313616,0.9884074666063624,1.0,0.9382120950114893,0.8962102779525744,0.8640979030800636,0.8292116491767908,0.848178801563651,0.8641944946474108,0.861457018846031,0.8689558350485264,0.8651333388355248,0.8567588906981457,0.8522178542712292,0.8572010674600606,0.8311011695508034,0.8287984795107614,0.8570050160255284,0.8388344900491774,0.7618094741593854,0.6921746520355109,0.7253504031505184,0.8096698732593645,0.8906234100358715,0.9687997511316474,0.9806282784216459,0.9081771140245941,0.8521914741366073,0.8379744575061056,0.7961602227293315,0.795260495807009,0.8088708899264042,0.7969696559494143,0.7361339986145542,0.6500177151801813,0.5658376298087847,0.4936866141077533,0.4155471863880299,0.3347680728194963,0.2485742325744159,0.1682870138816125,0.1319884677336971,0.1940877900928758,0.28156311769819664,0.3690300644763126,0.45060316381624543,0.5357307421443293,0.6182579790284036,0.7016090340142961,0.7799488412569379,0.8114291923284472,0.7909725147723149,0.7962159342222238,0.828947178222525,0.8232103887340158,0.8275271035734985,0.83534443804359,0.8358925880108593,0.8306310534988758,0.8213598422188341,0.7967157700821791,0.8163822132028534,0.8563552699462401,0.870890752476171,0.8561813568916304,0.7822192742162993,0.6971897582425653,0.609845491589713,0.5284530090098368,0.4428821405566322,0.3581687622772066,0.27624294706323116,0.19409373486929782,0.1520551944102243,0.2078575411708593,0.29142818710350615,0.37691480287880663,0.45833565785887875,0.5453515363249904,0.627175622722198,0.7104213225864232,0.7905643406582837,0.8483284489570716,0.8363217216072157,0.8198694461651829,0.8166745439777706,0.8200835093955104,0.8422516232893636,0.8236395693049753,0.7628801403699378,0.6938327577298676,0.6710399854039063,0.7014517965793098,0.6977331960834646,0.6542343190164491,0.6053817493130288,0.5725775806860599,0.5936575049345186,0.6222258547842608,0.6455887004804187,0.6252481601968617,0.5467296390858848,0.45949942127509413,0.37742332550537594,0.29274302403624575,0.2048305699326055,0.11697195323642873,0.03523374630464404,0.0,0.0567778889856988,0.13768015921970922,0.2247062241804797,0.3063815570753282,0.3915683078209663,0.477436958784092,0.5583958978315043,0.63958708736155,0.7027328864911772,0.7123743851519465,0.7180160025678936,0.7021610626752425,0.6900965266869822,0.7060959274848632,0.729521581386822,0.742071298071933,0.7454895161468297,0.7425840507964633,0.7377114595235775,0.704742247036538,0.7253712561739144,0.7730263097865614,0.7997883129373672,0.7814447270426025,0.7074356617064447,0.6208366347268547,0.5387823935717796,0.4541489505359685,0.3701448544352618,0.2875232727363407,0.20181519308141238,0.13104414009151022,0.1406851938862621,0.21759702853107832,0.30158529387351873,0.38946675231971584,0.47740969117545295,0.5632819272887409,0.6444982937794413,0.7292710738719784,0.8003444364736484,0.8056535591027655,0.7792316593085634,0.7436118529508783,0.7100341023812856,0.6999249916956741,0.7158830870963947,0.7169946487567528,0.7246878166524927,0.7214856958354149,0.7414642994765438,0.7536925219681624,0.7404456799391615,0.7645227993944247,0.8064170099529163,0.7927453635920695,0.7356642041825742,HB
0.5606803117050765,0.5551989569737383,0.5618805552807515,0.596823115060368,0.6379424114357048,0.5683159671726088,0.5283854336136811,0.6569833180828741,0.8013080535031447,0.8443084261158429,0.6952489315839241,0.593101761753565,0.6057723524793364,0.5996342283063534,0.6155622267105265,0.6136989240006718,0.5982091425936815,0.6055408407628606,0.6645380698630916,0.6424268297328863,0.643155123749203,0.6091502943125846,0.5055333899071179,0.4224537304894822,0.4493941324746178,0.5373264491896306,0.5979015651803268,0.5570914064126944,0.5978870714103941,0.5448197085913487,0.5783455195420091,0.6609593537805338,0.5624060777126889,0.4065305798436807,0.4035049174273668,0.5169322790580608,0.6023056978330041,0.6190196770671399,0.6625596911166367,0.6083186016484543,0.5173926728304528,0.45291187651018205,0.46529599902375285,0.5590347414251058,0.6087961271933873,0.5851402636906782,0.5245622524090781,0.45689580117142814,0.5479887076355636,0.7160906972650602,0.8404462458780158,0.7711911106884397,0.5978817265240588,0.4697400352416423,0.5588014212551089,0.61964914435727,0.6393201662474217,0.6013851803402526,0.5791959352882419,0.49930074030304894,0.39736060613439417,0.345195518707909,0.4042006765466635,0.48199035795403944,0.4848888564600431,0.5258981864524488,0.5706587845368567,0.7223821581348995,0.8988484852782754,1.0,0.9053546481826533,0.7353763068631531,0.5583657771537025,0.4957342809838883,0.5617209258931473,0.6051189087462507,0.6333744760299806,0.578582103787169,0.5307727949346699,0.48873254431593605,0.5005620339875234,0.4866059096457125,0.5052551360687412,0.5281413575102984,0.5796954100427962,0.5423617740466344,0.48607918427239394,0.5664816606776073,0.5083618188206769,0.3735548572424481,0.36766309522596696,0.45925843453931225,0.5217995219594709,0.5922703531430669,0.6303169731743425,0.5557353621550662,0.5028581839824637,0.4989783135413228,0.5196471457366796,0.45649293624384324,0.3950832845590009,0.4186876526450627,0.4583290485789986,0.441599736427543,0.3713493255251432,0.37666322208781366,0.5120351173847197,0.6002453298431494,0.5198499926159972,0.45255742350751316,0.4456597970157121,0.40318665576527124,0.46004353888942084,0.5620781506961121,0.6949184358058211,0.8272262907486336,0.8884855501682543,0.8157387495636028,0.7021328186173994,0.6115062878019195,0.5838286117518825,0.6114650468199407,0.6745997201269347,0.6257082210148077,0.5190636281922272,0.5195062134127335,0.4623371211081819,0.4487385078781987,0.4937989013498365,0.587183733742175,0.6991383263030917,0.7154482822522175,0.5834860312270225,0.4515401703673678,0.33261619287123523,0.2689278137095519,0.2848130118280654,0.29512471302874577,0.19837018480114743,0.1521543653848605,0.3044123508651664,0.40061656894326436,0.2794624060365045,0.14497035737535846,0.1743124039441808,0.2786409875421034,0.329885356694521,0.2987663107971219,0.25959049545330704,0.26098933311380357,0.3230315380511595,0.38655407454971336,0.37429924485522914,0.40615761893708147,0.45689189451494183,0.4625014799501992,0.3860694721326938,0.31955962517266734,0.19528840556733673,0.0393273691142646,0.04763853564083931,0.20758842862135296,0.31660056733257846,0.26371411672285827,0.33770652412471147,0.4457118928302837,0.41130136483868807,0.36699167413766265,0.336645149939387,0.33827324081012033,0.3492367290748293,0.4064921322956154,0.4320634172848212,0.4262949157577154,0.47490028372883675,0.4389973647825345,0.34569302309604133,0.23340292442395416,0.29473998786671274,0.4677207751704682,0.6505695302520795,0.6847761993778452,0.5014283098844254,0.34737316569455334,0.3564082818749803,0.4128356060740197,0.35366026481377055,0.321068480173448,0.2497003374999771,0.19283853681405905,0.23865681045260256,0.34548618643029183,0.42458850231459255,0.4938573155429893,0.502694953405924,0.48688951034363814,0.3924162806386189,0.2334525805817247,0.1092849658689179,0.18322340592620812,0.35630260327706775,0.48791748221173314,0.3620750720049575,0.2321695764876619,0.28281222130473704,0.386472078443294,0.4265031207407475,0.4807570855018426,0.44810826696197115,0.3486673379532057,0.2928724791533739,0.3440017400258384,0.42388649297237624,0.5023503365509177,0.49225076702842685,0.44818804886839736,0.325066100834726,0.1604983930976669,0.0,0.007406555882854882,0.17385775716258856,0.352860355179474,0.37461561635234464,0.2658400027312853,0.34108745928851913,0.42969069288093653,0.3912918820898561,0.39905182026171016,0.3389469795092426,0.3115681694123582,0.26239888918110843,0.3242965032144909,0.4283674989609194,0.4917449277187016,0.49904703061952294,0.488584454294533,0.4634474672429345,0.4784821970737152,0.4708416458850673,0.46654071457347523,0.49253736444448926,0.43602338406142493,0.2935531321768705,0.21301220875755966,0.33912632728554826,0.5137788598734687,0.52881701313708,0.3810917390145807,0.29513305852741745,0.3806033800641604,0.45457265576826256,0.4417588038635145,0.3907970448371625,0.3944072770414593,0.37260298773818157,HB
0.30249143736663164,0.3358906539388178,0.3471574900540473,0.3658253216326637,0.39237710492293276,0.3846941909858641,0.3666722774133446,0.3523244614041565,0.31216305648081244,0.24766477508914297,0.3053892928778512,0.4140684957849876,0.506537299947365,0.6195974981003447,0.7282605845929098,0.8207320602070047,0.9240366283080017,0.9233781783163288,0.8153179347739461,0.7021984663265441,0.5909046504574151,0.474174674932724,0.4105262976595876,0.43067315087226943,0.4112704021692912,0.3990407313489839,0.42169011718185523,0.4376908374584785,0.4649614452744073,0.5104659942003513,0.5081471049664379,0.4684356707744599,0.43493903458327,0.4048973495039285,0.3503702574936325,0.3486526864925281,0.45725647149506754,0.5681434730530146,0.6817381218216134,0.8004438391486013,0.9125574568377393,1.0,0.963831027468625,0.8499174482723064,0.7348198266814019,0.6251420502971934,0.5074770605955647,0.42257643469725537,0.39774672603625083,0.3793396212586915,0.3535300051048802,0.3669125475749966,0.3851544040210433,0.4231517704478094,0.44258768280332683,0.42105666155590704,0.3860066294126461,0.3600177437011345,0.3203547354941305,0.2702485064230449,0.332939186402224,0.44762232310694694,0.5567140607829164,0.6745894659771023,0.7894722567309138,0.8745111956675031,0.8298684254256314,0.7137184150611522,0.598458060688797,0.4888963706769407,0.37674087560827463,0.33713809863551925,0.3214412656838346,0.28043389286212017,0.26783091613917165,0.29451835863159515,0.3164085361591704,0.35442085649439425,0.3919892262673943,0.38766856177091347,0.3799085781099345,0.3787752100529258,0.3389458425922327,0.347816351490418,0.4525344460451177,0.5526142716479225,0.6643367431564204,0.7803823424285548,0.8494720214054112,0.7938924906963907,0.6825196188711655,0.5649728208247966,0.4637989807359175,0.41786486198862516,0.3967733406805265,0.3548224360015473,0.3254955760346325,0.358049600252365,0.3698771111419128,0.3786895911754655,0.3999513157146475,0.3924406498517068,0.3838063341714464,0.37127283572191505,0.33658555028575066,0.3136378601949157,0.40752866532174314,0.5189697978596826,0.6315811384043113,0.7381607531672438,0.7571895923667102,0.6666814220627009,0.5498431810104645,0.43834081640577915,0.3677712391620651,0.32943726859237854,0.27419845318670033,0.2678546055436257,0.28944801198039816,0.28825007549650783,0.3005129694310473,0.30218006551030063,0.2905896668461163,0.28562098172399963,0.2658020438959099,0.31262793642921105,0.4267010514811931,0.5417294066511209,0.6438151536965973,0.6517863261307197,0.5475355555697492,0.4344735409276188,0.344796964487021,0.25023350969355995,0.14046292976647967,0.032746188079445515,0.0,0.0521715851867357,0.14092836371701,0.15525990696602276,0.05355218935487405,0.003064531163861739,0.04641848641873558,0.1553942153846024,0.22158249831019772,0.15592797541177994,0.045730084218607914,0.0018025610692757876,0.043505669879960074,0.1526997246226265,0.23382700235654363,0.2516493383619438,0.23835647922639902,0.24149154280382712,0.23533908124090308,0.20373269992420306,0.2247595526551489,0.2751833505965555,0.2851779334987099,0.19897446838132948,0.16430820562735526,0.24877875063552857,0.3021355660988747,0.22234485027750273,0.1649650556822917,0.22356505415562822,0.30487241558713185,0.33238152214619143,0.33215211755936647,0.34222645543182706,0.3268611697755901,0.3092852486808977,0.30930297892577974,0.27274416380081545,0.279499020713307,0.33489789906594813,0.3213692995628503,0.22870824172303772,0.20442871715062916,0.29143642008004367,0.3717225321872788,0.30740656464290295,0.21389071424403738,0.2152222059968767,0.2917287310390573,0.32428924914320634,0.3271023759272902,0.3357979496764365,0.3194793621974754,0.28064298368554175,0.2493555884482781,0.2060693206741071,0.20163853591652225,0.23841774569643093,0.27788301530864334,0.24489275699031365,0.17184682809599128,0.22099553065058064,0.3265629111971138,0.3844946206142694,0.2941633753876838,0.18493529044570378,0.1249709096981344,0.17844693185199567,0.2647100122584338,0.30540902427412675,0.32536295593975595,0.3670072258357382,0.38255600361209163,0.3548404063115229,0.33700258689157403,0.30959004562652703,0.28716324683641536,0.3066044733112987,0.3414092452626578,0.33390551806104485,0.24053533357021317,0.18609445456030205,0.26374466539265473,0.37244883291384623,0.44155234715060043,0.36257439408408976,0.24930395816250694,0.16296916746980594,0.18825947127081522,0.2775254202613566,0.349309714311822,0.388601642744665,0.41980446743615607,0.454335715741065,0.44225928005046455,0.39494543522503456,0.3712027596654317,0.34914517027196323,0.3469002056366577,0.3654300386221685,0.35238975036230347,0.2639937136467081,0.18517160734563598,0.22698125218567,0.3223486248206,0.28608694792424405,0.17184514451220378,0.07824646635983035,0.06876029580355247,0.1582827690513149,0.2534651524049085,0.29125762426420776,0.3171611463437083,0.3403153742433158,0.3276367641719049,0.2907629801992129,0.2899900899498231,0.2710892695215361,0.24318948563213194,HB
0.36563029815181247,0.35057111660131346,0.3460393541596811,0.3553514104922286,0.3506370148607707,0.3583616367161466,0.3496683816198609,0.3479551004889927,0.33248734928612755,0.302624446917823,0.2675037159330709,0.21855437820186796,0.1684041372170173,0.13983302263044095,0.16755241676506105,0.19988813586129095,0.24164374947404577,0.2929020117672436,0.32999209594181034,0.37310264994144804,0.43599933306713545,0.5002293360027221,0.5666201361504901,0.6270740425286259,0.6906956334599079,0.7473112402863744,0.7458648944307682,0.6874297883384006,0.6238014123344671,0.5581923954577681,0.4931077231139296,0.43825622906750805,0.384996017438747,0.32948456391071446,0.271612424141503,0.22145840151381546,0.16580855041750597,0.11034574597552127,0.05901962904260771,0.05575875413420084,0.09799091581305097,0.14601091362427554,0.19212059584147445,0.23237254696293075,0.2662595578578728,0.32484294652800116,0.3971696038662662,0.46467598635573437,0.5341022305856538,0.6008279627890434,0.67147217856718,0.7386532150634701,0.8090420685419213,0.8802419337600447,0.9465084782686897,1.0,0.987627025507916,0.926551100625864,0.8581051749461985,0.7893902832368214,0.7201518060964915,0.6521339530223556,0.5831857334123622,0.515236288109878,0.44853847392137625,0.3867768502069069,0.35083911068912554,0.33924237683113634,0.3490994553634159,0.35458292761971477,0.3370447892849411,0.30705931304623224,0.2929655948002565,0.3135978127370518,0.32378534229514777,0.32518460081867584,0.32241738417152854,0.3477245984746531,0.4047482255786632,0.41756965470125373,0.36776869241852395,0.3203285034079628,0.34479320867333385,0.36262490114481283,0.35823938505662034,0.3425579141509023,0.3250424411692776,0.323868349201317,0.3433894062344931,0.34387674167204363,0.3169375634171776,0.2750949261717759,0.2761467938259061,0.2836060414670032,0.25947849770156917,0.301108163568093,0.3261868720734573,0.32132966876796365,0.3291655789582977,0.33817287945073926,0.33340740487630627,0.31698563269566127,0.31561500631160433,0.2936713271248437,0.26123865449186545,0.26534663108943013,0.2898090732258598,0.29930828663411124,0.30124247830813644,0.2785449887587117,0.29871500155219377,0.3444273283452697,0.33420530230005996,0.30228687634476725,0.3062241772726384,0.2971506760259106,0.29876410724400704,0.30552304888687076,0.34239800887085603,0.37291672364833484,0.38654451550483704,0.42180205076219335,0.44916785603431575,0.4552378858842765,0.44388457550880833,0.4180534072746429,0.38178647530795096,0.362849584902907,0.38737318729635994,0.41252787850258943,0.416697772792495,0.4031331575216406,0.3624896646728262,0.34238812822335807,0.3110290287737216,0.2745601914057252,0.2600603474927352,0.26240685917427253,0.2652754281587597,0.2546714075589327,0.2021766633370672,0.18994429926516299,0.2434760813866026,0.2835439815491456,0.2443758166845711,0.21826538715360888,0.2476213005879715,0.2576196719960131,0.25249900219169996,0.22962028139335122,0.22266523728231769,0.2453407394768885,0.2770730227302547,0.28088581514345634,0.2860243152264066,0.30413395993888814,0.29858378617840464,0.2832977147529343,0.29282987581056696,0.2753468917779145,0.21800718635111194,0.15989773810636798,0.15426841551209414,0.19830714681625428,0.20996538074121163,0.2497684666909954,0.2960115389356628,0.3074607997409615,0.2926942358383382,0.2888460460050555,0.3015932850553227,0.3214678641979172,0.3279593505434313,0.31878298748199296,0.2686530494779962,0.2125711418874816,0.2066688353848518,0.26629881676024425,0.33050459120920195,0.31793194754895504,0.27191473919676423,0.2847224871939775,0.29744174860154504,0.2826569039111533,0.27264589870442646,0.25381546906807784,0.2625042022856996,0.2960136274966281,0.3205705873021243,0.31548115967569146,0.3066286446091602,0.31369269562263935,0.35139172106966754,0.40926641707094236,0.4739077148908539,0.5462882926283594,0.6191017433377892,0.6865898699001656,0.7565806786232043,0.8256099335342435,0.880887541238847,0.9307523167355587,0.898724617105902,0.8329704266396369,0.7620832505351276,0.6942481095012043,0.624692364939655,0.5553046050985335,0.4873757858852228,0.4183398184820577,0.3507282872217432,0.2861723339094109,0.23529046794359032,0.2016324833652885,0.16156549513867158,0.11080001952491703,0.06347145940425558,0.019117231308728888,0.0,0.03604893316965563,0.08824787500835996,0.14445515895054895,0.20079087317135325,0.2545917670479627,0.3076672046600113,0.3637935670406005,0.4179222848157049,0.4712664544251024,0.5366324802089026,0.6076230381537766,0.6461715790569293,0.601488133447666,0.5385802075165036,0.4728824306353787,0.4107762542996434,0.35126802839316973,0.3085091376196496,0.2691388655589899,0.2195466642275139,0.17952842399031477,0.1455034301995648,0.10687897511286693,0.09895958322620158,0.13442219792935606,0.18706812226478609,0.2390063768003443,0.2730503314518724,0.30267661725092165,0.3119891812756457,0.3165833834984282,0.32024885365427536,0.31901325767915,0.31498885154949297,0.31649799016403546,0.32892621191717386,HB
0.8669866676577673,0.9054262308371117,0.8439252746540953,0.7301011373896047,0.6108953791727336,0.5254536054134162,0.5973183632242824,0.7140154433594115,0.8319061352076818,0.9375964768063982,0.9999999999999998,0.9375563638937277,0.8741061812424726,0.8100969991402691,0.7687753596505427,0.8094982460581697,0.857425334133745,0.8773883091740295,0.8745955277854918,0.8663558132503868,0.8463946858316083,0.8187833850652251,0.7825785214788625,0.8080193687974553,0.8456928528331795,0.8768980264983426,0.8865936286193519,0.8823968514030638,0.889637358829644,0.9063638501987572,0.8492330253275766,0.7459380927159309,0.6277322848275662,0.5056745034444712,0.5016156652763792,0.6179277023885372,0.7345432584257463,0.851267095420938,0.9469954038110984,0.9172741325847367,0.8534670277526957,0.8043149664257212,0.731171715484001,0.7313596533411164,0.7909832063137385,0.8476875321008641,0.8699266907545484,0.8629310622894926,0.841957425976344,0.8283039299257975,0.8163743227685722,0.8091243613027339,0.8510886327014908,0.8980044815333701,0.9218440125645191,0.9086504752864963,0.9094682102174658,0.9198045301324724,0.9412498923474468,0.8637682497107899,0.7476070663556842,0.624614867775908,0.5560446137591073,0.6454614698696937,0.7685268073488409,0.8855222514881274,0.9612413180928947,0.9269083317193381,0.8669618515702668,0.7948047229773658,0.7501053274335676,0.7924651427158265,0.8400946720385372,0.8618092503156014,0.8412687861701491,0.8150690477942371,0.807549698276486,0.7965199320664509,0.7687494289059116,0.7414572580762664,0.7675421152381434,0.8153438570165787,0.8483045183319688,0.8519189857065672,0.8632382900093367,0.8812970566820371,0.9204620018042846,0.8669874507676976,0.7526473355995174,0.6301733609440634,0.5298799055947792,0.5745353379336742,0.7014681644998706,0.8257257769640167,0.9110503887388124,0.9122028769121624,0.854337242598797,0.7924003146572136,0.7371640563986663,0.7646235384168192,0.8185674487073029,0.861008414564816,0.8727347759238098,0.8569479984398061,0.8390318299217727,0.8022559424528584,0.7594306157080501,0.7646688356837588,0.8085278501907414,0.8402608048141607,0.8126059921955113,0.7589507624491005,0.7237575596361332,0.6918268890114103,0.6536871481823916,0.5776235947001063,0.45299983860716764,0.37396363350560846,0.39139019223190785,0.4991150618390374,0.61360989873279,0.6035944497355745,0.48417260845731636,0.3841786294318663,0.37354982270731285,0.4524179441997698,0.5775289144015125,0.6692972266461192,0.7171583319417063,0.7547441935491384,0.7642125137681479,0.7672263922817344,0.7392948696169224,0.688097770818145,0.6450457969368919,0.6341286515580256,0.6963748829074714,0.750398967517522,0.7878719033209924,0.8145609004080898,0.7086663131447699,0.5871495647278586,0.4654704433190482,0.3377472411493627,0.21999833842518757,0.09446859245236205,0.0,0.038292315513432706,0.15696475376393448,0.2745955094869903,0.4008926157472661,0.5197850772124595,0.6437604313185201,0.7576491549041331,0.7883912662076058,0.7512839977274315,0.7479020737046997,0.7436455144230611,0.7220165786565544,0.6695482137549666,0.6342059071780157,0.6471657179986157,0.6854571174917281,0.7049980580604343,0.7050892095176977,0.7258053892747014,0.7518807775184462,0.7456791492651929,0.7014298203721114,0.6624103000048971,0.6940966319528805,0.7691357845134237,0.8025444954287517,0.8570280135439716,0.8124396803591811,0.6952262813167553,0.5715179764874525,0.4493233872929936,0.3282036477253636,0.20038961063065686,0.09783086329322166,0.11290732626975042,0.22689098248561224,0.3455258547791249,0.46952349317417696,0.5880484121907246,0.710615330242945,0.8048703449427033,0.8006115196851609,0.7986107576289554,0.8065930988739363,0.8222957091143159,0.7951789150044306,0.7408587808413503,0.6967182583465161,0.7082722159831054,0.7361532636366472,0.7611732462744103,0.761745816734581,0.7655480642596524,0.73400404691576,0.6774416662636409,0.6145345914668778,0.6107947262916824,0.6842108702278737,0.7441376887095095,0.783402615559061,0.7975149844647336,0.6956843559840069,0.5777170929999416,0.45496069839347597,0.3256509505706806,0.1963626571549668,0.08400309143669138,0.09013564354648951,0.19897963718551392,0.31961728567687664,0.44155758174880844,0.5691492131241593,0.6865045416865552,0.7782501696017754,0.7659351023535634,0.7679928830585443,0.7764439331509754,0.7728839339404237,0.7444534270804966,0.7014314356070555,0.6733367402321655,0.7145722202436671,0.7450308545793891,0.761229350206124,0.7749064339962481,0.7764362999830345,0.7626236781663673,0.712888127003698,0.6808433995155776,0.6693846255935043,0.7370900187769409,0.7932749626422224,0.8105086525305285,0.7438098648512719,0.6233115820189787,0.5021279912018304,0.3729863437108192,0.24834423601194877,0.12939323509028333,0.013250781622013985,0.00814788733440519,0.11546424331661442,0.23575304669728436,0.3622212613658713,0.4793522246405544,0.5966800523047915,0.7099808436554407,0.7552264132658577,HB
0.4382051069775357,0.4693433524339552,0.4934008244032655,0.5045439798057703,0.504832316457239,0.5068441116965179,0.5133854241416866,0.5188969036972346,0.5297094384151642,0.5260495684340767,0.539084753569175,0.6226731093608873,0.7265119398311741,0.8298414980771844,0.9397469520093091,0.9980386508392773,0.9394328376925332,0.838164606443681,0.7255446424115428,0.612686756449702,0.5011330809696966,0.5029187323428053,0.5456622124168802,0.5451893237964898,0.5649034981501067,0.554137743400573,0.5060665450969202,0.48126633822436693,0.5077124087595246,0.5368528638132437,0.5590102486840127,0.5760151957401578,0.5821209597934116,0.5636933470335697,0.5743864122408824,0.563003094356044,0.559627949529435,0.5651694202542599,0.6257193409534048,0.7208192504311124,0.8350158760763242,0.9449407676164956,1.0,0.9429570028536061,0.8457051115398899,0.7354741327713339,0.6223628715600307,0.55542290009409,0.5844268629021134,0.5874185384117303,0.5839598844014757,0.5731386313514379,0.5267677964627095,0.48463592808310496,0.49646718372120846,0.496006605653581,0.5194046327375035,0.5384026158260711,0.525192804963948,0.4947002311912234,0.4863760164293671,0.47656342580125344,0.4759737764391514,0.4742352071832747,0.5063917322499463,0.59034682068808,0.6942439091612029,0.7981921976006947,0.8313740786795685,0.7650652749541176,0.6656249110240653,0.5459913553537339,0.46170192752593575,0.4887973248185178,0.5140374756897672,0.5130742122981333,0.5096311759708239,0.4680765104868052,0.46547921329054764,0.514123352913618,0.53755974136417,0.5612893176791305,0.56421023223777,0.5415648543687808,0.5350327189118449,0.5636491562705546,0.5523664137344215,0.5515162753050689,0.5409761383717826,0.5311390778352774,0.5763202119931554,0.6762446671009466,0.7897652587060482,0.879165808206114,0.8556567599907927,0.7653189247180476,0.6575040407908128,0.5477954219662236,0.44025262850614943,0.4257938305409663,0.43795259464229197,0.46907879314483303,0.5067207083328449,0.4858825880004014,0.44459147678019884,0.43457071411279946,0.4744168514120619,0.498918338486555,0.49283540471010534,0.4753892630408849,0.4579998490173076,0.4327867579807263,0.4249203566478763,0.42711896448876896,0.4379986873731365,0.4277208522279743,0.3851833126619235,0.34790812284419736,0.2809643544551621,0.1632519613746357,0.048922679571175465,0.0,0.02489223771037974,0.12273699251821757,0.24361153727676976,0.3317030864796582,0.3651301350401863,0.3502739216310129,0.3089151403871022,0.20215177917889493,0.08233220253233098,0.008161460239126228,0.0058426538514724236,0.06903003545925124,0.18718496134615004,0.2991105035304158,0.32239723568219203,0.22937834605754404,0.1084170802283757,0.017578729532516935,0.000395413566439462,0.03535549141127747,0.14150460076000737,0.26143988836938403,0.334077806215447,0.3602962047128764,0.37259097153471554,0.40189115634163386,0.42993797146625834,0.43882425589449126,0.412507871521246,0.35990453911300735,0.35309861184358304,0.3967786620724634,0.4287983057086877,0.4098051555822133,0.3704650972138164,0.3480378105007014,0.26694340644100434,0.18749942371341932,0.21552524650750016,0.32326652950109924,0.43160844100701956,0.5407277089393054,0.5367318358387352,0.4650492590130173,0.4554591559555283,0.4766778791954951,0.4850373252411351,0.48713308008332046,0.48643919879503894,0.46429974196901647,0.4776120667751478,0.49606290152172994,0.48587536905625806,0.45842214190663233,0.4174498876127508,0.39412566630726076,0.4231783939274547,0.4474982525764246,0.44221346306900866,0.4161541904672208,0.3324654929229456,0.24871111538301482,0.2700060471629322,0.37182378094133384,0.4870018115038688,0.5885220429716953,0.588565480447985,0.5023994577055917,0.43161520987859436,0.4075805952077882,0.40720175138540293,0.4200127880240272,0.42457038072914566,0.433068018050331,0.460781336676066,0.47082410347430415,0.4531635434435133,0.43433518158893536,0.4246456249133219,0.4274559742312225,0.4657326240340405,0.5043627007910692,0.52338906466015,0.521383438741605,0.4555487919325665,0.3459234890091767,0.29764489393742055,0.36377709437085004,0.4739451578290903,0.5862045834991223,0.7009975678789537,0.7736315219448842,0.7103299032085624,0.6142077865997262,0.5275765958289544,0.48571296101509054,0.49123444115435744,0.4988222234185611,0.5119314388319198,0.506376409475704,0.5129615174537281,0.5108002445356505,0.48887151299829545,0.4643943808101998,0.43752451747527665,0.4169205897217534,0.4383057969947082,0.48079234493672507,0.4897573191645521,0.4903172348071303,0.44601716449306306,0.3488793149248197,0.2687411876258028,0.27981659537599235,0.3826337460391427,0.49253744386472764,0.6139435136626719,0.7325927279889144,0.7616106814607044,0.6884144584250889,0.5956989287490235,0.5062209863587035,0.46726360609647566,0.47012371066690806,0.4637004814195711,0.46042666037491164,0.4486957056597136,0.4501444909408798,0.4497893433317981,0.4409226340660872,0.4241898015951455,0.39869187419130947,0.3527436014975973,HB
0.190966769993966,0.19634913928988673,0.22001859344353847,0.16926293229573142,0.09208620107993959,0.09774122623228709,0.16962739678274075,0.22646416291671778,0.3078356008410327,0.4118939868823227,0.521487841548648,0.6356295419388308,0.7468558076070705,0.8548605809012929,0.9508954238016362,0.9390424837195969,0.8386666238461816,0.7281187646653314,0.6160225575428165,0.5006665622747445,0.38519423570255074,0.2700217288895105,0.18336343567216573,0.22135565651339084,0.2470436783935498,0.20240085930312846,0.18963140693749614,0.19140958321455448,0.12712286185013155,0.07425795337584484,0.12169918443431194,0.19505668585077685,0.25690409701943706,0.3489954860199075,0.4561937853920298,0.563516637493337,0.6643146101689289,0.7722215217815677,0.8805844225659397,0.973949256363316,0.9531659215562128,0.8497129998376404,0.7384510161535937,0.6270263092100584,0.5144133913028838,0.4002211887608399,0.29014625315989495,0.21036072279669538,0.2497538549764199,0.2620266647763484,0.22315880992592196,0.2386861703305524,0.2369789226117741,0.17112301456471168,0.11679521446042618,0.16240784808976472,0.22220202525645416,0.2840623419556255,0.38251572654687493,0.49222210755841356,0.6017232244692515,0.7130272946178281,0.8273825792523414,0.9326079178368897,0.9998967713430905,0.9487432576440414,0.8422742109497044,0.7311410337593746,0.6185126621306561,0.5071249115064133,0.3922068788160148,0.2853107865122172,0.24958343445801223,0.25939107649302773,0.21540999731578336,0.21836379254998095,0.2308058021512941,0.16615834339013602,0.10140557702082165,0.13779910498721282,0.1962320812051236,0.25975403018473686,0.362680250168686,0.4727052196177143,0.5840746387859878,0.69359144428671,0.8024516947481218,0.9106535394562846,0.9999999999999999,0.9707481862953863,0.8642576580615969,0.7490651751183425,0.6348896052607619,0.5243309237726611,0.4096360996539711,0.2961985616196444,0.19286037964271896,0.18367613086868062,0.22859460192013026,0.19618162246971116,0.16294582873491759,0.18288586577525623,0.13788194013894628,0.06494591589397392,0.07170994051594226,0.1391294071318382,0.19799323131689472,0.2871004226802024,0.39386888287067745,0.5029834549187929,0.6126546050452139,0.7225675045947842,0.8315353161668918,0.9285448438610623,0.9175366998035105,0.8149343812909858,0.704481946297783,0.5917649433840991,0.4840752621298273,0.3807643381952889,0.27019773827328686,0.1742380577498982,0.12464285385942875,0.16577364905973158,0.16373851357563518,0.1701474924288201,0.1296608962346083,0.10533038587251287,0.16463041272340384,0.1252473208558308,0.05723533326972896,0.04051380058287757,0.08224051557990875,0.07628134811265108,0.08536422229491036,0.07138394047140484,0.0,0.04617738925275561,0.15631348086336827,0.26966166585593443,0.37314828379283094,0.4821287285473502,0.5972175512902042,0.7123186108029086,0.7950849928938061,0.7384459011841084,0.6304831428603436,0.5212616434185956,0.41123934121364003,0.30326333908187164,0.20674452873684357,0.14211890365883229,0.07687809581120597,0.0058495096904976895,0.016395450021211566,0.0940724373540317,0.1480536862285241,0.12473813169556147,0.1552912899687896,0.19014387697874302,0.13108632970700784,0.06437021563701428,0.12578632927317035,0.2359009046325914,0.34861496719826046,0.4634725554953193,0.5741802023826935,0.6876563445346499,0.7922319738467677,0.801038139347151,0.7020246390260855,0.5908514958229673,0.4807635745583906,0.3720691257307672,0.2699211667266809,0.18821579444845893,0.14291848688223274,0.07905598683300563,0.07254854102526498,0.14962599460848225,0.20575916092394209,0.17236593731444783,0.17867912715690715,0.2219331125808962,0.17784656774186736,0.09540784251404866,0.11954710149362657,0.2253606119119832,0.33788277341717154,0.4531945945078447,0.5656114275869114,0.6772421505976104,0.7864568666271771,0.8277326257119614,0.7396059870574138,0.6300586792744988,0.5196796256950961,0.4090927523878348,0.3011739831391941,0.21914308342696465,0.1625364043842329,0.09504287777073628,0.07585753278671903,0.14492440840080179,0.205851610143711,0.18788654149676776,0.18649291411921098,0.22667964388651696,0.18135663454318263,0.10597127464055733,0.14847747077597517,0.2593834421522693,0.36988531065942387,0.48423761904225604,0.5961816409715789,0.7081501712861683,0.7946344497228394,0.7434737457216197,0.6383398922510967,0.536320614946105,0.42784525132528983,0.3223789135719294,0.23325549579640692,0.17356311270083002,0.09922017038271236,0.04455887973329187,0.08495860178563797,0.15553991286293545,0.15338020948174125,0.1555379277483916,0.20544054560627367,0.1924164025822631,0.10325636881358868,0.04953664642676692,0.11772084756410661,0.22880125797852624,0.34353799796199824,0.4541447447667698,0.5678611643722812,0.6789285265599311,0.7832158481029691,0.7857997478590047,0.6926150160927421,0.5832760444532078,0.4727049200009895,0.36648212972451655,0.2709301126343574,0.19369600622470073,0.13850510871693278,0.06539890780033042,0.047513655295314705,0.11827506000019905,0.18078571992869918,0.16359124699841143,0.1375815224341549,HB
0.5813795208367138,0.5136776455223133,0.4610951714244136,0.504056388709305,0.5664517151853494,0.5827152833761087,0.6087402696225905,0.5993676136752217,0.5773356579256461,0.5408658169068499,0.47219253228565217,0.4742057621383111,0.5323022456816866,0.6084702355441318,0.6879221633108763,0.7395565474963681,0.7639796136545387,0.7997074783580644,0.8765507913889086,0.9938702536324673,1.0,0.9045518299938409,0.8165115450275597,0.7120771683474492,0.7304514788344694,0.7947293936534447,0.7902118620293201,0.7399163408737088,0.676351919834949,0.6040672702522882,0.6118357745321137,0.6671334270489533,0.6694834020574647,0.654099093354287,0.6233355000774075,0.6225126431208774,0.5838296621597983,0.5249340446053061,0.5068069845262713,0.5684595428125991,0.6357652596771457,0.6746596185995526,0.7037652785101205,0.7213118299324952,0.7541958496972088,0.8451985049188804,0.9475646426040054,0.9694176127683103,0.8811531277679059,0.7713423708462765,0.6524210690441601,0.6208221504565485,0.6850765790901887,0.6666216762416712,0.6511342449929791,0.6190688444991657,0.5430622350039616,0.5641164981441125,0.6171544514364031,0.6546259618307428,0.6497468317051704,0.6267840301677916,0.6023912346019675,0.5695460562691834,0.5112137811379114,0.4903448767896621,0.5567382614764034,0.6329483265920124,0.6711179036061203,0.6967308674582458,0.7497918351767137,0.7860817700274336,0.8651091904086163,0.9599214597441685,0.9293895955074487,0.8187516393168672,0.7118113736936058,0.6176514723434283,0.6460665477841339,0.7222655344284741,0.7052635501911952,0.6552912882290429,0.5827044631841733,0.4923898812592,0.4289059207894894,0.49268913051422025,0.5549911859594636,0.5599196881528439,0.5541209273265677,0.5312562106458665,0.5180817770603623,0.45519341925162626,0.3845039238888819,0.33168205750651625,0.3835828308366933,0.4530146116327276,0.5302863966724924,0.5893852578746186,0.6094060500043201,0.618758244236457,0.6849338354147005,0.7805973394905914,0.8238368825806011,0.7365796683854109,0.6243190167784394,0.5473859649570691,0.5852281931720857,0.6328239208598427,0.5996857962175759,0.549456039817998,0.5147323591684918,0.5248131373698666,0.5732908306923581,0.5402986997320562,0.4744101523002282,0.4793872843086411,0.46357281144129603,0.4842077936316884,0.48652378219285763,0.41981926165074057,0.38891338102535444,0.41446327631753066,0.38803443126402737,0.3119170849078774,0.19056302520339274,0.05879786800959108,0.0005452944164470175,0.028099952530572736,0.13862822243976636,0.24184726421507108,0.2614001814596607,0.14625448051494017,0.0306557240344576,0.0,0.04121339745398345,0.16384927776419111,0.2972090462324144,0.35852643853417865,0.26698671579291977,0.1280640562439439,0.02351573443222721,0.009252904613041846,0.0695649496923636,0.20324506783377627,0.3314636351361768,0.3783660279810359,0.37303152451729016,0.4214606741437139,0.46266557962250365,0.4145519903163639,0.3970284604715415,0.4207538882163919,0.4827313581592989,0.5370853580072197,0.5243071635866539,0.42596901021392997,0.3590740641476442,0.40262124894158946,0.5067320363051198,0.5955735072866033,0.6020562502779176,0.5462443984208449,0.5286602751369904,0.49657104523835915,0.47290955099868626,0.40063976908176224,0.32191777497675966,0.25257912749276423,0.26161085274088647,0.32605226929515885,0.3930802676733465,0.42896018819592463,0.4567265205839024,0.46562115776899704,0.45264222338099813,0.42419715775839384,0.34149964919505926,0.32716011959720603,0.36768250544466463,0.46737655134338274,0.5465961978636882,0.5969381264967679,0.5534851682601731,0.4685149691074879,0.4431657649178917,0.5371725290946672,0.6563437501193801,0.725539076946756,0.6724525914691193,0.6330646196413054,0.6055144592779165,0.5769045247907649,0.5111362809556041,0.43474231355876114,0.39208929377150303,0.41569766237595607,0.4786660569594745,0.5184686966667877,0.5434143714734243,0.5545795081898341,0.5364875074409752,0.5274083574451494,0.46603054884080386,0.43442487973012023,0.4644677617715369,0.5393261439800909,0.5622676781399227,0.5943804966263921,0.5364620232661967,0.49708286122106493,0.5735591882771018,0.6999793201674418,0.7515693862642436,0.7006656016526542,0.64978975918413,0.6109679179922276,0.5814591760169718,0.5256925884650552,0.45648846236257423,0.4071105120952634,0.4214242284834966,0.47557963939479997,0.5222323938254605,0.5413401453956768,0.5712034229340053,0.5853103488927438,0.5409849759177465,0.48486134449588025,0.5045366343221511,0.5790027219831351,0.648578178700332,0.7007880516016418,0.6562001020885369,0.5989277606098669,0.6497148194079667,0.7472748763390866,0.7652985182604763,0.7102426985481998,0.6720667626130039,0.6409004683300483,0.6113404999241538,0.5381952714262521,0.4478114486590359,0.3834231700228421,0.3674427919193297,0.4183978528085861,0.47553216537254883,0.5027312436269087,0.4941650633424892,0.4885930328790571,0.45356022173745947,0.37534025489818257,0.3497449813075888,0.39672082022201405,0.4618618955696645,HB
0.31195167043177174,0.2764511266909977,0.24141796799343251,0.2896091262036433,0.3335413551724675,0.31212506012831986,0.27723268860283246,0.3087075595059845,0.36612877169726743,0.42481873944705284,0.44158320373431015,0.44585259543820777,0.5007120109881498,0.5991978696784683,0.6955561574740254,0.8031451220206407,0.912496460253357,0.9625806649753079,0.8881485838798924,0.7738670063139346,0.6510506443991029,0.5297373863606973,0.41759092478275606,0.32943361943057536,0.3393113671140491,0.3271844997548594,0.29048799281534277,0.32368654668150065,0.35097690734209697,0.32463822264221176,0.2983774908918655,0.341221815666753,0.41043170284813946,0.46580348435330365,0.4737880832985748,0.4540450286637794,0.5024211323906103,0.6009122815751973,0.7115804766543328,0.8231638178005969,0.9222247165049884,0.9308721494464265,0.8284753660628323,0.7259768188778268,0.6407586385884565,0.5390996951002183,0.41907224884336114,0.32498807924703343,0.3077901898242119,0.28746033140352467,0.23652513883627946,0.24142972463254275,0.2917285892563044,0.3068211520768116,0.2767968792069888,0.2812207664601407,0.34138306668442,0.40489565022354257,0.4383985584916179,0.4464263959864365,0.48483761858129726,0.5704635611450259,0.6768667308486978,0.7904160699816491,0.9023381570316207,0.9999999999999998,0.9877892423715184,0.8852158907247756,0.7731807742268233,0.6543259965593282,0.541385668669722,0.42252647036533575,0.34328590169608453,0.3397440315898581,0.3109699124524472,0.2651592911004832,0.28797146849825084,0.31620450846120085,0.2824350332789194,0.23758308568766373,0.26153102471969736,0.32908120517340866,0.3906763225016625,0.43373715579648553,0.44943871428873794,0.4890521997833781,0.5753652738196593,0.6844305552827896,0.8004851103989841,0.9098121590209678,0.9738690443881393,0.9057999602865225,0.7955851981508439,0.6791438827964933,0.5664519834581287,0.4464483799817185,0.3386054742582971,0.30303293604097825,0.3194336952009966,0.28573477645064904,0.25150959927002714,0.2958633047751007,0.3325595069803511,0.309546641336379,0.2737457688297755,0.3045699198437488,0.3674914328872847,0.42658515665906793,0.4639134458944765,0.47120172651957826,0.5109086861912175,0.6032771482793018,0.7134848070474404,0.829682555956792,0.9449229112248536,0.9872374905633017,0.9066757642565786,0.797542506962724,0.6812807148008833,0.5743895486026129,0.4740307914512487,0.3630817417644774,0.33448739931192883,0.35384081819150626,0.3161352137225111,0.27953292466549606,0.3099558469231354,0.2702150210282699,0.16882902831872726,0.0524928966517304,0.0006981095008160576,0.04537685301297256,0.15552340933759168,0.21748587090130767,0.15007509899961735,0.03939178510684127,0.0,0.0483911027635624,0.16251441336901817,0.25628928517434546,0.30118019422119846,0.2713952872066374,0.21661613592591,0.10385822264149014,0.01270140000031117,0.004970921132365191,0.07711952314276416,0.1926307489157708,0.24992094683074328,0.3032673541619755,0.3791804767546829,0.4676968880403616,0.5751352361160624,0.6951592577378773,0.7801950515836176,0.7184695442260736,0.6077782451765523,0.50308046729637,0.4388032949441485,0.42388269147628344,0.40151928584367025,0.3381752446090933,0.27780325556522034,0.22817715958795248,0.23448846118196154,0.2765907004473782,0.2677495561537706,0.20530929966511668,0.20310273515219435,0.2515901093632016,0.26246982955466724,0.23805256705660738,0.29819348052113503,0.40424167246043763,0.5234218242801523,0.6102620841503439,0.5622560004241788,0.4734938978885228,0.4213323580927415,0.4021729971568042,0.3722061520029125,0.31556320779173297,0.24952301414996314,0.19044826099518075,0.19326046883383108,0.24152999082890836,0.26274078876323803,0.21683572734019285,0.21828354366485603,0.27151580361376326,0.29309517247120787,0.27089754511091013,0.3217444576784556,0.4226187009597704,0.5373279131562831,0.6533748640580359,0.7481534860462691,0.6916192242303281,0.5821363391024821,0.48664020014433285,0.42532146070760724,0.39970672515630556,0.39215522234962985,0.34132058324591097,0.2763489330572424,0.21921837911988873,0.21646160995180863,0.2540439012467972,0.24649380610817828,0.18890549636367093,0.17278402379223912,0.22054490253817982,0.2543027369865245,0.2387635941307822,0.2901813822323278,0.40311294880477466,0.5221537163713952,0.6355771251488485,0.7353509676484802,0.6917688764601315,0.5827905823452693,0.48436112225734473,0.4192051302068831,0.4054165704191306,0.43294143406536434,0.4071128943468778,0.3423639418349882,0.27599658657413406,0.24661841848571897,0.27497223721652353,0.30058927986810313,0.25832058579984696,0.23722452772615799,0.2791018201612452,0.2923090135167141,0.2641388686527091,0.3240360191433893,0.43311186916993427,0.5501112128128935,0.6574089088065718,0.6430336044498157,0.5382486491517839,0.4486356378097478,0.4029484825747953,0.395070183794197,0.37025987810012473,0.3064262152872248,0.2512281551195381,0.22557797754048425,0.2579466467718572,0.27942954571831957,0.22606940501648798,0.18512792049803406,0.2180716568793286,0.2625819481788809,HB
0.7863898295608438,0.6960771370611782,0.5701012201664462,0.4413223968589173,0.3282070698546984,0.35701998155318515,0.36908128726105405,0.3462482796080595,0.29926584231394493,0.30797749774642336,0.3663475784229715,0.3550161580567073,0.3750406354707998,0.4151149153654887,0.4704641315662599,0.432557138425234,0.42760105395222947,0.35378522358368203,0.25886161766157745,0.24417197779715538,0.31315748051896986,0.32637490731885643,0.3444613669522796,0.32084218838818845,0.3024781014676243,0.365062412408625,0.4937204066006151,0.6240569241894383,0.7665487542688858,0.8943449302386028,1.0,0.9567723822866983,0.8295015545175906,0.6960456886834843,0.5567289495315739,0.428463437755918,0.2960518246899859,0.19766801491840846,0.204310516639151,0.22201590844867392,0.20113697301603883,0.19352304423760902,0.17458393670214223,0.11868125562847087,0.08382973463502186,0.14919626573662192,0.19965975437060735,0.21095803571710192,0.21568059177945953,0.23400455097911577,0.19137804170336015,0.14938510814601003,0.11797836040021803,0.1623443111599734,0.22189110457377437,0.31080976255538806,0.4286450678046707,0.5707439856438699,0.7089578031049166,0.8304290235777572,0.8731490965331501,0.7719150373349262,0.6450828801346118,0.5059526071285902,0.3794773358985335,0.26075331892130205,0.2330011331455628,0.24140389108552318,0.20791834024875122,0.2153653527409949,0.26179293134006176,0.2945016624513146,0.2874966931475469,0.3019972482856743,0.275768538161659,0.22953476400250228,0.2171989727407806,0.2616813811662122,0.292990520589302,0.3242294060216304,0.3154079804762273,0.2970394158311582,0.267108913588078,0.2799655467066726,0.3308194412746621,0.3703520261061226,0.36243661720194487,0.32233492215765613,0.299871765994177,0.29112695334964345,0.26433389578710065,0.25302915537885173,0.28214140358704176,0.26850806263051075,0.30416795241475736,0.42241430831250915,0.5387727156765472,0.6475344338128393,0.7792555006105646,0.8696796016474417,0.8290387492738329,0.6976458239512313,0.5533287146338157,0.41763407665686714,0.29176167949551735,0.20930862392590432,0.19626016491364418,0.24237425635902277,0.29745206747560715,0.32986743644224337,0.33363660289785235,0.29577591013131377,0.2617765648889625,0.21427128810882534,0.22311498987522338,0.2704366338648656,0.32997947463771293,0.38235066717508603,0.36078908288717093,0.31918405812841977,0.3008585945158533,0.2549825434350881,0.2534874668244962,0.3077785085328606,0.3452141788317098,0.34266058896059937,0.42291010383974736,0.5483727923575925,0.6835063140185591,0.805349462777027,0.8527377432504064,0.766730641145462,0.6377855303209339,0.5088464437995635,0.38851530067663687,0.29586160384636484,0.2753255390973717,0.2990731379097822,0.29874403317506815,0.277880176332292,0.2213047448869312,0.2126649245920773,0.2044977602707756,0.20829205001935813,0.16918888375692465,0.16941699114694053,0.21213465589696057,0.3003354644499616,0.39677946754476023,0.36466607867695666,0.2721565718107666,0.25078396282712045,0.24407897224602237,0.18878091919839735,0.17269583638728747,0.20402183409962849,0.23679936879654218,0.25147586580673,0.2671169531987019,0.21918047702114718,0.16805353413526225,0.1184831265836932,0.13474881831704577,0.1766683235521036,0.2370038170961819,0.2598602844272926,0.2375105158426556,0.1969377199882838,0.14476450162191457,0.10809396385853498,0.11612408528839246,0.20237182627088535,0.30746331802478455,0.275029411835952,0.1838758276565331,0.17244429349005408,0.18946777232526513,0.1740446744754407,0.19317413260303562,0.21928404542254043,0.21859217732062763,0.25291329240674854,0.28104912686361905,0.2662293113636731,0.21528115481495202,0.17898554968972702,0.19931617479889985,0.23324742122533415,0.24631194739490825,0.21650960800070873,0.1886380568123136,0.13892722560529647,0.11745141309307172,0.173025265747623,0.2129624290811729,0.21750464001887826,0.20073048454276998,0.17993565129946543,0.1278347675830882,0.09613453147954143,0.1440044809953247,0.15948066951771178,0.12447637171220904,0.1379250463732138,0.24634888730503146,0.36832605865097534,0.41139798253877435,0.3026398075631085,0.19987110167090538,0.13129003457937216,0.07685263412054155,0.026522896196701673,0.059410993139886514,0.10951540034838114,0.12579324259232338,0.12618196542846638,0.11944297281207561,0.050270383409681596,0.0,0.024449118271189896,0.07279033566317317,0.09295609330407428,0.09110692481673688,0.09214536966746545,0.09549917180820744,0.0572091536847843,0.08282828495061656,0.19364843436593837,0.3209026082162758,0.41737386169303736,0.3270752335472893,0.23101520030622602,0.1969444183330893,0.22142977627364901,0.23172453576703367,0.22125484794481087,0.17256076549427402,0.12113303053372171,0.1529450164407118,0.24373812404123996,0.28970689563119434,0.3035592632682689,0.2753607975094239,0.2713623327033581,0.24340998365077082,0.18056791803933647,0.16339290853711308,0.2073853379348911,0.2550099836614499,0.28470488645476477,0.22289386713786552,0.18905364175288142,0.2770083849468459,0.3917637307947808,0.39787490488611565,HB
0.0604616676146329,0.12143415414051206,0.19818906672611225,0.2987027520890696,0.4075849611209713,0.5168703697234248,0.6197153723845837,0.7253336531488367,0.8353679724362001,0.9240069272821813,0.8970631178683407,0.7978477309265634,0.6910964981177289,0.5832218907127918,0.4711640906399336,0.3681018158998989,0.2746352611637609,0.19868825470497564,0.14854453601283713,0.0916257251435092,0.03328062945798815,0.054071804904440524,0.11673115640544085,0.18853293291801265,0.2890233677434525,0.399648174498315,0.5104301934921708,0.6215056906924107,0.7321280700408949,0.8430849103793469,0.9520193261639746,0.9999999999999999,0.9201206267981191,0.8141483686619374,0.7060235079381904,0.5962485128988025,0.48862998487219056,0.38468604051481325,0.2835664396340253,0.21202523750308566,0.19368528996247913,0.13893936131544404,0.06584919918703636,0.053572966490357254,0.11313487386617649,0.18320278364453213,0.2770742425621323,0.38417634687668756,0.49348942557474096,0.6035409525556817,0.7147324196306039,0.8265310742608131,0.9352960163780749,0.9600881065562913,0.8733283426366326,0.7672327245904701,0.6568189370152254,0.5447178053630802,0.4378789735549681,0.33822979545732024,0.24129424885409134,0.16409310030571478,0.1652914338093262,0.13051735006610354,0.052964624454349685,0.0280147745579562,0.0827168923980165,0.14813058301388515,0.23705541149525156,0.3434441204464588,0.45265169006299966,0.5635161130302987,0.6743957860080615,0.7850456670952691,0.8964669744515038,0.9930270642323854,0.9818036409934431,0.8826684193887179,0.7753542404706776,0.6670851553765315,0.5578779544316809,0.4510300928497223,0.3474314231136998,0.2520716776967734,0.20731648627690513,0.18678169500175146,0.12209123055618265,0.04875911691469881,0.056021795241769645,0.11862680245885293,0.19229167988808837,0.2875118266600515,0.39449825075052514,0.5035826351370986,0.6147823196286012,0.7309808062056015,0.8428169648353404,0.9455110504197924,0.9631610438889232,0.87299895486582,0.7645511152351422,0.6544696238006115,0.554242929440614,0.4463448919088885,0.34062622876160653,0.24574766983518626,0.19185789510924878,0.18338914657627836,0.12385380282691327,0.04751604866820902,0.030887735699232532,0.08695452766171996,0.15309669842580453,0.2479200835962868,0.3530069031104356,0.4569210942505798,0.5514170453976933,0.6570313618044935,0.7678133689677819,0.8782829816966723,0.9626383921072984,0.9232732295672964,0.820326493403189,0.7126277979480157,0.6030237754990325,0.49389079556770554,0.3862135735528859,0.2927579837446198,0.2302663018163028,0.17779180863245314,0.09051688885949438,0.09778146514440944,0.18873963090919366,0.27466684422967236,0.3704203109731067,0.47418010163228297,0.5788917119740838,0.6788903407653727,0.7861328413558276,0.8461802238594734,0.7680736298414795,0.6575004679954229,0.546589606638766,0.43608835475053087,0.3279671721931444,0.22597128235453823,0.14187897055310839,0.0760700761579024,0.015515292013175475,0.0,0.06150463059815403,0.13315232696561463,0.16576702819563394,0.16316098243422317,0.23431972305870563,0.32946771855667556,0.43722443118584786,0.5495598906441767,0.6591416688450603,0.7667238754523454,0.8519235874305985,0.8055803383775261,0.696014417774551,0.5853693549984923,0.47572259533705863,0.3644653232677123,0.25521454156548506,0.1647686567701826,0.09538801239712502,0.03147523303931776,0.012958480619516988,0.07673535438789025,0.14993703804341185,0.17891155586870988,0.20534904719419844,0.29560614466099777,0.39408476718681074,0.4985615693126374,0.6061696928396673,0.715419120062592,0.8237965943878164,0.9151030966641734,0.8768775305090398,0.7683881687569661,0.6571258749046401,0.5456348533948282,0.43503654894606514,0.32665304140957263,0.22274482530259954,0.13563820632602164,0.07000897042663434,0.008478750089756182,0.0035662971855474623,0.07400200195481754,0.1346697622032741,0.1323068145155094,0.18481751511154465,0.2794457823095958,0.3792567152433405,0.4862704705415152,0.5948037726676864,0.7035739267941249,0.810441341638325,0.8924757010201937,0.8441243854472743,0.7347159839325811,0.6240446093078375,0.5105782029116083,0.3971520503324194,0.28947804051109804,0.19247290795136107,0.11707199405397295,0.0533675396012776,0.014038308241401398,0.06103974788552036,0.13596823893976262,0.17670864589965773,0.1857126363016467,0.2642892958241735,0.36140223086898493,0.4636584418692983,0.570632733989796,0.6798072980231898,0.7907727279704547,0.886845633716609,0.8583379040827849,0.7509784458066818,0.6399824831667472,0.52825499913409,0.41750358248744057,0.30921433684625643,0.20646721607467333,0.12333033238912405,0.059859408331752295,0.006767025081181877,0.019943537966831126,0.08465097782948339,0.1394844827448095,0.18904464900039686,0.2703575409872482,0.36802264558835096,0.4679078237965405,0.567399985165029,0.6748692773311592,0.7804397321662263,0.8543807991343318,0.7929630898277823,0.6798637911140731,0.5665771821765698,0.4563271099447389,0.34622568678099575,0.24043958521750375,0.14885837161651383,0.08244985554444695,0.01952519825308341,HB
0.3420778602464756,0.38874336174698865,0.4400778587530523,0.48648231338844594,0.509390110946836,0.5150911494265138,0.5547077067582538,0.6518324698445066,0.755032533179306,0.8571779206082102,0.9462750622810536,0.9383760636063059,0.8458751539278766,0.7420634476650791,0.6329549277289761,0.5273455336447741,0.41583477261566326,0.34863508387410036,0.3600319859908767,0.3391349706097335,0.28857549154593753,0.2815779196514572,0.33409038387214496,0.3597732506594298,0.3444304100153541,0.3288731249783514,0.35812313417418595,0.4097663715205315,0.4527679175711379,0.4686585869758102,0.466600153957331,0.49052467509848174,0.57255939329379,0.6729275103696795,0.7793816415538619,0.8799797714802882,0.9406669611775804,0.8826486609531408,0.7774640318209687,0.6729942869126031,0.5605135207687821,0.45677894068986236,0.359881904553927,0.3217724967430553,0.3309643444564867,0.2975238640545568,0.24659038993934201,0.26320643796412435,0.31236614718906,0.32731341939991543,0.3025852807947258,0.2828194175192369,0.3173363101952149,0.3688873067533329,0.41549451457083597,0.44712940483099395,0.46226201000259026,0.4963191144135326,0.5731587202906581,0.671798352726253,0.7782195901523279,0.8816648030027148,0.9660945040777174,0.9439908387297806,0.8478224720518521,0.7348443497368495,0.6212939558413715,0.5170340341401118,0.4092085058252781,0.3405802898803558,0.35567732766425664,0.3439148106654786,0.30479943539646603,0.2748357680211324,0.3213907848560389,0.36567219640480975,0.36456878189825304,0.33523269216406204,0.32638522549443705,0.3722368098989737,0.43067372507021195,0.47455268464174694,0.4927424679190726,0.5034784490568094,0.5471373374696484,0.6353124424769061,0.7371276028397729,0.8437190381931075,0.9464365196778797,1.0,0.9279708976386338,0.8245417973843572,0.7200075091343119,0.609857972844992,0.5033524777366734,0.3995090231870537,0.35105784714506383,0.3707464036999668,0.3507966777768594,0.29606811889290885,0.2732101074296742,0.3287758497473452,0.3717087715046108,0.35409331785294595,0.33070853185800697,0.35122633757694155,0.4010149052108116,0.4508383756261036,0.473675317069874,0.465154943846819,0.47481370847032656,0.5369516172649433,0.6324020342873031,0.7166752545858945,0.8161446884012591,0.9083427333115428,0.9168259312071099,0.8264736756888187,0.713130818776381,0.600774627771612,0.4967023472687693,0.38616629377855993,0.3016455419004198,0.280704676554703,0.27200462003700254,0.29526184957742174,0.3220442472508753,0.369733247566705,0.3954363093425757,0.3771376152198167,0.3332126780779152,0.32232924883321257,0.34257438190932543,0.31087273698945417,0.24746436109627412,0.14753578336635043,0.04187403225301889,0.0,0.02458932226385624,0.11968388336191982,0.21160543776065133,0.21765607051464597,0.23132803474753283,0.2146677816052005,0.22032740973984222,0.2988560838627996,0.4023788397015,0.5062725910336012,0.618244312819547,0.7051784057804285,0.6498007807136275,0.5493704189777775,0.4640288643670951,0.42124099814750027,0.4168933914722319,0.4164828845097279,0.3831484128436786,0.329276401484925,0.2856410940052112,0.27568078359017845,0.2974939217917205,0.30403002498598397,0.25255126566339214,0.21636379756028523,0.24631267993391281,0.30197384545930417,0.31233204016644,0.2665927488938036,0.29007797113149536,0.37738498307159674,0.47903093674184705,0.5883764803607554,0.6972922322311823,0.7828575578011843,0.73613643884643,0.6331514610157591,0.5303671983036256,0.4673637953566705,0.4574548612240723,0.44538106523470633,0.41962483991121013,0.37150342883802834,0.3135922341996644,0.2686193200254867,0.2765001376157632,0.31163689489158397,0.3136934873497448,0.25798237922753353,0.21444261604656178,0.24335013406951544,0.2916718776593421,0.29563710819415867,0.2581290480306544,0.3044137903814299,0.3996383964374308,0.5018252703450576,0.6145326968743632,0.7151782420788959,0.7049416760451694,0.6073700480570454,0.5155984410866186,0.44731352262451196,0.4163745221173061,0.4031426636242519,0.3718079787708244,0.32330518631287264,0.26957657845295424,0.23020132907749424,0.23937217596092708,0.26501471347031824,0.25988802347194273,0.20363369800246867,0.18731373723018185,0.23834112537432395,0.27564157094471664,0.25673659372500035,0.26163725095832113,0.3365940441690798,0.437217610387338,0.5420599676486395,0.6542447484659437,0.7301643873548453,0.6675225002225829,0.5559104995679522,0.4671355977791465,0.4199645781336443,0.4028734927909934,0.41121536607917397,0.39024376974840225,0.3507598189201193,0.30113458382671787,0.26957760455862934,0.2820783651277545,0.3059337258011987,0.28752596599049474,0.22823224147907695,0.20584923496160856,0.2503668695088028,0.29518529979766583,0.2791843795316242,0.2973125120074456,0.3770411331142003,0.4809498589925849,0.5848425882883137,0.6961845881144244,0.7471422574078916,0.6587311536193616,0.5607081156651006,0.4877420918540003,0.45407187362606516,0.44831205229053106,0.42825682633438866,0.3804662402953971,0.32909578018445007,0.2849318086118191,HB
0.5282012715743285,0.48139523037984455,0.3960813112208754,0.38591190852031465,0.43868106357751824,0.45433361584245713,0.4261725990437437,0.3836798476562233,0.3219652921861682,0.23221690154589814,0.12995558244890226,0.13953046325323237,0.24652811803248031,0.36608129155048985,0.49090094813306573,0.6117997243871818,0.7281467728413626,0.816187343551011,0.9291928475894791,1.0,0.9182117772771132,0.7981846915737125,0.6695914490295838,0.5482552587348435,0.4247251197611246,0.395081008112387,0.40943033530853823,0.3984278198175688,0.36900316188935633,0.39701899021871156,0.41893875855394747,0.4188190394119711,0.44099943918780227,0.49090762243746555,0.539382237268156,0.5627928770357151,0.5288254697453132,0.49023204807840237,0.42787132141182926,0.3419527985905928,0.2431172862226556,0.22365088929398969,0.324355107877798,0.4438751731920041,0.5677468636185958,0.6866015828293777,0.7954221837051989,0.9032790823714496,0.9790120085598812,0.9186278376604333,0.8186424387148206,0.6925377463973761,0.5702751872911564,0.45459801954559653,0.4372285616261844,0.4284188242374607,0.38841578401900057,0.35689380543701743,0.3915750351090246,0.4114057189762361,0.404786074359031,0.41712909661713793,0.46794846273404556,0.5194498363991737,0.5453658001300541,0.5337029833653997,0.4952363230177603,0.4464661035296138,0.3609449914873828,0.26816211274399304,0.27509497839512775,0.37950076828958945,0.5071982355183575,0.63496128233432,0.7409577375989986,0.8441495606819118,0.9348573910013096,0.8883515751987154,0.7712429334032294,0.6462286802471482,0.5235225783713,0.4514333886539377,0.4295627031898719,0.3711537368763649,0.3089922866592021,0.2640908813041345,0.27851895136485494,0.36128050246551346,0.4006130642473562,0.4041915446121416,0.4500161139438448,0.4833373610108973,0.49022081025192676,0.45158673754365175,0.412705400117813,0.34253070060013924,0.2451014360006165,0.1666190523996156,0.22203435175025676,0.3251987295084726,0.4283567834527102,0.5464690628848943,0.6598833429692483,0.7673715187815326,0.8884650197910404,0.9958513378360743,0.976850609398662,0.8632984815189837,0.7370533368995367,0.6144477031375368,0.4848687715606341,0.4184398605727617,0.42185941753645695,0.40920487626137003,0.3736556583639139,0.3959326410035162,0.4100316335848033,0.40374852191583654,0.41848733506192204,0.4779142791069111,0.5196445746201492,0.5253565216315463,0.5007616617152744,0.4713837488132411,0.4107707615228793,0.320363352401245,0.2329231872689017,0.13668932181464521,0.07313683282382089,0.0,0.00017694035503224015,0.09529774489691345,0.22037163751024424,0.3228728773558851,0.4057087199060736,0.44402941614279046,0.4683181415609954,0.45436984392976276,0.4038518245983709,0.3510548252126564,0.347426936201491,0.3478574846234528,0.33325808505252086,0.31322650646406647,0.3496091798904728,0.36093087044834826,0.2842511765161624,0.21173214980709032,0.2720939481811273,0.38853868101799316,0.5164858857555643,0.6282802047095228,0.5905347103911902,0.47180874299843234,0.35225393454983545,0.23697727234898291,0.1389252120365838,0.09741343493123678,0.15524978007302215,0.2568958405671675,0.3443964738455132,0.3957260119061128,0.43032655306784173,0.4188120012346457,0.39293206298876004,0.353638073639031,0.3251048268155823,0.29444646984139045,0.2207684283982525,0.20066520454649384,0.2327187601945111,0.2848383952702296,0.35231406078889105,0.3912380122117116,0.339841214540646,0.2775755963232571,0.3484104852594272,0.4669250890324932,0.591806165161278,0.6563321064645797,0.5670811256810886,0.4450171346501772,0.3292060341584242,0.22200014638378107,0.17293182201092572,0.2247936126283867,0.32735354469883404,0.41040014317083484,0.45171938829613767,0.490253256575627,0.47570808445574864,0.42374936417113807,0.37482868442602957,0.36265321609339374,0.366749805749917,0.3376028758358576,0.2958391588000002,0.301391533203641,0.361075663226067,0.3765657506153226,0.2953209362579061,0.22362631904662678,0.29136432357383324,0.41234170642688683,0.5445400668990774,0.6749876760564351,0.7264146840610879,0.6268344521832292,0.5061972881324417,0.38532154617596737,0.268018705337838,0.1619543117968094,0.11304798799161553,0.1710147770982844,0.27046222396504005,0.3670088956836053,0.43803825665639007,0.46961524941768173,0.5039992947193599,0.487625928952951,0.4338910163293819,0.3891697375022063,0.36849074949480887,0.367270041392707,0.3513189323847654,0.3170202398477424,0.32257275496046445,0.36134248626061316,0.3301958651036645,0.23035951626074436,0.18157130458136583,0.26439035378644915,0.38756528343626817,0.510153728904696,0.6377687035764734,0.7416384564718967,0.6799593566628861,0.5504967193527608,0.4294633784273678,0.30753132435945885,0.19021575476847907,0.0828775964475672,0.018612914563635563,0.0671505034315194,0.16309869825571255,0.25866088491327455,0.32999459178726864,0.3726251389427322,0.40529935604175416,0.3827759062392442,0.3233389882450637,0.2605072622246847,0.3006482795626173,0.40195012246166595,0.472032133394396,HB
0.7277796554917741,0.7247203862669549,0.6987921672397794,0.7525506165666327,0.7696006900178816,0.8184023843379875,0.8018904303884398,0.7925727645245564,0.8544626942840536,0.9038605539994906,0.7857496897635872,0.622542113416249,0.6254558706056579,0.7753148901083082,0.8019724018183134,0.7026890850720737,0.766276045033143,0.7743955156995139,0.6595314863089334,0.6072909208228947,0.6310594583463698,0.6394646644268618,0.6727835860422289,0.7120288356008446,0.7071025241500686,0.6937232078809537,0.6697550844206348,0.6850868608162042,0.7660175275285193,0.7027491260642451,0.5413776675486259,0.4116688175542773,0.4975360917446703,0.6498773211859965,0.7302734565753886,0.6764496695763489,0.585459859321924,0.5887709221900899,0.6185469007220146,0.6032238273520547,0.6897487544057355,0.7201726707180613,0.7848890723445061,0.7314441822216353,0.6841445489541389,0.7709523414024364,0.8328824491056483,0.9262555664515624,0.8584068722179095,0.7040151681436648,0.5483995188301676,0.5471006072780744,0.6918388478206547,0.7805271223913879,0.7237674785757675,0.6305316556134373,0.5914151866159623,0.7040039582967959,0.7945802198868348,0.8221867970192624,0.8961053183454326,0.8696647297089859,0.8531902332946921,0.8213400396794532,0.891835094606312,0.9502870320790882,1.0,0.89855201383762,0.7344601933190513,0.6439230525628705,0.7587442682519026,0.8959428162027594,0.9180187246784413,0.8271301904144015,0.7359480921418928,0.7483190188565567,0.7943511590162746,0.8264815027464274,0.8948410064873258,0.8487105519383085,0.7986612319516095,0.8120715381955494,0.8526737535519633,0.7873947172929072,0.6924588988506333,0.7648196233160314,0.7791562716857201,0.6872963140802422,0.6055343983542336,0.5537253728397702,0.5922687562287092,0.6516577109246993,0.6985014636508096,0.6813709902008385,0.647699699568121,0.6679365504258246,0.7428462325650407,0.8242346618716359,0.8889236026970488,0.8001006656414096,0.6618711203599843,0.6817988109949913,0.7375788725517496,0.721236395232276,0.6602296949127981,0.6310635034741736,0.6687159497464066,0.6405838402613799,0.6076183222242717,0.6270366135629706,0.5896297231736245,0.498124897909213,0.3441794983255204,0.2067533252165834,0.24668567426336763,0.40571140080231194,0.49559330402053936,0.39491498907861544,0.23764574567961327,0.19314385224428277,0.3041015366012756,0.45226489628357536,0.44250985635924955,0.28294805587188376,0.1883892926203874,0.24207914103588912,0.4006484881094834,0.46127121901949497,0.4863962918817011,0.5634907114107914,0.6232435541267947,0.5530195864200129,0.3912585370285746,0.21959421057998973,0.104307942216054,0.18959381516775897,0.36313997817121324,0.5291840346490431,0.6799090500481788,0.6649252233615703,0.590067821464479,0.514242005631643,0.531996317138109,0.5285341151900593,0.474907579342692,0.4567755340903381,0.412751887027087,0.3968031001169581,0.4922816202352913,0.5932376260951355,0.6281639783705248,0.5050667838322198,0.33538291779178087,0.23430984655394482,0.3275915818107342,0.4876712621735133,0.6523985377231485,0.7499598203679216,0.7056161351213284,0.6555318987436483,0.6866056206845021,0.7057292133811797,0.6713516458953146,0.6764618017427027,0.6226753918686012,0.5712775161979979,0.6530586177883091,0.7378461558478038,0.7964106960430377,0.7005374182225137,0.5388983329241186,0.3706302827476122,0.19826259513973765,0.04320995794305427,0.04482569294625138,0.19997628251281085,0.3747636917706756,0.5415420853662227,0.717444774204318,0.8550656840238373,0.8326236304930106,0.75129705518858,0.6952909373521425,0.7331381386538145,0.7679496480427486,0.703189955811935,0.6224038649306389,0.5811614125775075,0.470093792823262,0.4573912269437548,0.5581398768041512,0.6539000475153709,0.6606913900114821,0.5155138779553758,0.3480390927662995,0.1770916546475183,0.02257413708242373,0.0,0.14498498658177228,0.3125480154668434,0.48552026350371014,0.6521861331904706,0.7835934414467673,0.7259746259852564,0.639224614229656,0.5656992032711523,0.527134842020923,0.5759800720343837,0.5584876662699587,0.5034061574103017,0.4687942599348154,0.4711848897337054,0.399844857474029,0.4044172158543611,0.5007801709587056,0.5936103259687404,0.5407519626620374,0.3853152455780178,0.22097007828985626,0.06833402004482281,0.06953610852364944,0.22146663667802047,0.387697665145569,0.5423937997244872,0.5526477194388693,0.49830721761480046,0.546958558932439,0.5373477316682891,0.5716958908638419,0.5813597701235653,0.5506273542575286,0.5112571199517126,0.4885723376633453,0.44887662294208,0.4768913554352894,0.5143105987134771,0.6206612607241246,0.5962109672538793,0.5532591934837066,0.42315539595415963,0.25609742969566884,0.12155422253141213,0.17246449534827324,0.33714055313790636,0.5016544581421498,0.6443804994052456,0.6442650120177467,0.6427049231677016,0.6170527644107002,0.6463829320510048,0.5872165374521323,0.6070194807189306,0.566938245700896,0.568081375143981,0.5554881985602482,HB
0.3967054639175558,0.40252261618363994,0.3844205231369182,0.342254278595687,0.341796034331312,0.38947576374587145,0.415963127999158,0.4339767981093101,0.4423945492094776,0.479940779821201,0.5658263233626641,0.6696912438851852,0.7711767490127657,0.8791527794537966,0.9732798429376222,0.9805626536551975,0.8819888551569393,0.7794497854665177,0.6709197575309171,0.5581658204492292,0.44735702362919394,0.4047327809598875,0.4461217205858783,0.4478444776753281,0.4526604096986655,0.49869462660144714,0.562009533699563,0.5342581192731091,0.4645218915481233,0.4408035334011964,0.47001101605080464,0.4810201218873509,0.4840147684064986,0.491267642212982,0.47974358678854845,0.4467073363726337,0.4347174750605003,0.46179670645469173,0.49226719406026564,0.49427297797044867,0.46675188182679905,0.43691451425950945,0.47086314009628216,0.5662883979413325,0.6770005398921835,0.7894180453969315,0.8912392369193363,0.9393644149765357,0.8662050908520653,0.7549693402277358,0.6515689916545888,0.5440152197881711,0.43489667792591646,0.4043328645199895,0.43015430476599326,0.42872822286412937,0.4237348223687061,0.4427209115649333,0.4536827502050911,0.38811993027432656,0.3379984421635931,0.3516858099020457,0.37336432741373304,0.396075971685629,0.41043850737138055,0.39913454793699454,0.363689305055245,0.35435152139572823,0.39571448912651697,0.4234059437854598,0.4328342753427816,0.4453834622042585,0.49921439472530293,0.5951279377533041,0.6947375431135292,0.8035963420256849,0.9051550400967492,1.0,0.9938260476504586,0.8976354103716222,0.792601626862047,0.6800493747241338,0.5716392164472732,0.47373850665096917,0.4459226602059969,0.448271396130445,0.4584235291771872,0.5007019266763026,0.5484545917468986,0.5050426678646787,0.44939398527017493,0.4352986550417772,0.4592214032741504,0.4558554745296104,0.45422011072600776,0.42298537220185795,0.3830527445470939,0.345184339151706,0.311864047825134,0.33401039622030915,0.3570033219329778,0.3668262980424344,0.38280260696328083,0.43008318940851353,0.5187661434625013,0.6230675137553363,0.7253930806878213,0.8339601294423762,0.9380822265560416,0.9966609644975901,0.9279221616996591,0.8160487936743377,0.7092743892359423,0.6051929384071753,0.49270933222185764,0.38235340537630336,0.34758462843312676,0.4055594169416943,0.40459726710146526,0.39931244795570553,0.4453863653354544,0.5055481807254458,0.4721515708373656,0.40771478218937585,0.38683190577024495,0.4144351052648658,0.4137957584547429,0.43489110277655385,0.441115050252348,0.4454286330372863,0.4047644909886188,0.3708968045758154,0.38679488039650867,0.3834061650009284,0.3690104337889326,0.3542494571765835,0.31017963734279386,0.3132944770281174,0.3726187039864386,0.41167544400257183,0.3673180835282768,0.33334998559197304,0.3346980084006206,0.2964610867238262,0.20382994371249508,0.09908633537966383,0.010947390551256486,0.03346701757422066,0.1371739407310928,0.23965307331073848,0.3517247068526217,0.46350487151532427,0.5200458782408246,0.44710806468445075,0.3691477615224037,0.3259595552751944,0.3150553191987191,0.3109168376910554,0.2870247413712086,0.258707029309019,0.2731100016822934,0.31681977130755046,0.3521747903582031,0.39377864429483544,0.4007930908368209,0.3987575802687666,0.36326178068341397,0.3489641825479999,0.40977409434478584,0.44646951766725795,0.41176076862764033,0.3967019235430054,0.38330522212140083,0.36100196206317925,0.2696491871728428,0.16768834050597015,0.07163771187489543,0.08898210078632962,0.18675690650074595,0.2850870382022399,0.3814756080730253,0.4829495583162653,0.564793297886141,0.5151597253665878,0.43475163994395194,0.3876628394248045,0.3812587123071176,0.3711978396022837,0.3608010271899773,0.3329889474472103,0.29798015740596373,0.3045907796476981,0.34638855449758355,0.3566092851899003,0.3430475541833773,0.3218789926364445,0.29024226957779264,0.2521665371497055,0.2898654148660147,0.3541918280079721,0.3709163139664349,0.36045553336774727,0.3720977785677979,0.3529868386726851,0.27468833146730853,0.16941594758301592,0.06874984251272798,0.0,0.052795846098117494,0.15324731998732855,0.261138490294174,0.3738171872669862,0.46972117282642945,0.4428543016221913,0.37358783020671815,0.381582980774148,0.42063236924535374,0.43901318857798355,0.41992991924731715,0.3831705939042207,0.35624788523890727,0.3875206766844408,0.4249498159749563,0.4330199978185285,0.42745122219608334,0.4249997841928823,0.3972131701476682,0.34618275266777143,0.36910040311329784,0.427887697903941,0.4512920415930801,0.4076626133612402,0.38658637168180876,0.3899597070898517,0.3513693867552852,0.2536843956005539,0.14703033217677897,0.05189589808421502,0.03957047660815194,0.13341209332938675,0.24598621376872165,0.35877359179201074,0.47092495823222746,0.5373397167743503,0.4752879722328087,0.4068584726191853,0.3748650698023961,0.3692130663581823,0.36198440746798477,0.3260764193115633,0.28797178816959335,0.2841537126457503,0.3221659099752956,0.3420751732430385,0.3365670378201622,HB
0.8184444893883529,0.7412108399724104,0.6378111755149023,0.5301471405533578,0.4322928747514254,0.3445939151131685,0.3196263564875166,0.3295518468121523,0.32185364185385046,0.30072588314719617,0.2559508915792268,0.26066281494458576,0.29946749749083,0.29038573457009553,0.2594162780920444,0.23490726031590792,0.2552167021983853,0.2757063346484636,0.2774669624409376,0.2736222113521043,0.30569438836997587,0.39297721933247054,0.4855937765490448,0.5804478597733285,0.6837135388278988,0.7829384568334614,0.8600023743330274,0.8200460394021576,0.7208508250520178,0.617136041072436,0.5178023312206164,0.4184071644724545,0.3139272708558736,0.23829700244412955,0.27179242493428224,0.2977662592072947,0.2983915011537728,0.2823438733119543,0.25762371380433513,0.27564341169048756,0.29754055634359844,0.26222683442567485,0.20840399569497836,0.19217001065793538,0.2148274356527442,0.21093905803378155,0.22546773231848038,0.24676210840328072,0.32274110572822456,0.4169209948867105,0.5204866045650762,0.620244171405929,0.7239089788458046,0.7922639505114004,0.7430567706279585,0.643186180261166,0.5483809477398078,0.4549735092306526,0.3542618151083614,0.2530747614627107,0.2093323064771513,0.2751438038217806,0.3380109376349012,0.4051448089932945,0.48339256265680364,0.5505053209139232,0.5863268238829713,0.5583676215633253,0.5375283823663599,0.542549328002452,0.5072420887593445,0.46097193208469545,0.4415954355688845,0.4590377882579362,0.4618237669922869,0.45361215393589926,0.47300948935611453,0.5512776666483248,0.6543367036133971,0.7543803897547758,0.8303076932841638,0.8041738422832978,0.7143330113792858,0.6100948338165195,0.5102615175026299,0.4248850514434115,0.4265336773427286,0.4318814447438397,0.41506835042019086,0.3849981793408275,0.33963149573861395,0.3570870600974805,0.3691235988043524,0.3380030474516347,0.29984144695159,0.2854581991111489,0.30986475078460285,0.3371688311757839,0.34678797053687127,0.36844038239149857,0.4424828207930469,0.5406543766690848,0.6439728238075628,0.7430498021325511,0.8421558506524676,0.9438068715635968,1.0,0.9383847253882229,0.8357639278236113,0.734027517037052,0.6315940214881008,0.533967735233758,0.4383730531230148,0.35702182149713546,0.3609691112247433,0.3675914843809287,0.3655707996194064,0.35333690734511203,0.31647289972109904,0.33184124701335915,0.36329492412180797,0.3558798018170748,0.31656379521472,0.3035058068164407,0.33235126831773787,0.3210722062567499,0.2461344990025458,0.15776082823325743,0.057753058475628505,0.002945558047866781,0.05993894862450122,0.13989109547833678,0.11378569769221447,0.025552649552649243,0.007722428980842411,0.08338342393409826,0.11984747561447984,0.040700167495953954,0.0,0.057275051075715844,0.15666954889690232,0.20136370286191285,0.181315137519384,0.15985614595111608,0.1962634608251097,0.21325320605483644,0.22669420831339648,0.21171237563922252,0.1569605051254983,0.16485531769678485,0.2565005272095717,0.35601737576585,0.45637489117462593,0.5510069889980875,0.650059314271636,0.6715227295431805,0.5838713479404638,0.47989952611211306,0.3801110966627528,0.28458384152224503,0.20725296672447024,0.16836694613438175,0.1695830148180697,0.15283419598201942,0.12364533215135332,0.14306049777396623,0.18379252644275335,0.21589817724780125,0.1916915890103419,0.20687389443910598,0.2520611154202945,0.27498670343440756,0.2748429676834152,0.22662545836006576,0.2142036861357437,0.29960388800415405,0.3896759085070567,0.4835943833547103,0.5872485606018785,0.6892384843028498,0.7481357733892202,0.6808656969317357,0.5758143052960425,0.475943200874668,0.389960656876148,0.3091518508902218,0.2809732478214517,0.28909690057575355,0.28987156967385097,0.27358677680401344,0.29735474532396267,0.3475352966715972,0.38274871582352965,0.38710814436594276,0.41361500100172366,0.4510779408671257,0.4111713269478834,0.3382169955454557,0.265115925132813,0.1923827614104543,0.1344893271094436,0.10519097138270794,0.16640474901250468,0.26657210129105424,0.3661140537378018,0.4637704524247077,0.47040045509707396,0.3791929738401425,0.2900870860310407,0.19084420895550291,0.10150269161599534,0.0535747066199439,0.04603074549521047,0.03818295716417808,0.04489664618883915,0.017095564996389534,0.041118367974616765,0.09977329068818852,0.1358968848717621,0.12675671129819954,0.10610021138558934,0.13912564089006207,0.14799370933214906,0.15427838859760246,0.14342033707633517,0.09795447108505395,0.13080309545666924,0.2275537069306659,0.3322441062549577,0.43340471793850277,0.5138706750194664,0.4826320456808517,0.39245741959127445,0.2933909721171122,0.2010614390397718,0.12763126660954538,0.1022451713729291,0.1012631971668887,0.09786843572494175,0.07343388240004023,0.08576063903547859,0.12531932163685533,0.1492796212626668,0.1144037591622169,0.10011198381471154,0.1353792667769278,0.16886217547784343,0.18281009415437177,0.1720818409472864,0.11970218775255126,0.15085396839101572,0.2505013625352046,0.3553902442575718,0.4475869040753202,0.53653130373328,HB
0.2534683020279873,0.2419387470165011,0.21374859720710404,0.21090719939429814,0.22497649434980072,0.2366932419513066,0.2531689503386727,0.2546174103766048,0.23653287086627883,0.2223348288942235,0.21520902382295115,0.22196877767437173,0.2499667687376883,0.31818531064858924,0.39605678506713926,0.4778899913330832,0.5588141506821136,0.6415389870634669,0.7252097446165353,0.8102326819258299,0.8736026474377965,0.8428775496973444,0.7612891960730199,0.6806842491241081,0.5988088024040767,0.5160975411820379,0.43557758534131596,0.35076660847387253,0.27809508806082617,0.26581580970027807,0.2780348339845562,0.28697595142154264,0.29035437333258507,0.3033567595100084,0.32641570426871547,0.34764475644181947,0.3703752885445668,0.40102923990127626,0.4146265768454802,0.4104846459708813,0.406614834348636,0.41672707364993555,0.431316511677003,0.4903393364635311,0.5651622620563319,0.6445317299709863,0.726335146849941,0.8091203524161348,0.896021390687707,0.9740080674324012,0.9999999999999998,0.9303643658080978,0.8523159039066137,0.7728125589276578,0.6896979347247456,0.6071526181216733,0.5272040244540654,0.48230500257191156,0.49355167223276486,0.4939177661314258,0.49375917603481656,0.4872127084243034,0.4992991129076747,0.5130505216130856,0.5290593849217047,0.5407238828572394,0.5382754201804192,0.5214588076449014,0.4899207161594512,0.45992343242673805,0.437219987527383,0.4257736030966843,0.48190264286695483,0.5577822837998114,0.6381787785313897,0.7228032304873071,0.807038933573917,0.8898334609430958,0.9733701279503697,0.9836553129921806,0.9133362497773667,0.8338990467005922,0.7497829481617868,0.6689356798133825,0.5817628683758038,0.5011994300013345,0.42062023923675773,0.3821424746147781,0.3589980091424838,0.3379033003477028,0.3134573211904321,0.28287801386140776,0.27740910338242597,0.2916465588889594,0.28113627784784856,0.28012376857837706,0.2969278183735302,0.28317677994242363,0.26018797919811076,0.23532116900303568,0.21727312502121587,0.22978475408430032,0.28846237247179896,0.3642243032763943,0.44598508030572304,0.5199877086240041,0.5938082233884223,0.682081140637371,0.7711542280642807,0.8538364196037913,0.8926396388131386,0.8358352964596059,0.7557234145630989,0.6891005688353695,0.6115970661827477,0.5261450870315054,0.44280311456941335,0.36039296274866084,0.28236388014974145,0.24351415455493797,0.25069260781176395,0.2573538899014567,0.23914054042776,0.23856785424939964,0.25945767766242755,0.2780131031063393,0.3032898149916139,0.32062588243161927,0.3059923151277508,0.2972313894711094,0.2741047146192428,0.25414446139162505,0.23981040870190684,0.19342964631052495,0.11166295367612666,0.02968108005551784,0.0,0.03202279449200107,0.11393629184086063,0.1916568338593836,0.19605089222224925,0.12153807724965682,0.037733497777138414,4.9769913178510095e-05,0.018429341903542396,0.09263166347932406,0.17643692089278673,0.2168773410997613,0.24474472034419037,0.26494740262304206,0.2781013206297811,0.25512757178084056,0.2359957632119729,0.22038320930426702,0.19838136644096926,0.18654270056517652,0.20950822191532192,0.21238247227089957,0.20798130793124203,0.20251690483606044,0.2444962556548831,0.3220647142141029,0.4061366525863004,0.48697050731756053,0.5504245894413928,0.5065939404408282,0.4346078244901326,0.36447983070655554,0.28541039043851746,0.21466749834771903,0.17415924185969955,0.17566086636947853,0.19170167965647278,0.21481501801249592,0.241649878437719,0.2525294286807853,0.23601184098367245,0.22989488359057275,0.23914710262125816,0.22737771546082275,0.2438608584319295,0.2749802162745658,0.2974717677474983,0.3222971117955944,0.33291287849149254,0.3821616096134026,0.4599248476525639,0.5405792143540091,0.6244639391481674,0.649291199455863,0.5814550606696127,0.4958149631904434,0.42229390830874336,0.37202830479393123,0.3802952645716986,0.40755458952115275,0.4330932909346983,0.46812778899947083,0.49383041707066533,0.5033672474114474,0.4956087854688904,0.47525033856417154,0.45760292775529643,0.44301887817984764,0.4387835945286229,0.447119727355038,0.4515350973629644,0.4450810384557149,0.42624392282588475,0.46602993755569266,0.5414670148413612,0.6232565780341883,0.6873559791506845,0.6521164087707867,0.5655807130164143,0.4848709868912351,0.42097000796091444,0.3864856524540996,0.3743937167342446,0.364916758426276,0.373659698859524,0.3741865492476213,0.35251951862028275,0.3229216788591682,0.3038362366154741,0.28400164338366474,0.261457931495936,0.24823655286148782,0.24741534799894338,0.2404193106710253,0.21812690819117964,0.19638301094368593,0.24324100379263047,0.3199504987136541,0.4040603890936978,0.48509705279289217,0.5631003422089209,0.5513629231275001,0.4660745199084422,0.37904175243386784,0.30149612118007774,0.23222825286764692,0.18657463591695933,0.1727750255288314,0.1745188143364591,0.183122530048492,0.2042927663320946,0.21767387953326667,0.19886956354448437,0.19728354673134318,0.18285216312883423,0.16470156789618406,0.16249872817117494,0.19621771992763715,0.21314660090736748,HB
0.27804503439030626,0.21056052741229436,0.15964861267205865,0.18768173117228049,0.25128813903726677,0.28724624726312653,0.3266744007390616,0.4072127845944422,0.5115115176742799,0.6188392974996897,0.7262280256632891,0.8377167698559114,0.9410725940043259,0.9642402944469359,0.8972438347955807,0.8499517007849984,0.7705189369961181,0.6696776864378986,0.5631699481131665,0.4569630470646402,0.37701566321088187,0.3452203286645381,0.3193459338591178,0.28479149808043314,0.28692815795699067,0.33250621629026167,0.3348140415341381,0.3046469196364372,0.23909633595624147,0.16870792566520265,0.1123773756958868,0.13813966689156,0.19508926165910045,0.23971632495811912,0.2798308840743138,0.35854656930724493,0.4585761935980974,0.5644980723961743,0.6731715462223415,0.7791920143045425,0.8818071223001072,0.9228301029790322,0.8751593401436715,0.8304126669988738,0.7431572871155709,0.642786280205816,0.5393343179341388,0.44542486846348606,0.3961874352065271,0.3825151748779754,0.353300574604285,0.33191475168661677,0.35851765572510264,0.38256240450002776,0.3621638753491472,0.2908393518496264,0.21953394827694384,0.16191623644597497,0.1807045393487825,0.24060288636394533,0.29461320425564974,0.33215917595495226,0.3950495998639214,0.48981669239708747,0.5959217341193588,0.7032680690907425,0.810562098035378,0.91556223537714,0.9949782550214366,0.9621657927942513,0.8820498268679691,0.8163830910591208,0.7214457180251861,0.6170190389130372,0.509767388996544,0.4206400339776799,0.3804767566393701,0.37269553325399096,0.33512814681238146,0.282539664861555,0.26678374435387964,0.29509660219009026,0.316582301197291,0.33576116763823594,0.32728039834002365,0.2738073691586158,0.2027444450449316,0.1460948909523525,0.1654789736278568,0.23105685989418667,0.2884667121362616,0.32136520549527425,0.38106315705606786,0.48092499034413505,0.5862593729269308,0.694921307814873,0.8039699383558903,0.9109657203483628,1.0,0.9881487745205288,0.9066651542872384,0.8400415061912851,0.7435877873156582,0.6412343614016422,0.5371100395952912,0.4360330210987793,0.36971656336318626,0.3738528792122522,0.40998403719808296,0.3968464801247875,0.36016670969315934,0.29122834809777975,0.21604866093519304,0.16751598147585245,0.20392622010131456,0.2695585246981147,0.3117532378674861,0.3508096888531278,0.42820074989351475,0.5309713929905553,0.6382441887219925,0.7456101922502092,0.8548674569155574,0.9457395527575692,0.9168364942439928,0.8180946134950426,0.7129743283535137,0.6030292837406876,0.4857575461637462,0.38603312485386665,0.3108410368974548,0.23635953958059996,0.12262813896054947,0.022306448843609328,0.0034789610615368893,0.06829455619181601,0.1851204059226843,0.24231342816270152,0.1604492205668855,0.047249619051686675,0.0,0.02908953106321288,0.12486201716470857,0.1410442603429174,0.1133845997413565,0.15289002179491185,0.2231579215177555,0.29447527685270947,0.3437538606721664,0.36300831289582947,0.3248090096152687,0.312468201124811,0.3412102409990627,0.4254077272200436,0.5293031017910823,0.642243509536188,0.7441030926014474,0.8114583241570306,0.8785736903843633,0.8553946036410798,0.7398713690205545,0.6295723137819458,0.5222416415597522,0.41781143066175463,0.3263767597149516,0.2736257004748728,0.24207609721612577,0.18683253288450352,0.11883623525168163,0.08809006875776548,0.12365974232274679,0.18712075401407358,0.2591759781205152,0.2911593610267089,0.2771719461652915,0.25170777733096283,0.22365954209450933,0.22035167920799736,0.2620537759587003,0.31451221790164485,0.329496816028759,0.3455009683843473,0.3996824750626984,0.49491718009370933,0.6062895569064959,0.7182408423486892,0.7961099400229186,0.8519140095075315,0.8505346176206938,0.7511017110816876,0.6444114214075798,0.5358884298156923,0.43283766328735407,0.3462458698493247,0.2900737367204016,0.252300348545472,0.1982268021261917,0.1384937108932882,0.11072685516993541,0.1489394006771696,0.21854965893106604,0.2936111175157774,0.3368548718071822,0.3181656936866646,0.28573243302018847,0.2841085444009783,0.3215782707685131,0.344639057243632,0.358398508617074,0.399070226002745,0.4940447740127194,0.5988619125018007,0.7045998869419767,0.7678975856059402,0.8107833434165195,0.7841912007201612,0.6804710361235737,0.563395722353282,0.45551937607401616,0.3532054185069069,0.26670467641117757,0.21866409127753483,0.1820055156569622,0.12614411566315997,0.07001996633867957,0.06168815510533232,0.11295056174689533,0.18219279681380307,0.25187198377072706,0.2904991731276869,0.2810448128338954,0.22966674519007313,0.22756197514910914,0.26668599158870876,0.296594322747862,0.31758696012470145,0.3683543293396232,0.4611364911524687,0.5674508085207579,0.6742720359584351,0.7634358701788964,0.8053710425921885,0.8568574362397028,0.7908216046594587,0.6851578176370268,0.5756511287257586,0.4567918442228853,0.3558742510873367,0.2828843358013997,0.2493271528838239,0.20995362888726676,0.1487375566760294,0.104164757599011,0.12579974432172447,0.1837336307662727,HB
0.5421193218226024,0.5051384557034924,0.454701018128711,0.3811748950362621,0.33890004356697645,0.3784618808549802,0.4475316891087342,0.5088430476142265,0.5501600213153681,0.567216236539883,0.5967332502516975,0.606121295199594,0.6511194428879303,0.7647210853807205,0.8814809999023878,0.9615170688855836,0.8995567242862728,0.783010080836593,0.6649238654262266,0.6181543556999012,0.6401176836097591,0.6425860416819997,0.6201300779776413,0.5844798782503511,0.5358665263967839,0.5080820552836189,0.4857276099307022,0.4711095616105463,0.4739309787593742,0.42325217532470916,0.385871439411134,0.4165833610273397,0.417242899511161,0.45247537678627525,0.48368477637253227,0.5304488558556373,0.5773929634610449,0.5859326634656057,0.6692019532131237,0.7820768282133885,0.8938744712185476,0.9406577752518568,0.8533420730224313,0.7352449717648515,0.621359100049971,0.5879695585838864,0.630155310779446,0.6040100048388344,0.5759433708307613,0.5406591315644111,0.5575883340405743,0.5896035857467181,0.5861172849987173,0.6025622784331244,0.6148554661689904,0.568249334038331,0.5153893571477135,0.4664538390987407,0.4850803835841968,0.5530880194858301,0.6173065468155658,0.6638912074079939,0.6690065755360735,0.623014382081164,0.6090090820427809,0.6236033105279688,0.7028957290503901,0.8171770420641731,0.9338962654137393,1.0,0.9192131916475521,0.7993446947218921,0.6799299061418345,0.5815949387826658,0.5857681868645952,0.6383497552850996,0.626778915074441,0.5778501009322179,0.5500981917050387,0.5256839874628607,0.5644563998279732,0.5853642181794525,0.5667808561939416,0.5202284655034322,0.4661321425065936,0.40737598687403187,0.3664875030763479,0.38226588521891847,0.4044906819462164,0.4579683088671298,0.5209119875493982,0.5777844199380682,0.5986508587063661,0.5880139778559692,0.5734970306733045,0.6519488909895155,0.7667599287077991,0.8800272439554595,0.9401527194326214,0.8722933857310333,0.7537685161073324,0.6304283987901824,0.5640328508740278,0.6120611082917677,0.5890278244068008,0.5504693277350099,0.5377242541970206,0.5197836140211134,0.5366033767700666,0.5147705214734475,0.47537211598634244,0.450098266625675,0.39775199617892154,0.3282411906176028,0.2504411460138014,0.18224128235823223,0.15787751755514146,0.2016727687373927,0.3208814160015856,0.3664145642571026,0.34288173065186234,0.2332438416031959,0.14755603627231473,0.21484827103349158,0.3316904006960315,0.3658232701214388,0.32088021650872367,0.2011799980148048,0.15908758610223916,0.2399527994356312,0.34109848826495126,0.38332685103318687,0.4059819772810358,0.3256189050434455,0.2202569148804927,0.092273210359747,0.007481475836157436,0.0117807882927643,0.06327035368314426,0.04210095107452805,0.008384779759526229,0.030182734841095904,0.031024111405663746,0.0,0.021255478981411446,0.07544950835180941,0.0928144073222188,0.1325254472025974,0.21297763135869108,0.2853377224565765,0.35202373336800097,0.3962110534182903,0.4236538862299226,0.46394877685834324,0.448230922063535,0.4564538870829167,0.47876056426414015,0.5098353501288213,0.4938055684912901,0.39245849117299825,0.3415050439660212,0.4272991610065522,0.5387589136656952,0.6168968415207283,0.5665921530972473,0.5021767040323057,0.5004608342296728,0.5309862803317809,0.49672438599192326,0.4378913019899664,0.376279837776917,0.3183981369648796,0.3088798507820507,0.29091683422554215,0.32891017569434267,0.38568377689709754,0.44463818482985573,0.49159444985779865,0.5069239010117066,0.4934702770491999,0.4657311272694704,0.4821521154242365,0.5192003894114103,0.5583571276932817,0.5367095816058942,0.4336482736795584,0.33563192267461117,0.3355541388025096,0.4401362899328136,0.5570630309715909,0.6386080697925829,0.5889270881763333,0.5309367541624326,0.5217851701028251,0.555800338819409,0.5867679629111029,0.554738752989338,0.4951950538517673,0.43054650773062475,0.3817486858812651,0.38854612299930436,0.45644358644746363,0.5089378668431426,0.5421848493171018,0.5205044913729453,0.5119370288644549,0.4919797947279059,0.4683254311001632,0.48265245956487224,0.5191723269181527,0.5218465929675467,0.4341309732313121,0.34408610386697314,0.3797979962499687,0.4861316574382126,0.5940212595996188,0.6066038792043673,0.5318397955349994,0.5085255499646126,0.4816628024548786,0.4379772187852238,0.4052704794513442,0.358212329005156,0.3397318952058548,0.3071857461037988,0.3084098564747997,0.36506059559883264,0.40947516721753363,0.4119003776816723,0.42849275273048937,0.4346384890087007,0.46920023988173565,0.5132135683389629,0.5370033515050454,0.5681692329383519,0.5524769951698985,0.46922840089618756,0.3820971286227377,0.41377126265052633,0.5214733540904688,0.6257473767049078,0.603860674988606,0.5223005597076114,0.5207628133604514,0.5094902319475509,0.4901617304257444,0.47568541451186475,0.4246205586425962,0.3673631915930131,0.30080015380226044,0.2697880146812497,0.29913666943462447,0.36516321323328294,0.4270551244029521,0.462737779830376,HB
0.8251522210761246,0.7064947814944627,0.693691448616526,0.8284133639977074,0.9277815657206978,0.8675991057425319,0.7822373984024811,0.6735398110531414,0.5350628885579938,0.42361005680207864,0.476223461082832,0.6061682725953359,0.6965099163136466,0.6944334386732041,0.7411811447139609,0.8355056870207545,0.884597019319556,0.8857921533029729,0.8839211341770903,0.8094004191435094,0.6715775793905121,0.6415248117856156,0.7793134325504965,0.9259379611328136,1.0,0.9042093641036417,0.7975850113545326,0.6950036561426445,0.5605802476818513,0.44868401584675377,0.5045344029329768,0.6267215894671088,0.6817692106174813,0.7080006607984948,0.7929265166723054,0.8550244154289195,0.8813302252430462,0.8866508803561337,0.8469710551235079,0.7250092833341806,0.6586963177890293,0.7820986997591373,0.9278667025408769,0.9965487809919922,0.8991114428831315,0.7987575621013918,0.685014204860813,0.549396044264018,0.4621715468982148,0.5315864326005535,0.6531123456739816,0.6933171205744157,0.7097450973601656,0.7863637750468166,0.8407738255580921,0.8567318880943438,0.8761759423634818,0.8670497827893104,0.7602158777881711,0.6157055859899563,0.5397170967238045,0.6579560850693,0.7887627523556602,0.870127801364728,0.806808438922912,0.7113683367908559,0.5865045247833067,0.4623090904756064,0.47656553834152904,0.592630160086165,0.6629106272086749,0.6683228485363286,0.7312052967538745,0.7979542031631062,0.8371737993337294,0.8510931241893531,0.8486049207569963,0.7512660555587138,0.6013051488483185,0.4487642303314119,0.3377465542215705,0.42509916467601316,0.5800326030795016,0.7305517820696137,0.8352969227755644,0.7900138020670999,0.693055353637912,0.566136122616292,0.45353306313593844,0.4843375346773171,0.600855736367691,0.6595588162660762,0.6850084689963745,0.7181149622635874,0.7938884164665283,0.8407269098710684,0.8473948662745845,0.8682876049814374,0.8442121348160647,0.7103875804780331,0.5711318334139772,0.5121494253971988,0.6334389312370261,0.7864575776949918,0.8530553268109404,0.7863916564646418,0.6861446285185191,0.562229189874389,0.47839005290763437,0.558188197474335,0.685167811581374,0.746059570325853,0.7487030132019439,0.8076477266696398,0.8813519442899613,0.8782931627779571,0.8065023075674116,0.8084838716679337,0.7813315538640784,0.7684712807672742,0.6754848015264492,0.607620999165138,0.5896158838384986,0.5156086253872014,0.38977988303210154,0.3278882330240793,0.4208279331845648,0.5444063803661319,0.6596050027010802,0.7329502991161787,0.6513272756476636,0.49703625953660335,0.34403011204869793,0.18778103169131688,0.04838492951143847,0.04712258207229203,0.1885357251040638,0.3417428057909695,0.49504196545832846,0.636886810955787,0.7427109381760659,0.7326889768611453,0.6804559061617721,0.6785987424237274,0.6135598640406221,0.5225734699065652,0.5022442670089498,0.5346219975370001,0.5349457753126452,0.4649733551009634,0.3479230866854004,0.3008165897896906,0.39045546962414557,0.5169299400550882,0.6335702310370634,0.6243891318112826,0.5323642832556748,0.3834212655842264,0.2300072597537075,0.08329755415921025,0.0,0.09427080934228527,0.251648485998309,0.4081271492877301,0.5597524622672392,0.6916936412596706,0.7512135889877105,0.731254072190914,0.7163348229628337,0.6934861583083101,0.6336296757609778,0.5786620746574065,0.5687955440956958,0.475450501673115,0.3726840796130788,0.3739377517362592,0.48502344221099136,0.621878655611845,0.7197496233383882,0.6917669049906441,0.5511458498103377,0.40072141531083627,0.25596799558088446,0.20428008459912217,0.3225174809650202,0.47317834746094833,0.6238317010593732,0.7592934920830783,0.811883413716529,0.8061162964147837,0.776018188981936,0.695340461919014,0.6390961011653102,0.6090559133306988,0.4967876983054569,0.3838414366855911,0.3895344399120675,0.506078005643813,0.6398306552474682,0.7522999455049186,0.7832805182572598,0.6607765701096748,0.5031328178714243,0.3520360347778353,0.21742391464845578,0.22812706108109948,0.3685760618295908,0.5223354388257166,0.6735046604011106,0.7979716580915235,0.8279686278316136,0.8076284991364395,0.7646377682707688,0.6738154161693948,0.6147475402482012,0.615988040461954,0.5449508007314283,0.4203239225216504,0.3390123409776904,0.4031467479750819,0.5280833286910243,0.6615288608018708,0.7647067673957313,0.7716901519650898,0.6375720848159627,0.4826893803519541,0.32883111413794897,0.18517812680940549,0.17257374470920928,0.30664718847171724,0.4579399126736594,0.6186770359464502,0.7658688835004188,0.8299481650190743,0.8181331874916844,0.8075834070391461,0.7408663544910064,0.6563020141240519,0.644425370946895,0.582309961015604,0.45572446135412115,0.34798299213152095,0.36314523797584997,0.48421240841092583,0.6240678910648358,0.7429729988306715,0.7663578334709276,0.6428910950995985,0.49101510034002116,0.335724356836661,0.19556501145248895,0.20038813912633158,0.34178509048403605,0.49372332763565385,0.632329950393745,HB
0.5513536957874319,0.5707778935707903,0.5760720350427979,0.5238116781160471,0.4817112273189208,0.45507233506887257,0.5003251693691353,0.5129585462531985,0.5550766433655223,0.6050464905997841,0.6455982327433607,0.5965371300088762,0.5356886735636244,0.4761916241744295,0.42036703609197446,0.42692672146216015,0.4545802031803188,0.49350556650693367,0.5035099523621125,0.5371415513323847,0.6535975376063647,0.7687291102994087,0.8903250297590279,0.9851945401515074,0.9693561289084682,0.8594033143039455,0.7319193810551194,0.6122014772355868,0.49815764586280586,0.41157439698878884,0.4198071043378153,0.4520773136012286,0.4832229174549223,0.5000882080586182,0.4746163556264853,0.4577007616309281,0.43322505510995324,0.42853627625965496,0.48196901540862847,0.5403669985660136,0.561901972819653,0.5401819511913772,0.49182500976046306,0.4475623333881802,0.4339965463866715,0.4557558358820333,0.49269504736505,0.5205219407852422,0.5276454752746136,0.6158482557592686,0.7418911262651458,0.8633117790531171,0.9054588668489929,0.8220492774829005,0.7045595642292324,0.5875873669969853,0.4814474959735797,0.43947726969199685,0.4670371262719386,0.49686564615877193,0.5329648520628729,0.5669768283363901,0.5673266061993432,0.5669362317725652,0.6157887910238489,0.6678347661176671,0.6982088268899216,0.7231321216050373,0.6995274667053337,0.6546803051817132,0.614012449661661,0.567371896892769,0.5662755237215795,0.6126500335483316,0.6737057489089273,0.7307422961757921,0.711066478596563,0.6404443516616642,0.5740708716740777,0.5401548103622118,0.5462745014727437,0.5534395372496248,0.5487532497929157,0.5641644990498191,0.5330330011148443,0.5600731156434873,0.6694519157774774,0.7965082527327638,0.9227956731769265,1.0,0.941180321523384,0.8268695006474203,0.7074676170513485,0.5985375746705719,0.5077020922824138,0.49317035894810957,0.5182996960940254,0.5303314274532034,0.5743639038786483,0.6066649844636709,0.580656468436576,0.5764752170067151,0.563950190793225,0.5572946251153739,0.5353604030371293,0.5200785361870812,0.4631265714118298,0.4222713672391687,0.3629493591231805,0.3454364758018169,0.37025699707873994,0.4732801357231131,0.593930463230036,0.7081094783747588,0.8299526284958723,0.9193353846697301,0.8884851553546396,0.7751467322028622,0.6588093144305072,0.5319356207131807,0.4314776203901518,0.4194336098815863,0.4265501313015889,0.3976981313505519,0.4252157596034958,0.45298224108240204,0.4960029289206953,0.5094174020354485,0.442795285811342,0.39981007957687753,0.35449278382352256,0.27368898361996363,0.14892849850087053,0.03683162204963608,0.0,0.031244077875357767,0.13900442494458742,0.262022426659104,0.3000383963767952,0.1999866711431828,0.0758272089302312,0.005599514142733408,0.0072213075513984926,0.07287142465253016,0.19677743925152846,0.3123176091489879,0.3602160212617096,0.3465255349766174,0.3842123095936154,0.4816130797404772,0.541331154601882,0.450070512546064,0.33959408612166264,0.27269003397809044,0.27690256655268675,0.2735834406713775,0.32788749274160933,0.3825526670032775,0.4321246727811512,0.4643865239660889,0.46483909429472314,0.4846193505326397,0.49450041322709737,0.4966584280869597,0.5073738609273897,0.48431184074800715,0.44968267267650397,0.4241114371498105,0.38635503503245827,0.33721972314207305,0.3896439046573126,0.48942530901325254,0.5867793165104254,0.5969951393505033,0.4922537224530634,0.3800210783501363,0.34824719582773156,0.42468009711531085,0.4730382060890479,0.44546796300836,0.4547955972122075,0.46254435142082695,0.4830046607701064,0.542183323795665,0.6110706583032459,0.6586482977103683,0.610235074472361,0.5506880288708964,0.5074990301499689,0.4920435944576056,0.5265545424137175,0.5740338021200313,0.6154897427391988,0.6456021123797395,0.6283940098648406,0.5916516730025938,0.5280882169941172,0.4814295247160758,0.495393624692015,0.5029985612131371,0.4648086723182905,0.42699104575238467,0.4063594023337682,0.36886147846337547,0.3157729588560487,0.3657961006386996,0.45980336952220124,0.5064803673337548,0.4205820436968972,0.37806033331594024,0.426289178211543,0.4219928574971141,0.3869535653835401,0.3589934394196286,0.35718470814998327,0.40598142915087143,0.4535280568114195,0.4882207810946251,0.4658420298138677,0.4051673150725543,0.352403049708093,0.3469312599927359,0.3825846182237407,0.4000183675167901,0.4140014343884677,0.4244664020508697,0.4012457973886474,0.3605431183862846,0.31148563640503824,0.28958649572742745,0.3726454494633744,0.48434233283923867,0.5913449033495466,0.5897095839539706,0.4803001114058776,0.406604291506941,0.4249613838119193,0.4099982785467571,0.3807647332418962,0.3610493380808202,0.3345804117024014,0.3780012248006046,0.4482948334321497,0.5027831874250657,0.545881810901939,0.5076073736680438,0.4403188717503772,0.4135851248398481,0.37630692013987277,0.3670482886266604,0.41182225599321987,0.45061809008341314,0.49058425213507295,0.5064250328622446,0.4731218075169168,HB
0.9602806991724326,0.9158589676797504,0.8879028237767252,0.8412275477927038,0.8030119290381654,0.8246260471092819,0.8545486130686066,0.8687597892391759,0.8874813180758416,0.8916710273617572,0.9147084156977392,0.942269334063021,0.9319104588601117,0.9054508709333129,0.8997223202013147,0.9027799459963244,0.9424300635037748,0.9585642719389591,0.8703671545391216,0.7617118183148925,0.6562944778822499,0.6690793308532157,0.7704369131479487,0.8694438287090887,0.9479971969109025,0.9349161138990276,0.9021617503779151,0.8626425997134632,0.8221998741255383,0.8168266867674381,0.8517134816785383,0.867822372465888,0.878446709081701,0.889064370800938,0.894671917778642,0.9161716248768854,0.9246155013152062,0.9073192195068465,0.90099982639542,0.9062158214145464,0.9395845006125476,0.9650812523542396,0.8833569774553578,0.77946955510875,0.6650123118345308,0.5827351201823106,0.6503128928054178,0.7540773261843128,0.8568586794554942,0.9470817960538074,0.963178104688146,0.9110751830468147,0.8765511664760017,0.8269303927552951,0.7916031587720644,0.8255578177195819,0.8609732071595528,0.8708438713748066,0.8800342516589208,0.8873379596799571,0.9002080826369487,0.9352467826123931,0.9640861423795999,0.9482769471459387,0.9300938667856806,0.925260370423836,0.9150486729539324,0.8822581737377202,0.7928920590749777,0.6888728965970332,0.5769675424923573,0.47149656447736965,0.491689559331552,0.6021300210459419,0.705019786984675,0.8072422268520867,0.911701744254336,0.9999999999999998,0.9930909382333917,0.9292157469954521,0.8900148450878242,0.8409004166342282,0.8032667499126467,0.8239846655847713,0.8606577243878217,0.8729406722502653,0.8985066410674245,0.8970058194895156,0.905077391325561,0.9388091163972387,0.9562426409598628,0.9410966281084516,0.9184029946892986,0.9132633483512829,0.9206458445718779,0.9256556060074754,0.8584246651018679,0.7490400467533995,0.6336980670653956,0.567334863458447,0.6503346757099833,0.7533631973326476,0.8536034647720616,0.9480774371733343,0.9849952290580808,0.9333057568571526,0.9133715920667214,0.8719490940602277,0.8281351559525121,0.83289876292803,0.8729852076604223,0.8945229573561699,0.9060204493128639,0.9032214092206401,0.8511398370153993,0.7914746164968574,0.8137296893786481,0.8528227181189834,0.84077899598445,0.8310603284250477,0.794304952236655,0.7528567463173446,0.7709371951267963,0.8179541662138117,0.8592845466820782,0.8689564902088633,0.8034724803553981,0.7011775313741471,0.5969004183221418,0.48492294250097534,0.38034207107184126,0.26580103465251814,0.1584202157039647,0.0790453933385864,0.12143075105747192,0.2321039720903033,0.3382376725595131,0.44905708309622105,0.5631672901478149,0.667518438013224,0.7788606896920867,0.8476881149497284,0.8477587892370229,0.8588937921472264,0.863472024001551,0.8900070168090657,0.8965604495769155,0.8625860475535287,0.8443667576870182,0.8453247123270782,0.8397876389222418,0.813312272021719,0.7915016066244067,0.7534258211755771,0.7405326029464809,0.7760225404630454,0.8261512002978246,0.8643296216798746,0.8758241723091784,0.7907375278418096,0.6760057639755128,0.56957293353026,0.45908350409125975,0.3440577787714536,0.23912339389826065,0.12669323355024953,0.019441556713916786,0.0,0.08680498955435945,0.19897089920607636,0.30692421980256346,0.4157295210897398,0.531381143000315,0.6389675971840931,0.7474051546106903,0.8354191766165064,0.8762204184609723,0.8752099291134219,0.8845734457120138,0.9059728291329312,0.8955097693468994,0.8558468949119844,0.8358107624212934,0.8221986721654095,0.8197125677475243,0.7964927654418481,0.7456949420025898,0.7424641756003194,0.7814012732984288,0.8311628471033086,0.861139577314191,0.8348859404588402,0.7378840363340402,0.6345778521421173,0.5246444067393179,0.4196801828504453,0.3058240262378116,0.2012143317672228,0.08894466723104988,0.011183840942810663,0.06631241779111563,0.16966108127087187,0.2846780489826266,0.39994674589169876,0.505163990433535,0.6171780402752807,0.7322179777924245,0.8255203109710594,0.85777731886324,0.8526441699726821,0.8590844625093383,0.8743710262072037,0.8689104247148027,0.8489599463078241,0.8464922290735599,0.8406150592490758,0.8184599430230086,0.8068381781798466,0.7680603861446398,0.7402042165839344,0.7757162192213201,0.8186856610242976,0.855925140910575,0.8638097006962602,0.7846634360806186,0.6808448838828587,0.5709206889526344,0.4659092605753006,0.3514767075749192,0.24602174164556545,0.135993542140876,0.06951478000962674,0.11140665069187006,0.2019681798551276,0.3168055258678597,0.4313884347471453,0.5358385670836483,0.6492899598537025,0.7639648638163183,0.8415000949437099,0.8518954961222935,0.8538701979960683,0.870360620433708,0.8865468360223552,0.8599285417786227,0.8378024666077446,0.8351948873870592,0.8172270653059541,0.8071619941059256,0.7781522149086155,0.7394395881142717,0.7478318142288327,0.7947756797988028,0.8425229960656224,0.8562548233434237,HB
