0,1,2,3,4,5,6,7,8,9,10,11,12,13,14,15,16,17,18,19,20,21,22,23,24,25,26,27,28,29,30,31,32,33,34,35,36,37,38,39,40,41,42,43,44,45,46,47,48,49,50,51,52,53,54,55,56,57,58,59,60,61,62,63,64,65,66,67,68,69,70,71,72,73,74,75,76,77,78,79,80,81,82,83,84,85,86,87,88,89,90,91,92,93,94,95,96,97,98,99,100,101,102,103,104,105,106,107,108,109,110,111,112,113,114,115,116,117,118,119,120,121,122,123,124,125,126,127,128,129,130,131,132,133,134,135,136,137,138,139,140,141,142,143,144,145,146,147,148,149,150,151,152,153,154,155,156,157,158,159,160,161,162,163,164,165,166,167,168,169,170,171,172,173,174,175,176,177,178,179,180,181,182,183,184,185,186,187,188,189,190,191,192,193,194,195,196,197,198,199,200,201,202,203,204,205,206,207,208,209,210,211,212,213,214,215,216,217,218,219,220,221,222,223,224,225,226,227,228,229,230,231,232,233,234,235,236,237,238,239,240,241,242,243,244,245,246,247,248,249,250,251,252,253,254,Target
0.9874552878909899,0.9571996129145197,0.9144578455560803,0.8819839039765878,0.876156285292264,0.8673114524915797,0.8476996863870387,0.7816697878485215,0.6773373509980996,0.560655822140347,0.4393123727877293,0.31446760810310526,0.20432187937004898,0.21290681353036245,0.32169771953798953,0.44127757693638703,0.5599311371838036,0.6764365780900148,0.7847474682646127,0.8458827448053676,0.8474177357195662,0.8647466530868573,0.8357132125653912,0.7843223007827689,0.8136686959163213,0.847417582418204,0.856388925469969,0.8480759397503319,0.8377210794225207,0.855546772221258,0.9193309423497134,0.9900817702129117,1.0,0.9615011877521358,0.9320175884368034,0.9152191642473526,0.9105144642012539,0.9215821969430711,0.9061259243850714,0.8661332515558868,0.781431886831145,0.6706676179122457,0.5500466235695884,0.4241927049591987,0.2999034217165977,0.24642769420984445,0.3276667225945915,0.44367890552070177,0.5674509823793756,0.6847932219336466,0.7969413805035281,0.8881200049052889,0.9015885682662801,0.9177854196673505,0.9029892222948774,0.8383604714051924,0.7788017077563829,0.8081969586838516,0.8409433333935774,0.8589900120896026,0.8708440694998676,0.8532136446040002,0.8496087202156168,0.8972095220395944,0.9422798016229028,0.954019664866169,0.9337478598277502,0.8964516388613433,0.8768241912670889,0.8762779835356631,0.8733584435641513,0.8321661845379764,0.7448381879291031,0.6318525449599277,0.5111547132874383,0.38717052181878264,0.3182925535232184,0.38833176000981684,0.5044235425154122,0.6254819469735939,0.7345960305294104,0.8358259414165228,0.8748795597341017,0.8730827432811066,0.8446075671164506,0.781644281903128,0.7738725804590945,0.8221548149001019,0.8349575484913392,0.8211873581407994,0.8304693079736136,0.8393713680109869,0.8830752621667703,0.9498496137227712,0.9708961326086736,0.953959522226842,0.9236144478346033,0.8878528912141936,0.8764403311556981,0.877397407490601,0.8762161523647065,0.8136944117103262,0.7141236721146256,0.5948570240585576,0.4734702478070494,0.35356030575041153,0.22814666863894484,0.18736300877698264,0.28032452863738744,0.4077932195912406,0.5286380920991784,0.6527939669000249,0.7610457211357384,0.856999037973702,0.8843178328758428,0.8734118013168235,0.8483820163803397,0.7925435082364474,0.7874222477338075,0.8274376231357938,0.8483382952370397,0.85651758127519,0.8536257856604665,0.8236442567204532,0.8028123761505395,0.7903325567802684,0.7831493780627197,0.7450890208310721,0.6932598254835756,0.7066639139666764,0.7770996252267182,0.817746047528698,0.8141339933019163,0.7424726211470443,0.6325513475103968,0.509571538613538,0.3890731400935019,0.26215052519309134,0.14879594934874563,0.06628249298832145,0.0,0.053835971262165216,0.16951575677593045,0.2998607499145365,0.4187626602703909,0.5423445687487907,0.6595673844809924,0.7655879521027935,0.8240873036145788,0.8281582046866918,0.8183634591237379,0.8399437015395823,0.8754298027191294,0.9065588909309166,0.9054610491804604,0.8486285291248268,0.793014196561018,0.7749857935914855,0.7731838886540046,0.7708553265361195,0.778269937086423,0.7516094625888767,0.6906659477703609,0.6745792047736336,0.7398677855949152,0.8007493740961911,0.8166251452669373,0.7804370093420125,0.6785558592618872,0.5641001660331839,0.4451512517851146,0.34745098471481217,0.2368616684468723,0.15400810055032554,0.08567854684005205,0.10907190871327366,0.19827351780114366,0.31487525526498805,0.4428823850129544,0.562276050739511,0.6802586995770832,0.779515590957391,0.8257263159706967,0.8291258913300297,0.8300271805536874,0.8482019314500664,0.8826583686660681,0.9002791965565771,0.8621102073885858,0.8112453409765648,0.7910167129967096,0.8038623100758708,0.8083541313156717,0.7886314309575755,0.7726783926212173,0.7242257612430976,0.6854759489987612,0.731076623670972,0.8093444433551111,0.8284116840372269,0.8004130707788821,0.6991157560384709,0.5811053672778232,0.4643400228223671,0.3635638879564591,0.25653830069397054,0.14892615547856813,0.09732457594035626,0.13591762428811816,0.24703347233869266,0.3688917873487396,0.4906300308355247,0.6156355170558285,0.7306572342548745,0.8167781268928431,0.8455218283297063,0.8404597761811492,0.8483968504199315,0.8666030050324753,0.8745202229457862,0.87933887222807,0.9090543462067187,0.8628254232357913,0.7956076440071063,0.7723339949839096,0.7847328643147553,0.7832541647878921,0.7940159493973953,0.7850651378804354,0.7352876786508382,0.6979769897652992,0.7488080055068025,0.78827236501597,0.777915381807659,0.7064643854880641,0.5967084052756833,0.4823744891043704,0.3769487875677986,0.26914117991571285,0.1515844704757625,0.06500174436073891,0.036145242901543195,0.11626955104923598,0.2348351088696785,0.3610545571616468,0.48643503020832846,0.6057758991288655,0.7161051506229947,0.7959090936969955,0.8109074146268549,0.8130934010502981,0.8262171905712665,0.8529511781761872,0.8916368729501092,0.9290240133156362,HB
0.9247839821454651,0.9335902633883144,0.9597311914840221,0.9215519315253862,0.8863066273286551,0.8611139488258779,0.8881922852371087,0.9300042211876485,0.9530937140158424,0.9443585086477371,0.9195799566397311,0.8921431039456551,0.8972887812116328,0.8835820492581719,0.8329445982547288,0.7574066284186065,0.6578126124498258,0.5549817984361272,0.44979070992110803,0.3423608727467906,0.24821935688655894,0.2802106593619045,0.3856232615941806,0.49794032801276367,0.6045832261291766,0.7126570238145327,0.8209260406294092,0.9182113442974509,0.930058801960107,0.8600254462271142,0.8295820523686595,0.7887954721559227,0.7914478715168478,0.8430778419834728,0.8826836344660784,0.9040390321248162,0.9237381508374138,0.9486114198005726,0.9528237024528909,0.9539279740417177,0.9097041522629823,0.8985995455305344,0.886257173446213,0.9070398006587617,0.9539955060269834,0.9749399390075961,0.9693670435296622,0.9563343996476492,0.9535835425945369,0.9695887706778681,0.9483764661654512,0.8870854931637999,0.7987344644373318,0.6952542388711445,0.5813077907403168,0.4749542282812529,0.36642119531736395,0.26850758328524194,0.27815214107670805,0.38557278520095073,0.5014180915080508,0.6096720196816579,0.720700605303664,0.8337777119581249,0.9367147840305816,1.0,0.9557817813768037,0.9004355063248388,0.8635436186016867,0.8127619286664252,0.8464471498119996,0.8653412245239722,0.8754553789243871,0.8991034203951438,0.8891670132899239,0.8955505205869607,0.8908999087411194,0.8811202560746927,0.8514533525680639,0.8416986615822277,0.871989521915232,0.8953928903882122,0.9272305478285094,0.9034991725757795,0.8937108397678282,0.9281082458793035,0.9253178180646207,0.8906316378099572,0.8643593885395005,0.7855895680289109,0.6863792137571614,0.5846084765721098,0.47739743043451255,0.3703209770724185,0.2688244244685891,0.27977357292611327,0.38594455469443356,0.49958214292435366,0.605923611146229,0.7183772280168648,0.8226079482091699,0.9217169518882811,0.9455071442576317,0.8789392001271894,0.8506980710289929,0.8189676265079293,0.8107831091116293,0.8387336807167078,0.8699781882179112,0.911365407800917,0.8937245904406161,0.901636945424785,0.9088197004009326,0.8775132421168101,0.8567794215233864,0.8532002530604612,0.8922226241920721,0.9160645849033133,0.9535737722967887,0.9526929157189383,0.9557028163806165,0.997405664871553,0.9711857180121317,0.9343494663176424,0.9081382691880928,0.8482573196685128,0.820614899451499,0.8696045109926311,0.8600345224409174,0.861183702628967,0.8867141945873902,0.8662214506802255,0.8294990524457964,0.7872132951822617,0.7782239566916278,0.8195751658458579,0.8108871497581158,0.8176900428572309,0.8170750894397107,0.8288239292519481,0.7927543050181107,0.7804674806630243,0.74182707976912,0.690028101070483,0.7157221993723408,0.7681889534505095,0.7841784536149263,0.7892630747560259,0.7303028796033151,0.6154893853646892,0.5035763275924314,0.39605684774445593,0.28257255564435213,0.1770412534500052,0.07346196053415333,0.0,0.042418011057298255,0.1499900673720873,0.25643542849993306,0.3623051867889957,0.4761473202684152,0.591292728282909,0.6930160961625389,0.7795881608748005,0.807943742907824,0.8130366474506578,0.8495591212219629,0.8130200566455037,0.8135960580098471,0.8229693341863182,0.83304362383786,0.805615315864634,0.7809082883855751,0.7567751715936266,0.7644267348244411,0.7491732107434022,0.8006641456023607,0.8109963492946588,0.8081120245756903,0.8281945310578487,0.8030711364019623,0.7663177272678761,0.7689299405781034,0.7436675087927784,0.7578946096462023,0.8041388501110371,0.8331595246749766,0.8087240172657979,0.7087474722908587,0.593321147620304,0.48484815844676454,0.3740910386421836,0.2620702376786648,0.16213763690117933,0.09154678920789294,0.13818490277133932,0.2496976847177661,0.3556431887373468,0.46252346223234175,0.5715647658741101,0.6765945022220632,0.7766267222228276,0.8511287072919571,0.8740529773222616,0.8603680637224507,0.8888909750571723,0.8935536999323275,0.8921182076141547,0.8856517259262038,0.8525558854109883,0.8101194167289592,0.8225307414405112,0.832206514702738,0.8307934730378519,0.8663301901462961,0.8677496054743048,0.8395819275464231,0.8206521798395663,0.7830070653237908,0.7439755647748636,0.6988280592966452,0.7323031052594953,0.765325511720532,0.7437087191825782,0.7941141022924834,0.7483779835317543,0.6422712896954286,0.5312647932727173,0.42349544743125045,0.3132435655016501,0.2073246054464255,0.10278061580538878,0.037064355954704586,0.09236698475979943,0.19487841808156303,0.3023406509555957,0.41025096174410813,0.5249804758521386,0.6304018732657757,0.7260550323426709,0.7921084078927656,0.8138447538549074,0.7964343671383243,0.8016654781558157,0.8360496334989609,0.8028369665314727,0.837531266583587,0.863800465803513,0.8245142090367739,0.7904544999144334,0.8079146932757069,0.8153901206246341,0.8046048406516122,0.8303553208658525,0.8168091081348239,HB
0.8297762600483907,0.7494254492336032,0.6592615213634985,0.5765182139421636,0.5346979323940197,0.5210745724751722,0.5513273459590917,0.5819102513190093,0.6094556369920032,0.6364656136009055,0.6477161976427044,0.6523092912730366,0.616285135823261,0.5641076759480432,0.5159576006413946,0.49217321679487336,0.531652004189505,0.5679843996499234,0.5863426225210797,0.5978989558557455,0.6583024991846433,0.6885972471693393,0.6201875367371068,0.5266764699328137,0.42468820167237253,0.36643379054423786,0.44163978700562634,0.537659859333159,0.6286658597568571,0.7056842381461701,0.7376335357843651,0.6713432748781427,0.6269988390320247,0.6113554265592955,0.6078485715519144,0.6246643419420628,0.6405451473532136,0.643620362351375,0.670382793219884,0.6901092622105258,0.6910371844509733,0.6572423290879312,0.6066104899770033,0.5876150873154358,0.6349400475882541,0.6886149896017439,0.7325897272891821,0.7680019795120288,0.8191835496041056,0.8917303182459011,0.9250451017260137,0.858923422740649,0.764927675876919,0.6705409235636051,0.6781400613147177,0.7690325059714529,0.8693519182410374,0.9599295954312628,1.0,0.9392801540897207,0.8830506525566242,0.8446759403907413,0.8032141962037533,0.779835796130175,0.7369793620396115,0.6997550196737774,0.723371673561136,0.7722184405322254,0.7562509298972993,0.6753448240288686,0.5962909590981287,0.5330643004182543,0.492329387027566,0.4486139934754052,0.40840597400248657,0.4355618807917112,0.4959149683564277,0.5527657716681289,0.591013668940449,0.6165284980178365,0.6754145475365738,0.746350553398385,0.7347368943012085,0.646268770264566,0.5505874528148045,0.4504256576810244,0.4293277054059854,0.5202182731571803,0.6152873040469391,0.7058242541917834,0.7247799823416949,0.6511931672204629,0.5933881850963854,0.5616890796771856,0.548868465270151,0.5747276097470935,0.5911618989210066,0.6008549493433986,0.6167563705779742,0.6119013097063339,0.5807906505821165,0.5311771113948702,0.4797891031196613,0.47484922402467045,0.5231805942549763,0.5739247145119251,0.6063776022673646,0.6302332205272232,0.6896121692311166,0.7286393240425753,0.6685898571189766,0.5752808912329477,0.47295961302917244,0.40560982467249485,0.4659932455615692,0.562617804975396,0.6630260195814546,0.7491485603820314,0.7520989891981555,0.6777956789311825,0.6308086372435748,0.5902089653241447,0.5497827560866209,0.5805107980243558,0.6103460902886755,0.5886311586500379,0.4923819735006445,0.3971151794179819,0.2969087529770018,0.20106733785157993,0.1005984585729982,0.012783281058549756,0.0,0.0817741171360773,0.184617437534915,0.28662358961603074,0.3823082170201306,0.4848044272993315,0.5744378014836342,0.5960660063227792,0.5757892911212807,0.5468238228477733,0.4986613081820219,0.44560953610697274,0.4173473328050743,0.44953683759793295,0.49981910326832435,0.5516828663101552,0.5813595671344003,0.5767492187305807,0.5627434211869669,0.5473724189153715,0.5233511709208925,0.49699064799292647,0.5195493484007421,0.5518728340085359,0.5724901504689122,0.511228813586972,0.4153467532661401,0.31963158267137803,0.22245561223670518,0.13101999960272726,0.09438819047337543,0.16518614872232562,0.26823564943515943,0.37302770244327,0.47766081953661765,0.5758536072894072,0.645107935216152,0.6099993111521349,0.566254139829617,0.5428700618085349,0.4987459971363599,0.43503641492073086,0.3798017718429221,0.3674909901869374,0.4074080376408926,0.4559049669388844,0.48922406839959587,0.5504335877314057,0.6296724859161253,0.7077962478292568,0.7051268638862473,0.6623874109950099,0.6652728197403381,0.7091300063129742,0.7468573551519095,0.7667738726647317,0.815876802241708,0.8509863290264414,0.8308144036452343,0.7344518002980056,0.6374978428937483,0.5380777765301255,0.4423791129057033,0.3440917607165437,0.25667127372609433,0.24995176553277565,0.3363953630723828,0.44044947476564733,0.5424810853526294,0.6381367511086187,0.7387282699209852,0.8115585158783021,0.78197772363119,0.7363795459861602,0.7002957269064449,0.6537023889254625,0.5997369410949771,0.5504283099572143,0.5363067539068389,0.5822997914708181,0.6345425378477239,0.650902920006097,0.6387088463792572,0.6084110588086591,0.5940707470211217,0.5949237697390002,0.5750415105893767,0.5532646075993237,0.5623341608861199,0.586666711138272,0.5618385396397745,0.474276196667216,0.37465672045017406,0.27665421224689046,0.17788552193401608,0.08078725374606055,0.006186854010016285,0.033744577626880545,0.12953525253902565,0.2294590345072458,0.32661232873867263,0.4306708607191212,0.5267616836341928,0.5820963699275143,0.553079977777228,0.54138959491122,0.5226301533764586,0.48489180424053013,0.4518697941205245,0.47257637408441333,0.5192894850412566,0.5713829341246366,0.6074307209514349,0.6068433453718773,0.5950105247385644,0.5693137605716996,0.542182989399365,0.5083788310102966,0.470381753262735,0.471121544260511,0.5107655562074656,0.5627201380224016,0.6332420046523595,HB
0.7823147352046869,0.852465797976766,0.9013128820116512,0.903391797414038,0.8904931741107198,0.8934862497049574,0.8717721952693234,0.7430782986287179,0.5886657068981842,0.4319588267819894,0.4033427011121864,0.5345489764025428,0.6539735521004779,0.7084999301792863,0.7284386419002491,0.707091642777514,0.692293434896257,0.724778100564551,0.6996375003353039,0.7137969268393567,0.7122959549344445,0.6704118969766055,0.6533503360312718,0.7077895142816741,0.7953328037054979,0.9065922017467454,0.9486925933468404,0.9554693649807922,0.9416481168182225,0.9312734419118742,0.9385458351339526,0.8046280880062024,0.6485930562294682,0.5726208596061593,0.6553934292639267,0.7478247911579086,0.7593360420384485,0.7179595437390729,0.7202720097904249,0.6934241406968686,0.7631645209331834,0.8614990184294999,0.9205313252412157,0.9064293809109305,0.9167127947351466,0.9424052074537013,1.0,0.954172673163221,0.8002187689266371,0.6279842423467761,0.4926612900674252,0.5225537082333309,0.6412345504597159,0.7201546992126397,0.7484027938710103,0.7142816586977423,0.6912940538205987,0.6578458203105599,0.7142499642496611,0.8115811205667303,0.879591685753363,0.9043232361676488,0.90664649303117,0.9115140867022218,0.942241382940308,0.8179959630754627,0.6325934990835513,0.4616686006869779,0.38422009470477914,0.49710482467695094,0.6127550894791831,0.7163036690028406,0.7605002290539051,0.7396362773934646,0.7670613051160409,0.7246158375620357,0.6737667620884542,0.7020440232186003,0.7820037417107262,0.8567987539997892,0.8561160540365744,0.8750096343997793,0.9013791545664143,0.9487749304095923,0.8774917499014823,0.7329639414056457,0.5704274909483464,0.43246255905265496,0.5083388439460217,0.6449116640925707,0.7153831010157692,0.7340254434401672,0.7277852777796774,0.7455464421331417,0.745483507378701,0.7710665426357854,0.7247513207396272,0.6811457974205162,0.7561050244644205,0.8691819875300775,0.9429213381873023,0.9483276040566828,0.9056485921139714,0.9157503975617249,0.9550541166106132,0.8897950915131103,0.7457173490631233,0.5949804237506688,0.538969763460126,0.6329288159664319,0.6708145070194451,0.7325712728778706,0.7672518217098183,0.7776889549312989,0.7138082386182845,0.6678614156700595,0.6498028456556053,0.6900019382913118,0.7858056874519956,0.8535273693465122,0.8881612639805043,0.8010477859004652,0.7428040001830869,0.6907580784300285,0.5956520011655284,0.5310974949210499,0.5377599734873169,0.5593455699707981,0.6090371021335752,0.6483309202741872,0.6439025828747917,0.5858216690686415,0.5268954560235208,0.42389718015330935,0.2924637257625893,0.15929567140318124,0.18565290681262336,0.3363153548511377,0.49668264771124626,0.6543539815312336,0.7911697148451298,0.7862664377473241,0.7555672513230007,0.779893712642048,0.82553802210652,0.7553789403212976,0.6331820271554065,0.548707841574438,0.5688007979776861,0.633076013558358,0.6415584406767776,0.6310712044617963,0.6233715831566125,0.6405897885555545,0.6137602637481328,0.5283401502309477,0.36818775853211605,0.2234744017847765,0.1338668232613518,0.2221904256146079,0.3829934365230949,0.5492072087715592,0.710430469823045,0.8054867919654995,0.7535065109613344,0.7658920484833454,0.7434871220511399,0.7430766172422913,0.6730552983796736,0.5865915918642619,0.5590620812821347,0.5868703331173935,0.5935474606572715,0.6192862241862844,0.6077581351632633,0.5007616631429945,0.3860816089221242,0.2327670771568826,0.08945656407056202,0.06551965203613452,0.21747052043316284,0.38027650505784916,0.5459568446475949,0.7005805777189442,0.7860000150919708,0.7968759480950638,0.7884968296531687,0.760682030670857,0.6947525141140192,0.6065635027247875,0.5049951727558311,0.46856139704006594,0.534183849393429,0.5835861226539532,0.6004817256616208,0.5650148847570309,0.4715928757886019,0.3663251905883049,0.23890034236804158,0.2085095404489623,0.3482708081198611,0.5182844171251144,0.6769538883211021,0.8077314435585272,0.8003272228722036,0.7708555504710359,0.7865559467472361,0.7862229889789827,0.7026267139126654,0.6173937528965441,0.5819864199425835,0.5790460217726592,0.6010638934417054,0.6553959855156952,0.5952357496196532,0.4892588528809405,0.35533869620502667,0.22844777753867707,0.27378911803669137,0.43787979044688186,0.6152599601394613,0.7591009247713858,0.7716075563283589,0.807209098108447,0.8130002363780946,0.7718295792498902,0.6890867615167648,0.6064401465340268,0.5341411575670394,0.5539050803260315,0.583238346171874,0.5394804124698043,0.5558956845469663,0.6057648991496416,0.5755633918060097,0.5655776288846974,0.5750780494061134,0.5874540400135224,0.586836060948368,0.5021066095865692,0.37481452697880524,0.2291950846259061,0.05960165725315747,0.0,0.1246172493084341,0.2887359061389052,0.4531745507643006,0.6128823773350938,0.7427144521332751,0.7449708785879761,0.7630765125887944,0.7886752328770106,0.7675876805357928,0.6898881320853061,0.596643554968189,HB
0.8006243097048329,0.830001829004871,0.7840709524949467,0.6999384533820718,0.6362726458465138,0.6834166548408727,0.7642044618546315,0.8302213443268627,0.8955341112756079,0.9768163030562318,0.9554098190881406,0.8400687058737619,0.7081350485769518,0.5956691841785211,0.6380433635562719,0.7602058249162722,0.8514015546475802,0.8249087795301884,0.7690007898219791,0.7938016232597043,0.8303624615340459,0.7880361079467237,0.7006045667500591,0.625052489239819,0.6640450311306598,0.7508567975704659,0.8222205101374014,0.8817899355915746,0.9581042519204133,0.9654856192413452,0.8681101096141499,0.752283708857169,0.6296424535342571,0.6327516041320267,0.754756862790193,0.8643417856810549,0.8660917732651925,0.8049739831137777,0.7804244398171054,0.8176242487334553,0.8004472620311556,0.7176501486247193,0.6357830232222732,0.654423784109325,0.7398076272998193,0.8173124562649694,0.8758935015489318,0.9481917905592685,0.98136315745737,0.8888645304364178,0.7641329765619749,0.633692223608435,0.5797336264570803,0.6800787762713925,0.8113629558001245,0.9043734486299593,0.8687588999120297,0.8065509517291474,0.8086102919095373,0.8390330340577179,0.7953667141848342,0.7119543393591843,0.6351512272239921,0.6712177293246708,0.7548630716803619,0.8188561000689629,0.8763681516945716,0.9371307435902534,0.8807774910745538,0.7591384928065632,0.6831779206656166,0.7666787421532699,0.865325061098895,0.8454945367309281,0.7855909136144235,0.7854767779564327,0.8152548997463784,0.7797092381151987,0.6940177187962404,0.6251366210635638,0.6713331291141578,0.7563118416321988,0.8240702967881213,0.8817444364701776,0.940520986295631,0.8914435750860543,0.7712646889280632,0.642297171827704,0.519689359359601,0.5294952639707105,0.6514238702024995,0.7773312716596152,0.882075022954621,0.8724653419576718,0.8122145873315987,0.810001907616767,0.8526879069286084,0.8279672989481088,0.75027108642746,0.6906469669558575,0.7372069889154866,0.816830172778316,0.8780963558038579,0.9432333675931737,1.0000000000000002,0.9297386395278864,0.7996016776664507,0.673173320265994,0.5435379138636955,0.413817091253349,0.3041493443045742,0.19567706334085888,0.1863031826582935,0.3021404514938837,0.41549108838239324,0.5026257474804263,0.620032445929791,0.7308365639998686,0.8554094525682896,0.9220613312760848,0.8723778874765649,0.8162637893740572,0.7402512397527514,0.6638376389196232,0.6513662463315499,0.7209795840473614,0.7975021435472214,0.8013841910303021,0.7553546470751391,0.7809575152519848,0.7966532808837745,0.6913411487875423,0.5582806223977346,0.42520776342961075,0.29823845934646354,0.17019690755490524,0.08384789408978732,0.15196155653070909,0.2802039608562823,0.4070477854229859,0.5361123070003135,0.6658834771103137,0.7894898967133086,0.8527912655322023,0.8099178513912682,0.7433517475162579,0.6628273401295044,0.5852112122418833,0.595543047810317,0.6818262946347051,0.7582148034873908,0.7653366420794758,0.7365121203087328,0.7707029949846087,0.7508921600986005,0.6316117366704708,0.5054754168900415,0.3728839120742973,0.2457030528103088,0.11717131440551909,0.006215987532567135,0.033826548677892365,0.15462968019977485,0.2874905131829659,0.42087102133735077,0.5539848260281326,0.6811734250507686,0.8011884862160235,0.8282204828283273,0.7795208894943955,0.710770144038291,0.623340401376244,0.5768007088487179,0.6306251974472978,0.7211918622301179,0.7906552355326248,0.7776360238048559,0.7525146373461307,0.800435040370127,0.7834028373730333,0.6661199404605833,0.5402701899781797,0.4102388964520598,0.27831166584727507,0.15305741185361788,0.03651888004655501,0.05535983518055265,0.17436941931189542,0.305618549598216,0.43520316619867416,0.5616777809749764,0.6936229694473628,0.8181809600508594,0.8994882974357514,0.85644194831878,0.7981187437484665,0.7211275350101436,0.6342599212879942,0.5760053177278923,0.6212557895653656,0.7145493600178945,0.7799242189814979,0.7586315045880663,0.7328416508398705,0.7796450778911048,0.7941863233891941,0.6915242042680874,0.5631447832570993,0.43688762778961365,0.30411197791580347,0.17559573932515948,0.05190759584396387,0.0,0.09802100790258228,0.22342669314365549,0.3559876481532185,0.4844596340723477,0.6119066692901622,0.7422119893287895,0.8470611385738513,0.8413194038066247,0.782910902214234,0.709200305553922,0.6224853591071635,0.5742991381192546,0.6325621529636041,0.7231604623749057,0.789350943552867,0.7642132924475558,0.7209911178163959,0.7552515273733145,0.7664913003945653,0.6608813719726481,0.5334281607499332,0.4078183424807713,0.27551162290780784,0.14844237782112346,0.049031468849380255,0.09939263672664578,0.21920293816312508,0.3279294914774782,0.43713537319285645,0.5372011850124749,0.6533219042999161,0.7835853771681407,0.8755307530600684,0.8433251799504238,0.7856487892295099,0.7135415611162559,0.6292618918081518,0.5872958884375703,0.6429577834531417,0.7319031437833787,0.7871348141478944,0.7547555742551117,HB
0.34584277792246,0.3524772843631987,0.35653980788231987,0.3536814432251334,0.3464226565108617,0.33712444504796846,0.3422090705975456,0.33687726914554883,0.31286799074666627,0.28475944803670794,0.23968943474285465,0.1857978895052379,0.13633149060600958,0.11185694852596684,0.15203275179384756,0.2102738512905482,0.2656956077774977,0.31163113444746005,0.3550945832845587,0.41530573960007633,0.4883266396649213,0.5608412918043943,0.6310628535510854,0.7062130720733379,0.7841307774793131,0.8570959045086042,0.9286589531750509,0.9903579898010078,1.0,0.9466509112017718,0.8760786296906318,0.801478572318914,0.730126772421964,0.6577320526962604,0.5841677681372524,0.5145181365964393,0.44607850969438934,0.4075608020431507,0.4119473870646577,0.4591975244238471,0.5101978362424857,0.5505285840417025,0.5434054818761895,0.5238614881544486,0.5275918998414753,0.5393596345319236,0.4917325008306608,0.4218968682707578,0.34806850060679473,0.27792708717449566,0.2427017594544889,0.3059153831412429,0.3752313312346658,0.40671055612850626,0.4080020107697684,0.42059549819829556,0.42428977010835833,0.4190660597837148,0.4127908916438323,0.4033350638868889,0.42963361592057314,0.45746386282819307,0.48404070100911234,0.5061756893747273,0.5161898447511555,0.5349234541416577,0.5056952884711499,0.4393715444925279,0.3668393007974089,0.35208633216415164,0.4069739156435981,0.4667533046509771,0.5084704072936135,0.52453690696984,0.5107073870954757,0.49081590502541905,0.497684944684909,0.5438573416096899,0.5869902006092791,0.6179044085173238,0.6247750750332632,0.6261708374622343,0.6360799282891043,0.6546262892366279,0.6116400530797743,0.5395451308149188,0.4988362473127861,0.5348616888255764,0.5710850904356866,0.5826390721275252,0.5511083705993798,0.5257537815372615,0.5350093806855951,0.5434674976236571,0.5487530275724213,0.5473089897993093,0.5367465633640447,0.5178019562903602,0.49848967396925614,0.47875143545899945,0.44412428715635555,0.40052149053006847,0.3640722753987804,0.34007150819187526,0.34313759671193855,0.3208358749918627,0.2534665572658097,0.18801966013805682,0.18816792732139587,0.24323423136120392,0.2871117323910428,0.3111703595523121,0.32837201777155434,0.34562134919663823,0.3802034455362868,0.3944004872247775,0.37499359699491874,0.37708330758678255,0.39101102003822596,0.40662978119779636,0.4107820874008037,0.3943933080569031,0.36611398002525997,0.3288449815691856,0.33045559807270575,0.3503456396010556,0.36102924087834287,0.3465275804262573,0.3265882427735911,0.32152740728177776,0.3339942697816718,0.342785164536874,0.30875909573803106,0.2843041198543026,0.27635578623270707,0.2556306200713965,0.2153623862606664,0.157703788726542,0.0830557459103829,0.01456234376311305,0.0,0.060825159675963913,0.13510613538714544,0.20641097003312558,0.2713044466138941,0.2809597384823439,0.29890200729471594,0.334792239570469,0.3712819614546463,0.4148536129952567,0.4389023764365292,0.44714179493513306,0.4751450552046781,0.49655478973315503,0.5058888302384763,0.5003990947100703,0.48600147797735316,0.4666603507344389,0.47961049235842923,0.5152525740662961,0.5141287932512277,0.4722679597830992,0.4075935088649727,0.340814262966497,0.3247827624931179,0.3930334811904017,0.47018724333934525,0.5428298380460994,0.5729647265335411,0.5738799838936384,0.5665486220777276,0.5357862121541102,0.4891676382376944,0.44140745737830045,0.4265512335169741,0.44755406724647395,0.46993574436157903,0.46923739070811665,0.4258413984772984,0.365472787430019,0.30521523597644773,0.2376704601047972,0.17225200657511275,0.17782780866862868,0.2521227591140025,0.3293363068523063,0.4063938220556529,0.4711481989371751,0.4701858448705867,0.45315054085673356,0.43738138733004206,0.42148295341427655,0.39442855488869544,0.3662115062993627,0.35659941812216234,0.3605909748966729,0.36689457831794314,0.37381250765771545,0.3626278134228773,0.3622815562953945,0.35679833592829224,0.29999891694096625,0.22471950179321065,0.15009743896736438,0.12763819488603345,0.17742293505050788,0.2419680297595046,0.30965381839827044,0.38298448244590944,0.4527937329728262,0.46546575825399383,0.45487243515020603,0.4768025384690455,0.4819441281086232,0.4453416843850908,0.39196807992365557,0.35477735722590964,0.3487230359861786,0.3785409223119558,0.4275509423195496,0.4967195239719544,0.5674889492953352,0.6418437118921094,0.7229780051976924,0.7939684090462071,0.8619356298395533,0.9136603284454252,0.8735644236503872,0.8063931821165036,0.7334564918202573,0.6517118719537809,0.5738658738672116,0.5014743517367144,0.4276286478640645,0.3614577964470076,0.3083994380010986,0.26710444975782277,0.2158361077219204,0.15979293782503246,0.1015684848170515,0.05429738679337959,0.04359586574462715,0.0829770877900673,0.13696431674339316,0.18731058976649084,0.23113104775548754,0.2621410079173241,0.2753777080209796,0.2733339576147422,0.288711335701882,0.29603833523978595,0.30124943202898846,0.3072440442153299,0.29604242871741393,0.283685217985048,HB
0.9824850304679824,0.9395057699216554,0.8693096188862799,0.7875478191552601,0.6916883778253062,0.5790621635664595,0.5385360404246362,0.6300036588415034,0.7381541030708108,0.8467015871195924,0.9461186473108101,0.975131093990782,0.9498570705229161,0.903958887368721,0.8768813020083512,0.8880013865955112,0.9119084176731969,0.9198630488632626,0.9332323556328062,0.9371394652937304,0.9286995460657383,0.9067131834548063,0.883406355311549,0.8452710081581634,0.8343707727046059,0.8620330611413776,0.8967706322605058,0.9281977496646863,0.9444425793595954,0.9613762797287855,0.9689108152126988,0.9316913160663662,0.8673705796295343,0.787683944178557,0.6889922104267714,0.5761478911044513,0.5406035757278227,0.646309841318395,0.7567519297067138,0.8619326059454524,0.947059918212342,0.9638163534031841,0.9423982245152422,0.8966361076724345,0.8977126219992222,0.9239793930205553,0.9525024646072846,0.9717716496387232,0.9606823159699207,0.9541197091115441,0.9379212406452986,0.9084739797330332,0.8719221873647633,0.8767420705374809,0.9124504419034998,0.9380577683831297,0.9545944570808751,0.9709359066853329,0.9868136015816993,0.9753667892462441,0.9414178345770963,0.8611621876459159,0.7794130939151791,0.6796011922856606,0.5757413858754394,0.5940438769811198,0.6967452026544292,0.8070360292976835,0.9157151082282207,0.9925436450807399,0.9885209277079032,0.9679841344112408,0.9156011865838045,0.8975961387123688,0.9164394703266403,0.9457444233656385,0.96105241328147,0.9735653869362006,0.9741494139941205,0.9665289283333682,0.9534634964004476,0.9304498643284767,0.8961695986491796,0.8915169126598008,0.9185514114646631,0.9442413766784621,0.9720018118990343,0.9810978532270771,0.9957587754107027,1.0,0.963807617037931,0.892123977370956,0.8154845749785089,0.7156361543372358,0.6592675408515181,0.7458346275633492,0.8567404944395944,0.9480095387612999,0.9895638316202153,0.9718438958040383,0.9219741061307891,0.8929906695012599,0.8940471510361192,0.9257496302527239,0.953586442742826,0.95574511323565,0.9512117335994237,0.9371656168652476,0.9219529814432397,0.8935213960581363,0.8584506785184423,0.8596399176342451,0.8833023148621533,0.9121000971551654,0.9125327359490276,0.861120031837229,0.8224728979309233,0.8036610327728879,0.7911352664383284,0.8136777457877513,0.8482109868449728,0.8646660668992672,0.8809650842738006,0.8925436273306246,0.8905848286996805,0.8745865101750434,0.8475807085303297,0.8326497332005829,0.830911771720924,0.8802148089528141,0.9188489233106729,0.8728542409726474,0.7711510622036504,0.6587400113757784,0.552317988823877,0.43870756504999076,0.3310845509059188,0.2173246988165567,0.15088745220193545,0.21477285751094533,0.3217478994369447,0.4359608232362535,0.5488752638020364,0.657813938408387,0.7631078739154344,0.8439601033774968,0.9139959576558394,0.9295756948285288,0.920829363164402,0.908135940283854,0.883956908237427,0.8554086257043263,0.8253883594559484,0.8318260038586831,0.8601472739606799,0.8855785308290329,0.8937563418638015,0.9067628422879679,0.910035520276653,0.9007471420329227,0.8871300536178124,0.8628846562760661,0.843188258410609,0.8250942327370439,0.8507182688744619,0.9002080852752812,0.8830489405347968,0.7891703051012375,0.6799897941003117,0.5724313652535145,0.4574955578343993,0.337269756870886,0.21701797318562033,0.10039215837840176,0.006980842224358241,0.0,0.09265134332648595,0.20029524049767877,0.31968657216379714,0.43088770896466366,0.5420751727086506,0.6577014279952693,0.7572528335960746,0.8399978405865971,0.9056605128979593,0.9217702046355813,0.9056123395233278,0.8895200091909308,0.8682594249251117,0.8394327115715221,0.8127713993822674,0.8110825908657202,0.8366387564563853,0.8715999695038419,0.8910848320986631,0.8944384952454221,0.9052530480037166,0.8895918730237882,0.8562059559256965,0.8323492410425977,0.824451901317377,0.8630807613872618,0.8963636647612354,0.8540388082520813,0.7491955815007083,0.637972118764067,0.5330271640027848,0.45123893386574654,0.3427563319202891,0.233602869564967,0.13462059562917172,0.13420026549327835,0.22656290228212983,0.31780328413426595,0.42118225426549616,0.5364921139119119,0.6529132535707949,0.753037751056953,0.8333797226503044,0.8849142917900612,0.8911311498622405,0.874869929921696,0.8562376275194401,0.831410422565499,0.7923060149814596,0.7654814214661907,0.7732029148300827,0.820130971175133,0.8485071371479629,0.8632855424229553,0.8736856541499272,0.862832975195098,0.8555995763436419,0.8415284608703626,0.8128714253108873,0.8026903778140588,0.8197908203062649,0.8692573678821534,0.8811806961211368,0.8061807424989418,0.703153819494315,0.5898040206669748,0.48320756941591236,0.3663986128917567,0.24622101858229994,0.13797729803072256,0.1212558249042579,0.20938474108469585,0.3232823503905822,0.43032490694210423,0.5492467857610661,0.6592404049256215,0.7598022682347296,0.8426453771011491,0.9030316475742137,HB
0.8213899904842881,0.8352752169487492,0.8242940989156293,0.7954836272046404,0.7718833084826773,0.7882460868018926,0.8387908777188764,0.8735989844492649,0.8969491759187689,0.9302366301304705,0.9820686324211108,0.9319684547377747,0.8280560474767447,0.7204058459394591,0.6121894989735124,0.5038985409556245,0.5191284315258031,0.6337140894970645,0.7435095564009064,0.8571151571529476,0.9565213853180217,0.9739513468108292,0.9081341793244284,0.8793548645020308,0.8378255121772342,0.7686259839339231,0.7606437554879044,0.8083243134021758,0.8503708417392095,0.8642857581081838,0.8408847333094782,0.7992354056754551,0.7829724759748353,0.8133591255450721,0.8607823312119607,0.8893954605151555,0.9068653454363227,0.934585132350237,0.9205533978295095,0.828739101994117,0.7176845345165097,0.6082612831433865,0.4920847012886822,0.45974501086800346,0.564361556850854,0.679424961568303,0.7895453441522593,0.9027904299953418,0.9657079540401912,0.9162107165577791,0.874651872644806,0.845006341986543,0.784216271551532,0.7650886082804369,0.8092345845436941,0.8494929540344998,0.8620281777745118,0.8462887693044563,0.8089353688919514,0.7933151047836697,0.8194997196515941,0.8676400003802247,0.8909977204993325,0.9095512537347641,0.9518373250961643,0.9583313069391883,0.8757469972702931,0.7686750327568814,0.6583136675545103,0.5444625161177068,0.45743609058925894,0.5211872381635356,0.6299412607520847,0.7479451483062471,0.8568431393770759,0.9524608079392618,0.9420243207701431,0.8952188408837769,0.8670494626934688,0.8151215514319292,0.7770069823193506,0.8089129979949232,0.8445964923122944,0.8620081809419722,0.8571131127391232,0.8295446199012757,0.7996594169608862,0.8088013032084296,0.8553428013261091,0.8907589692396274,0.9112322252561904,0.9489996251544623,1.0000000000000002,0.9573150329943572,0.8534115228061687,0.7438073553960198,0.6292279581078655,0.5150536027294115,0.5073695948229433,0.6182516112008629,0.7280824280277309,0.842908311298652,0.9398086010797304,0.9407882405349637,0.8955143207981473,0.873378896111989,0.8261364262596811,0.7622771229959466,0.7669184620509337,0.8218299544039651,0.851914602255943,0.8503997196700925,0.8226411193198813,0.7921890990177827,0.7904059098671918,0.8314565284589037,0.8736246445446072,0.8960930025098925,0.9044890267344694,0.8850537362832827,0.8335435051910187,0.8172219447288149,0.790854605946927,0.7440898479724305,0.7146082724059897,0.7268409733568733,0.7611440245571102,0.7835499329660107,0.7696864944889563,0.7223596096011928,0.6769888811217346,0.7086767543258337,0.7750359486671303,0.8200612928161066,0.8435143986000944,0.8119633107140987,0.7004836606496261,0.5912248406522111,0.4728020082225599,0.36235201048835397,0.24769904883600846,0.13706655954978797,0.09410057315580866,0.17701420112941846,0.2848368731298596,0.39979543005834084,0.5087474351495629,0.6254736634991327,0.7341903899672937,0.847076150099263,0.8864111468075169,0.8457068258785887,0.8216836540500514,0.804609618195246,0.7661967618035652,0.7291480102485839,0.7305529324513447,0.7543604875718171,0.7791877090252284,0.7853466657970765,0.7572538965683073,0.7107391778865264,0.7004006262008986,0.7532063335452428,0.8053343127148531,0.8299290083052691,0.8254102178555811,0.733103581608628,0.6165997498022897,0.4967908331912312,0.37712064298107717,0.26440135639106455,0.16528955159450653,0.16177131129452516,0.25848785968727195,0.366981669197868,0.48269642897764187,0.5947561481621209,0.7072891774896413,0.8166322246412798,0.8743954883300293,0.8374667004523515,0.8164134793185711,0.7925343893697325,0.7458585221698673,0.717663671407917,0.7184140840753674,0.7412666772749603,0.7796070423699712,0.7913919962143308,0.7542436580816909,0.7118868994034837,0.6819306451881431,0.7228475513702242,0.7803860137798642,0.8097511287397883,0.8296640357910825,0.7596846671945408,0.6489609197567499,0.5362371137401138,0.4197066936041678,0.3106128138151032,0.19316255446928587,0.09060891581232289,0.06377814457495878,0.1524322814593142,0.2637773845247724,0.3750937793725917,0.4886253861500627,0.6083474913458555,0.7276259465062285,0.8320908734286501,0.8557199334812406,0.8266607686742538,0.8095675515829377,0.7735920293854892,0.7286319944687276,0.7136028206651772,0.7273984704441954,0.7709374289562858,0.7963842128498853,0.7773863354657544,0.7359424137065422,0.6820985264784645,0.6938280656557321,0.7554542833335238,0.8078300562604672,0.8270211433216199,0.7927404873511026,0.6872864851839979,0.5755426467326996,0.45647282756363405,0.34612766927730365,0.23124266217832812,0.11514430525266639,0.013911786275121907,0.0,0.09420233262372735,0.20948192024066348,0.3219517768896487,0.4344995966847851,0.5529379520701696,0.6618499251433965,0.7724327425189872,0.8465692898758899,0.8306182004384166,0.8108702754492507,0.7905798559733463,0.7518462629339326,0.7018640444068207,0.6936633100687717,0.7202474411126902,0.7582175666045712,0.7688412391623205,0.7501241661955376,HB
0.7967724506913605,0.8238344780429716,0.8454916553753624,0.8460500956297006,0.819093037053201,0.8191452397353234,0.8744750413437585,0.9266100547957317,0.9623446964772899,0.9718685658501891,0.9376985311970878,0.8279198970406041,0.7003112424943239,0.580789516791286,0.4745812876466391,0.47320709946718953,0.6092965210620984,0.7645161940053411,0.9022753982781642,0.957031097864717,0.8962468773728602,0.8333032358208032,0.7818718151030186,0.7757901097244475,0.831155548744793,0.8516049236028964,0.849125575699655,0.8193222413217183,0.8185353331361926,0.8834034000234743,0.939749135287006,0.9247657723826501,0.9439212559865773,0.9290098400848423,0.8466037420187176,0.7201135358213611,0.5995938856763612,0.48150018504486036,0.3974398644527213,0.4972348018590309,0.6469244656146693,0.7878636738289586,0.9199541982059096,0.9816308614399611,0.9191103013846846,0.8623567513826034,0.7957343638864414,0.7867389563803338,0.8179571002621051,0.835361391905145,0.817953207811251,0.8086845665451898,0.8544177297814963,0.919221117023302,0.9615326257866692,0.9753255415870954,0.9606028673200844,0.8586658999452648,0.7264421290539271,0.6013977097858647,0.4923711180945327,0.3997408919957359,0.4657465936124754,0.5859586316558016,0.7226883713338226,0.8653525589127291,0.9698539456549078,0.9481204956617444,0.8938783652402851,0.8296530457689983,0.7982967493193316,0.8468960427339418,0.8419213053661019,0.8279091905788456,0.8116014069625166,0.8456972692790403,0.8990353783796237,0.9465041019185847,0.949078578002688,0.9840233971061685,0.942060188573274,0.8419741792787496,0.7184783051224257,0.5870608241536401,0.47182825124669847,0.35073235604119546,0.3147565213375989,0.45031117896710215,0.6029437268162772,0.743914697430236,0.882013376363548,0.965782763215679,0.9089056743713515,0.8600856510550514,0.8076049213072936,0.7918338721058928,0.845312794823307,0.8771513227011187,0.8572395405145499,0.8272489389114845,0.8799373519696969,0.9025245601266989,0.9174974490112793,0.9319793349243137,0.9066757911455015,0.8143080485274972,0.6895978969143619,0.5643781567143149,0.4411787409626813,0.3298127380854896,0.3792504170634263,0.520917075884658,0.6691882475725177,0.8116529686763814,0.9452326429709772,1.0000000000000004,0.9434792490934698,0.8908926664976535,0.8424500845127825,0.8515139739563642,0.8293847894051649,0.7742106595807705,0.7212990967542434,0.7305237181170274,0.8003526248013695,0.8456293473328556,0.8548111808895036,0.7366236756159052,0.5914821453318191,0.44389055387587284,0.29854437798636013,0.1681612758532336,0.05163193874018779,0.010865346368028383,0.12549633366088697,0.26216878036521907,0.38713271007398653,0.5053840650872581,0.6315635164192424,0.7556892021322605,0.8358892270196367,0.8361544020292113,0.8268637005061588,0.7837010583408346,0.7672302814452308,0.7250309298226956,0.7536306246865689,0.7890140977072595,0.7525737645100459,0.7105849560182462,0.6909089264654056,0.7487688888106359,0.7920569214481961,0.8064503475228628,0.6954811254225155,0.551661778900097,0.4025712148994831,0.25643456303404344,0.11612595377722412,0.024874599265733544,0.09409078938463189,0.2281301593657008,0.3574559679716498,0.4765264120191013,0.5969155523748468,0.7307525881288668,0.8506113569589879,0.8765453485451911,0.8557915005308212,0.8109906919426075,0.7562782601262557,0.7177922231758278,0.7015008548508836,0.7535307823424828,0.7444738285392183,0.731559981094164,0.7035731983847917,0.7454327081242602,0.8052972034925889,0.8466443345361885,0.7927633615715761,0.6551995995422191,0.5075183694663883,0.3724062727553834,0.23224085907495695,0.08757514982526926,0.0,0.07274856997736867,0.2113445414066244,0.3516304248952733,0.47198076988300786,0.5914867128602297,0.7248777623081923,0.8401506748711864,0.8811937053688794,0.8651850884236092,0.8344406447575512,0.7642129277610086,0.7083250390629918,0.7057098159444393,0.7361397629059407,0.7429470085924077,0.7078216029584885,0.6803794471347997,0.7282661022407813,0.76571536006827,0.8192150511458984,0.8202516643521163,0.6884733704332531,0.5445494036200511,0.3944709134117228,0.2451850830019464,0.11638219584928944,0.1123661161873386,0.24699051619007362,0.39272501813862215,0.5115117834243197,0.617398602089104,0.743391797074668,0.8339792849738741,0.8257420662380333,0.8253964538893319,0.7919434600329232,0.7272462599615119,0.7261956157429172,0.7692133240347827,0.7647378699228748,0.7296764563476041,0.6846295734987224,0.6905164610440986,0.7503336644154608,0.8066839722040835,0.7701280411311804,0.6315202715209685,0.485615938063785,0.34333279509209014,0.21867372133143537,0.10491129842897662,0.10821902718285648,0.23581416235135233,0.36135402657922056,0.45969767290549557,0.5761817935435323,0.7058786080036263,0.8213516543994901,0.8548103854962679,0.8693831505360703,0.8315572833651896,0.7997339248964832,0.7426989672932853,0.7144357554294496,0.745712256447185,0.7465448286990721,0.732917120490137,0.6961160872506862,HB
0.8270181551701765,0.7679211134164956,0.8049612997877751,0.84449987198018,0.8579708160151425,0.8862068238322847,0.888862865993834,0.8698316953724712,0.8211039161828713,0.7298714315841717,0.6319377789948772,0.6319330860285599,0.7332402255259316,0.8080171186219376,0.8656279340020214,0.8785287082326261,0.8682841328895679,0.8113890537525168,0.7023809860078467,0.5789745981389887,0.5741108114949625,0.7176313821306701,0.8361052947485992,0.8634554992324848,0.7985215647325004,0.7327184754105338,0.753480372037262,0.802663211824798,0.8244550384877245,0.8587109993903361,0.8653213426867197,0.8630751454318601,0.8266554898450948,0.7362562107923027,0.6377083799887737,0.5959752542208281,0.6817732292986798,0.7617219831127122,0.8337423806808837,0.8707664700483404,0.8705925955062135,0.8310420905527591,0.7410183872951124,0.6061116284331161,0.4967652223808594,0.5806451160246731,0.723238300161638,0.859633338433984,0.8947076684372295,0.8320830433992663,0.7641720161959404,0.6887225827330172,0.6979370964683915,0.7694357358567316,0.7952235381997541,0.8249318233075686,0.8256054688378254,0.840888879000683,0.7935084975682729,0.7076404933489964,0.63082391172316,0.5579972995828824,0.6018466256824992,0.6933353761748684,0.7668579260316526,0.7964416019531897,0.8060153001384456,0.7692407900818905,0.6842330882735976,0.5602564384331554,0.4230148236843103,0.3853501485742692,0.5149890560583801,0.6637407873693268,0.7936015497057358,0.8266578408901228,0.7595372859694356,0.7098201458404767,0.7003057276508358,0.7673032335595087,0.8277300904389393,0.8503748054993188,0.8866409517491567,0.8948954205566739,0.8862257149541923,0.8218946943970638,0.7222524759762923,0.6379189744604163,0.6747854010025165,0.766847042370665,0.8530458159420671,0.873089914024042,0.8923543503601072,0.9168035966732515,0.8817399720609025,0.7787161411401544,0.6484355247094893,0.5484196038111073,0.6436528768561125,0.7871801985734357,0.9098816130411609,0.9164347642879327,0.8647195162354047,0.7872533718781907,0.7233818954022921,0.7551920473532658,0.8212452485564641,0.8539733294936847,0.9579885737561229,1.0,0.9984234495961752,0.971858717443276,0.9105230991698643,0.8195898462759184,0.7337911292907133,0.7233234739183927,0.7742070876286693,0.7005311899628097,0.5971451968108088,0.47664556496866695,0.3209683963212808,0.20443167704330945,0.20938097594629212,0.33188328904860764,0.48617556289996866,0.5941721915240796,0.6801368890886197,0.7706839597894484,0.8495694182949065,0.8960069735257421,0.8737041743257623,0.8110977912032089,0.7407297917977607,0.6855318496366198,0.6151929589290863,0.6349920933867876,0.7168807493638005,0.7540290786644523,0.7036439339150551,0.5512544543021938,0.40333521558268703,0.2589156892754305,0.12487213550831555,0.10049165537365612,0.22302937386783972,0.36492247698135793,0.5092028551220915,0.6511616051660116,0.7566530376081242,0.7902708206640257,0.7738898983489344,0.7228436709893651,0.635240083756587,0.560284467387572,0.5630370711354726,0.648127991260445,0.728758717887076,0.7698122988782217,0.7711946131276886,0.7482936950015975,0.7160078132168133,0.6831220337047665,0.6565061439349056,0.5682461441940969,0.5460337020860924,0.6274653255336067,0.6744657149007964,0.6548274108718841,0.5193049718732881,0.3755137175161014,0.22822916977349506,0.08893890141617611,0.0545382321275234,0.16777202914642597,0.3078011863907828,0.4610331028437096,0.600564568468863,0.6676656263351917,0.6757834611310858,0.6830787696112219,0.6963693538553581,0.6412245101645837,0.5435408497682337,0.4697979350279131,0.45826039069024027,0.5402112446510401,0.6191206672340179,0.6981291779186893,0.7018940315773232,0.7207921886290043,0.7011745709070984,0.6852637259639835,0.6273253479416128,0.5718040907092892,0.5633186910310433,0.6536206108083342,0.7254550179934354,0.7139266606524615,0.6017041124939664,0.45318965924190246,0.3048270668867472,0.15731425719272618,0.039076521700233346,0.08142692304171639,0.21520808449271955,0.3592814661366184,0.49942884297732837,0.6389785729168578,0.744367375592931,0.7708529360918099,0.7531746109263406,0.701105574787356,0.6243226770275974,0.5239171534595735,0.4667628927473988,0.5254013248154616,0.6271197300994329,0.7128730446583353,0.7407721208119731,0.7716255296004872,0.7502930647958639,0.7331437279474926,0.6961760103602361,0.6277626156690932,0.6200753443591793,0.6803409599949397,0.7469794253682798,0.6956377280189194,0.5439062185700356,0.39849976263355247,0.2453528236426381,0.09981533095805606,0.0,0.07107547953946503,0.21260278272520994,0.3564856430480874,0.5050675993215821,0.6407558819812849,0.7482341150047453,0.7914160628188047,0.7715737317276932,0.7128154944457408,0.6382685577225851,0.5469829122079077,0.4809480244431854,0.5083597587372313,0.6219519769867814,0.7118254520838687,0.7748264261019893,0.7790934548364508,0.7675357212385494,0.7459124478454378,0.7031162741880204,0.6609548084811552,0.6915520376799296,HB
0.8003907660307727,0.7777457245343227,0.7274434092087247,0.7408714166693877,0.7437633937217174,0.759010609945268,0.834094681967815,0.9118973815064422,0.9735861738451894,1.0,0.984369801058409,0.9622055487263199,0.8989556690543554,0.7856764042312094,0.6600290561297042,0.5363862228525873,0.4214146262729712,0.4180007157194279,0.5381762607499851,0.6622654629578246,0.7736255338067077,0.8416913530372412,0.8432401068529716,0.7875585836897168,0.7916720232114032,0.8188483823865047,0.8010737344099312,0.8200003338638235,0.8898444172901034,0.9598431545823547,0.9974124775330577,0.9855753882212976,0.9546419929746452,0.9107539103937059,0.8271552429480131,0.707577935360876,0.5847149228630135,0.46178099689334395,0.33152611391113895,0.2678435038900302,0.349645055485603,0.47425326477127605,0.597817424573742,0.7105276478155802,0.776018533980185,0.7667938411299375,0.7152629872472924,0.7294270775839236,0.7360843688918286,0.7199276324968351,0.7594232901187907,0.8398946656235662,0.9167300016576387,0.9643542735801183,0.9628542507884008,0.9447915961091335,0.905765545349948,0.812534799240666,0.6927346021368819,0.5598362999893305,0.42845047498000177,0.307201168887254,0.25699091100662574,0.36177889111746264,0.48867244651442254,0.6118856537842037,0.7262967074469242,0.7998029986476105,0.7978508999069098,0.7402763888588724,0.7463867822039654,0.7578851622386842,0.7560899213911054,0.8173463474891309,0.8958152120646528,0.9634338816672385,0.9834534501347054,0.9635790918672855,0.9415170733646794,0.9029967963273648,0.8132460792841658,0.6818280428586765,0.5514314803287497,0.4309254755588583,0.3111198349023354,0.27748189674390256,0.3923446440575975,0.5175713950030669,0.6415343587832814,0.7498352366267844,0.8026056818136071,0.7777158844378982,0.7258524536598729,0.7434490922452324,0.7471270147690374,0.7581216480637885,0.8225617222425834,0.9067112067398888,0.9667714259286324,0.97964023890813,0.9632856478720235,0.9330463264997735,0.8659751581481907,0.7538351310075515,0.6314542379043893,0.5077654128700178,0.3832672465104294,0.26982475469232403,0.28597761530673305,0.41035307946401867,0.536661696395011,0.6589335272525334,0.761209140074433,0.7940736451716268,0.751953686253187,0.7293718386531021,0.7360235561002813,0.6888084706713329,0.6328897541180689,0.5585095444963541,0.42623749673072187,0.33990558664455417,0.3744087111580501,0.5007056265148622,0.6127994329655868,0.6815137590774696,0.7331912158869534,0.6763758198932868,0.5583435740021532,0.428557148395428,0.2924992183851418,0.16519460103584027,0.047566994186221345,0.026266732790167335,0.13128307291188723,0.2553753522797173,0.37633535796838347,0.47981781501851106,0.6022969212309413,0.7348506746231669,0.8439401021921316,0.8928968948432594,0.9177725734605939,0.9188586718854044,0.8679947644273702,0.7842792884898331,0.7158268523172477,0.6868703879730753,0.6966125192996122,0.6732743096934617,0.654642815036445,0.7212455577250716,0.7410454201121035,0.6522996169760003,0.5231349557729068,0.39826051916158933,0.2685782072815033,0.14120992160184587,0.025514092327671767,0.016034989384017262,0.1210297579405668,0.2503692530235053,0.3872807755295775,0.5108011422153171,0.6343618665667043,0.7594113562746871,0.858517458126224,0.8967721491043221,0.9223752078916974,0.920762241607203,0.8578312882472616,0.7762074755308408,0.7132730561832035,0.7031673701143366,0.6958643843326309,0.6549909991665057,0.6859193156800725,0.7480247926053334,0.7025925629219363,0.586467668900367,0.46292961522484743,0.3355629951264847,0.20454252617192248,0.07803516795034149,0.0,0.06392988677889733,0.19534557281404696,0.3236447579507984,0.43178365335095936,0.5421904403986981,0.6677411700401517,0.7885862387307601,0.8745762312486396,0.9041119852285147,0.9140546221658479,0.875850578140533,0.7961432405691866,0.716795932065359,0.6683782708738,0.6753445784795011,0.685879257511548,0.6490781088275943,0.6540469536624416,0.723238218737305,0.7024642707161419,0.5958992183719558,0.47207031660403675,0.3456855967660588,0.2184629827292719,0.09226116388878092,0.020054154949995295,0.09890129485470633,0.22080464885583817,0.3441007674289658,0.46861400147933185,0.5925874873854728,0.7151115067685136,0.8282068079150036,0.8973018403866075,0.9328919381126006,0.947450447239575,0.9001546543434928,0.826766426681945,0.7654910675776403,0.7506147217751669,0.7547492246226786,0.7205032213805351,0.7337766163634902,0.7902375989801977,0.7504346347236357,0.6382125096331341,0.5155446505537857,0.38965083518812715,0.26117838133496774,0.13502599172957153,0.06631416460267836,0.1449910644760659,0.2694877211542859,0.39564565308914146,0.5188194196673162,0.6400047910983879,0.7656913615326539,0.8784006041158539,0.9250489746593273,0.9434256575867028,0.9284560552890762,0.8639812446659239,0.7875137042803533,0.7124627540156734,0.6874011360580723,0.6935563197665324,0.6777498359132288,0.6528079437826526,0.7101408327293863,0.745155782730051,HB
0.3436502925046059,0.42723633375348147,0.5123630533106469,0.599535869681221,0.6836030634050938,0.7639897806497298,0.7998805501123667,0.7925962473086543,0.7950541558776145,0.7836250178886679,0.77334428583849,0.7391028008807989,0.7382294497961601,0.794087851644796,0.8544398909270923,0.8768313972526622,0.8651032548770166,0.8451022870099971,0.7983805076326898,0.7266415887725881,0.6462764206459155,0.5686460886753104,0.49461860432554783,0.46446613994060426,0.5386341304525168,0.625212249439252,0.7091500500169396,0.7755327841893951,0.7946093200754363,0.7613489054628944,0.7727293804423692,0.7729181517729387,0.755571196065062,0.7381330820548717,0.7707713653852628,0.8294134880974753,0.8899010674057264,0.9343413962495761,0.977072974124868,1.0,0.9889041700473109,0.9358187450839144,0.8598255131409589,0.7756825608867728,0.6887059577315702,0.6044415635351357,0.5383476894217993,0.5545816331527404,0.6351186084072891,0.7228932533056247,0.8070311563919268,0.8814925296155012,0.8750757464645833,0.7981218246516129,0.7421172977904564,0.7309404394274261,0.7336457909251002,0.7387513694783772,0.7641600520708807,0.7897358536539032,0.7834014390578381,0.7730197196008362,0.7789910167486944,0.7974162578145736,0.7901166020146839,0.7599516687316792,0.7212991138945231,0.7283506428683748,0.781265326167792,0.8255413673579477,0.834321771358788,0.8193312239117945,0.7875978646462154,0.7285465473935808,0.653034787281848,0.5720726009474577,0.48722711320952916,0.4028891049150367,0.3630969014189145,0.43343897269662723,0.5191656073046615,0.6051539946203244,0.6887566224519392,0.7516258857661255,0.7417836659030734,0.7195388342452556,0.7281925543439667,0.7368525563955919,0.7437533256143012,0.7273760022678784,0.6985115137260021,0.7160327117538003,0.769487861407292,0.8196878340310085,0.8399816792058115,0.8337672977005726,0.815881729170479,0.7596540291004568,0.6810408218030406,0.5984835766664729,0.5136340244874249,0.4293668886213442,0.3487483815645378,0.36277725285166973,0.44402804176512745,0.5329871936023014,0.6193071268549346,0.7016137109166427,0.773031805793359,0.788181509715213,0.7890124983399394,0.7973939009489384,0.795459321751302,0.7672567734993887,0.7533420230219248,0.7466776865737663,0.7077854296185133,0.6273458639624416,0.5421170981494561,0.4547024426741466,0.36536557191221,0.28085105342964656,0.19123315062278967,0.10624358894888275,0.03467234415782572,0.05357518624955149,0.13415014211167142,0.22187347820052206,0.30706230820054725,0.3976070521255861,0.48825165347987154,0.5735970979055078,0.6558143113823314,0.7317114308659638,0.7854784429859902,0.8010258238112771,0.7917289675299686,0.7444371404088532,0.6881049490198134,0.6462831041377353,0.6603106476974101,0.6940832401049346,0.7085961565323609,0.7004275556095536,0.6892105462402878,0.6847268316199744,0.6974794031608906,0.6938560022764102,0.6276824144286277,0.5418557847701351,0.45389398371217804,0.3686423651951607,0.27808124159465153,0.18714853747453108,0.09643671495191986,0.015156039701165858,0.0,0.07318802400419544,0.15782472505772582,0.2472016915719344,0.33167298779346743,0.4195511779390999,0.5036943160455087,0.5873717177091338,0.6689358018370071,0.742762585372545,0.7801461837110366,0.7942040363208271,0.7808115887156839,0.731026945138735,0.6837054354970065,0.6846290549192402,0.7230882684549913,0.7537743038776064,0.7618123638971046,0.7445616034370746,0.7411846227205809,0.753027102896938,0.7350255581636596,0.7108059275597147,0.6983193777646393,0.6940955031884075,0.6963935558731125,0.7079560722997589,0.757481220070952,0.7261359406476671,0.6410011666817348,0.5542552139009562,0.4678777613190972,0.37720078332957385,0.2937166532236175,0.22395464225113648,0.15048755692427473,0.11774933224819861,0.18162450614904846,0.27139691914067665,0.36230098821088896,0.45063144111100106,0.531124424728096,0.6083644361028084,0.6907890742760021,0.7730873787413259,0.8537423355987399,0.9268907667601194,0.9594792653729736,0.9431259871934903,0.8987886587130955,0.8562109579796731,0.7967929870255821,0.7349438729509774,0.692085868477673,0.704893806734012,0.725933956923789,0.7371961869970214,0.723657507719486,0.7229277154030966,0.6949069594189359,0.612825772095686,0.5280581086057261,0.4386632136249853,0.35418465980192604,0.26472123124775393,0.17624036769094953,0.09856250379369502,0.02455205382079928,0.015167420394450515,0.09016094331024405,0.17933728273975924,0.26536167773393504,0.35243318788545075,0.4387261771582991,0.523543488525557,0.6073557085748238,0.6899227055872841,0.765687851402356,0.8123957825402288,0.823115760525793,0.8239987068750587,0.808271067718842,0.7442711592190305,0.694911893243231,0.6926899851614807,0.7284662353780276,0.7433900175139239,0.7577321256920051,0.7557419322447294,0.7533984641852958,0.695642042420817,0.6069768088213319,0.5165215273191583,0.4315215490762472,0.3430555884123303,0.25396836771334497,0.16943486793914775,0.09064787750593517,HB
0.7749416388718031,0.8042973356498755,0.8419909563291728,0.905051527574082,0.8607903924523721,0.725679674811762,0.5755391240546954,0.41535274059140104,0.3414639134014239,0.4427749889955557,0.5849252307226691,0.7390644091520566,0.8783368508258982,0.9929888369703996,1.0000000000000004,0.9017913301600191,0.7927615956537042,0.6995049739544661,0.6604547081955836,0.6695069937622646,0.7210394476366493,0.7552732934025452,0.7660548806086944,0.7710320615863231,0.8152499652532543,0.8065565988465111,0.6933435412097033,0.5544707256402441,0.41671992380368295,0.2949392075569861,0.19897070176094145,0.29954311465279826,0.4558268046356426,0.6103894747694607,0.7580775377849691,0.9023505262998408,0.9625841233830292,0.9034215443894689,0.8137009231593937,0.7551574901481026,0.726451719252434,0.6726950412867683,0.6593395937023043,0.708972029261036,0.7486941117177177,0.7647398760189259,0.8124318103616912,0.8628679377191983,0.7979167806533378,0.6500799796331727,0.49494912556254356,0.3398427685966152,0.20725630880512114,0.25467311618924215,0.3908001910225791,0.5374668452393192,0.6908481659302357,0.8445196601533556,0.9496777740663727,0.9175349389900069,0.7983298415591134,0.7159762352280716,0.7073082694920316,0.6931022140854197,0.6702323246914403,0.7089655640177717,0.7345853119710237,0.7605716087615426,0.7743201507061763,0.8092957804341219,0.7439674849066384,0.6137408175747359,0.4694977474653168,0.3176138626148939,0.20802698013621201,0.29224976454559304,0.4370079211965172,0.5855812628895682,0.731119106475338,0.8701979806508455,0.9403948996379108,0.8939490075017074,0.81008763125168,0.7718100851769587,0.7619648761136584,0.7201168499772517,0.7367754644920708,0.7830588162302798,0.8131028519267001,0.813171740215084,0.8323138869687017,0.8600730672758741,0.7693860040904892,0.6232359609470874,0.4804597163504525,0.3263801789274621,0.19922556201253983,0.250293605050826,0.38760859845537077,0.5457547508754477,0.7129007425425784,0.8453237920669063,0.928044439983617,0.8953845987420475,0.8103247626658701,0.7587107902900807,0.73304215761484,0.6917124942262651,0.6971142755979121,0.7487246086123212,0.7758712913549899,0.7941794759980456,0.8497443488024952,0.8301955162991912,0.7172875579487301,0.577026604066583,0.434187393770713,0.3466472996550727,0.4519970556554429,0.5917288413071677,0.7387405595906658,0.8684776323456922,0.905392788371866,0.829843052453024,0.7340688162018947,0.647878351355871,0.6195685464087579,0.6844495252820453,0.7794176161275295,0.7862683532572539,0.653454706536682,0.5070287096414261,0.36877340964002947,0.23941244541648743,0.16748322346588695,0.25657635776580756,0.4079839935858778,0.550590924253084,0.6877654598375837,0.7627431560677906,0.72747133950311,0.6942320207389994,0.6646548334114124,0.6256742871237573,0.6067187176064612,0.6356660876645255,0.6689945920532341,0.6962549558769031,0.7770031363206242,0.8131232016839136,0.7061935179886878,0.5533574490711923,0.39880306295521084,0.248097729141457,0.11674569036039273,0.040787368900281784,0.10993079341187295,0.2568317577143251,0.4169685810383852,0.5774631991300114,0.7108877629700001,0.7442122465412484,0.7300727886021812,0.7288973381350767,0.7084651771934012,0.6540662979046625,0.631015903438306,0.6692275161923606,0.6899213487952336,0.6973838428189354,0.7687618903277378,0.8448580269607588,0.7952279623732266,0.6545346828820593,0.5079706423970802,0.35965048491794427,0.21871473633157956,0.08316434252856642,0.0,0.08831373726949954,0.23981925981601293,0.39053528434904994,0.5370800618847027,0.6685670548159233,0.6905117204263642,0.6736828068522644,0.6606840056086214,0.6236571773428881,0.5835910201788623,0.6071960063594966,0.6365374524362197,0.6172879291326994,0.6427226686826457,0.7346372265747978,0.8262092267682273,0.7494969676271119,0.5996690584287792,0.43851072029998006,0.29008811625966713,0.15398891050875196,0.0654567434337876,0.11776120299212955,0.2762293709259054,0.4364815650509879,0.5851908503213665,0.7125933470489891,0.7355145160066514,0.687290093736324,0.6683233633149377,0.6407438126028033,0.5895170543086032,0.5646581344445787,0.6088321465250419,0.6552891134247067,0.6731324236994816,0.7245920991845192,0.8132802911440717,0.8482058853516556,0.7304983007847832,0.582096927023469,0.4256866920353324,0.2808612999785698,0.14197037248050703,0.026925424940280607,0.06319946732200421,0.209778917776688,0.36397297912504456,0.5093369713168294,0.6482999193710173,0.7171042380732611,0.6922085371251394,0.6822176581347872,0.6758545593195828,0.6412135425982921,0.5980058472412693,0.591452968865851,0.5742159469389163,0.5981008408257975,0.6969306534651789,0.8058557190528446,0.9008952293857466,0.8699602668408377,0.7271155074897506,0.5670719499180783,0.4242017356850938,0.29772450271406425,0.19897367916558428,0.23387162817299645,0.37458902710279185,0.5278579749483665,0.6709007524327304,0.7823189828898793,0.7586422174628606,0.7162490976660956,0.6865238788971766,HB
0.762136673803391,0.8263652409917619,0.8880560965839173,0.9304963377166484,0.9439267050552307,0.9402178169435496,0.9390219475248995,0.8946078632597028,0.7993015386890054,0.6831316374998953,0.5602172413822732,0.438517042949077,0.31720464581459695,0.23668080040795858,0.3220641317473081,0.44646737727603125,0.5810444058576116,0.7035859159525362,0.8018498864723715,0.843877617691503,0.824730599253608,0.8032768197857172,0.830219829313916,0.833525375739945,0.8122232439361683,0.8098298545845364,0.851277721448007,0.9186491562317267,0.9722113162739234,0.9883611941877175,1.0000000000000002,0.9844187682390462,0.9137283259454245,0.7958998628561302,0.6732301101362455,0.550910775346632,0.4295270292359781,0.33603005430949584,0.4027674661582419,0.5248205654670126,0.6470384604519841,0.7644250357506401,0.8586083986944486,0.8950863819015866,0.8585961620158342,0.8210610738488138,0.8499645263133233,0.8432814481382189,0.8151489714579088,0.813888056691517,0.870364589699349,0.9350722057296614,0.9820073165877792,0.9922893879576085,0.9825204223647155,0.9567450155330255,0.8886984997476819,0.7798169681664955,0.661002794185287,0.5389575209975341,0.41224162555335986,0.30992322598499045,0.3644891052875352,0.48723742692236605,0.6115176398424935,0.7261069452425744,0.8264105458104203,0.86442838503368,0.8417382169963348,0.8202612036319465,0.8401017184300532,0.8218032749053188,0.7995723572819033,0.8156884863387461,0.8732369912097615,0.9336336363980828,0.9660661690579475,0.979824424083753,0.9707250483254832,0.9382351493511718,0.8695273920393671,0.753607969301546,0.6314111940210807,0.5123852108299489,0.3924922085692495,0.2787863670621833,0.31023547223770875,0.4311269665283206,0.557994495636801,0.679200120420161,0.7850644294876494,0.8439048897692552,0.8320523734985115,0.7968679322494017,0.8114703869475817,0.8065304511778553,0.7804756860806041,0.7981959776004934,0.8607344307958262,0.9142594426093382,0.9392013932912355,0.9382611989638752,0.92741079133622,0.881997267648335,0.7881198854011868,0.6717195870856496,0.5500519670741231,0.42662696587116744,0.3247494704194278,0.3717364941423915,0.4967877619207617,0.6184282220349131,0.7314517387842601,0.8101564729837751,0.8268725192474549,0.7877164227673437,0.7916764785462005,0.818338554611308,0.8117771593738607,0.782012358550644,0.7325964872431399,0.7293051160842048,0.7521558132323942,0.740249423779477,0.6969877860497096,0.7236254771024131,0.7655988028437457,0.7068768609343998,0.5934673937267168,0.4701226973450672,0.3447719409792891,0.2212166789198149,0.09857464996748688,0.0,0.03519834694881374,0.14923358777527285,0.2705344897751629,0.39050367934034713,0.512253687819199,0.6357888610259683,0.7351552667292116,0.8253632624100342,0.868073480291635,0.8713992711212051,0.8692165030412424,0.8257452461795995,0.7694893283236401,0.7189918017192347,0.7243918619695104,0.7519062253879099,0.7374710966216733,0.7042511953720985,0.7516436708154772,0.7827046304617482,0.7161525326024261,0.5994227099395177,0.46462110415071955,0.3379063641551385,0.2111181438268004,0.09099729753275576,0.03396137216768946,0.11374103776764533,0.23330525340012298,0.3585041778632372,0.4855351105499752,0.6164393286897873,0.7366251524298242,0.8435746753835669,0.8861743562684656,0.9078758915448286,0.8988580988355472,0.8554614158231477,0.792794986708486,0.7409598313813188,0.7402346103786164,0.7639255994433027,0.7700155555010071,0.72259573904908,0.7354341213376381,0.7989045719031329,0.7681305277444939,0.6631731841649964,0.5439728766499614,0.4162819229375019,0.29216536325032494,0.16281305728905981,0.05553000664761876,0.06439941995691956,0.1748953101126005,0.29626488528113426,0.41772417871412304,0.5394985761324869,0.6628233945480682,0.7833878148297739,0.8788989788696193,0.9105830223784788,0.9178209067097705,0.9157536093331122,0.8671678604524444,0.8056243972794845,0.7482603256166851,0.7426235633262113,0.77138690178621,0.776741334447739,0.7490665102853453,0.7606541294902665,0.8188863354434146,0.7885016250218106,0.6718166399782424,0.5465530656095752,0.4230184952517948,0.2954861980991035,0.17063932351686462,0.05978907798188415,0.05910560019169586,0.16305638367436637,0.28464573987454833,0.41471203113074684,0.5445359676124599,0.6678972064360871,0.7857777930882841,0.8746246053926898,0.9287354660298288,0.9281815732875078,0.9217294474961462,0.8799067031896219,0.8117749756998565,0.7548552308827434,0.7367091205074348,0.7568010661418076,0.7709642281568414,0.7438445902353721,0.7237599588517305,0.7756372895469135,0.7706620491768887,0.6872684154710849,0.5677503661333045,0.4457364169910092,0.320765791680907,0.1957826081763805,0.0749291324467356,0.02725751469691251,0.12081319501710719,0.2396579874162026,0.3593641644315475,0.481763895726403,0.6043878194315384,0.7257604769814827,0.8312443577412332,0.8730510714573041,0.8654700239439028,0.8582727523688451,0.8134103472707006,0.7541888353376371,0.6912536530645215,HB
0.5908184141809552,0.5404469194329704,0.4659363557291505,0.39943006252303626,0.4129901826640825,0.47210609681927695,0.5357708898001123,0.6157618473319018,0.710366206355145,0.8113683379337422,0.912732488667346,1.0,0.9972892931448512,0.9088050905236611,0.8089285551990484,0.7057964701407342,0.600039762610505,0.4938250617485438,0.38315164038246463,0.2848391984479497,0.2874351865687288,0.3866530218431714,0.49230883217884536,0.5909010318357315,0.6307928882383069,0.5918377817808789,0.5702283667374419,0.5922465752112067,0.59690166014074,0.5689625924355195,0.5078634914758293,0.4373681239517744,0.4104356793924959,0.46188726212401376,0.5196576442881167,0.5923505493199437,0.6835273152675441,0.783787318783209,0.8844318199667338,0.9688415099953771,0.9592254909557005,0.8684647005772959,0.769017152562699,0.6657676984838543,0.5603076774727149,0.4546431538532931,0.3520558869351009,0.2827131610069169,0.3486923630257963,0.45754251392180056,0.5569082900105642,0.5998713163823679,0.5641481286379728,0.547097470307689,0.5631522631769501,0.5558470016780737,0.5125903733146799,0.4418520207292074,0.38088444006192534,0.3960082480295819,0.45577042317165306,0.5164030469912977,0.5963521819056217,0.6948349890967851,0.8000060711879959,0.8943458640388757,0.9178918680955703,0.8366462984233112,0.736450093334349,0.6353167049106163,0.5302551863432492,0.42659160576128374,0.32622985655422165,0.28650301715971027,0.3746825851209834,0.47767989244767417,0.5686489046264209,0.5797654718140666,0.5444292251962619,0.5656344890490184,0.6189641029052568,0.6272866613200683,0.5869011653208078,0.5214652928329739,0.4495026602351013,0.4316297911902758,0.4829470180629203,0.5407686478481402,0.6223925735164499,0.716345868286302,0.817202704779334,0.9074308698316342,0.9628104050812691,0.9132002597746376,0.8195437204111695,0.7190919812048451,0.6157640545005543,0.5118436168157134,0.4092812193014108,0.3355824733559327,0.39548897295451213,0.49994880490898974,0.593437078708287,0.6053726667526476,0.5598062518398497,0.5464581099776145,0.5672780036239733,0.5589290560834046,0.5163695877454142,0.4466450437578209,0.37643500495822146,0.36835189567766236,0.42004199110453255,0.47925010137209,0.5573363868237451,0.6507854786560183,0.7521854809454003,0.8516093139823562,0.9189385577986902,0.8768097486137476,0.7805054877552244,0.6724640911843702,0.5755223744777289,0.48925390128337587,0.41751752492298344,0.3286152181162989,0.3321380945832131,0.41780058135662723,0.42085669210134813,0.36652973353584106,0.3174313363844621,0.3315864815120111,0.40131792943246514,0.47245171229108873,0.51730775649497,0.517935554549031,0.49866638059912094,0.5302693339464681,0.5123854128203327,0.41581122174165164,0.3074853070135102,0.2023068374120467,0.09449410837133687,0.015998616591782144,0.0631611327133399,0.16670713165392814,0.2712520964798586,0.375466744457964,0.47824229804054186,0.5807470659355021,0.6841416214130642,0.7862782767636811,0.8753287612915586,0.8558378761613221,0.7575043704707556,0.6584003975574086,0.5697555322007468,0.4970233009490481,0.438727882288958,0.3846612278667716,0.38891682849404274,0.4535939376827953,0.5254279753902484,0.577322420866353,0.5825340544704982,0.5340853277719593,0.49366847944370895,0.5169991039757407,0.48499624961545784,0.38391090185061594,0.27764188725193106,0.17065515728528635,0.066296285139533,0.011743274284096938,0.08496640071809991,0.189182690168612,0.29293905773652695,0.39516603243053505,0.49806018445605926,0.6070886746069042,0.7134515157485339,0.8111680572420266,0.8684811173987665,0.8004440143504712,0.6992826930264293,0.603586288537437,0.5118642698917713,0.4450444121210815,0.3863896352562439,0.3335558564953567,0.3373868115203158,0.40408815060473446,0.4763245462881516,0.5165136900419176,0.5207584733956152,0.5002528641809618,0.5185155721090828,0.5165985177462897,0.42687439281081185,0.3199071953402892,0.2138961999873723,0.10678153123919099,0.020950029046267082,0.05313782543130774,0.15511568536767983,0.2588615831441321,0.36197009914635236,0.4651977985359783,0.5692497377723573,0.6746397502352313,0.7784879578406603,0.8760498155830332,0.9024351179946433,0.8143242772635573,0.7119868622884389,0.6174166208948466,0.5329218830910785,0.46735479458063245,0.4100728513231844,0.3610288144102958,0.38068917172557537,0.4498253412513662,0.5181908912925313,0.5540744139183298,0.5516304387122257,0.5274345502674924,0.5487210513465948,0.536050466978188,0.4418996177031993,0.33392047719101514,0.22844688469950003,0.12224033135680079,0.03255995922942334,0.0,0.08982432125168038,0.195574595138021,0.29851180931341803,0.40159661269125513,0.5068081055498996,0.612307243423315,0.7176091290217046,0.8210545525684427,0.9145584573885821,0.9238889592735908,0.8305683573281781,0.7230161898888232,0.6260350462645323,0.5384311437216862,0.46890387551271195,0.407201371635993,0.3519628582741692,0.34605950096978133,0.40929007782808324,0.48545430953456026,0.5439966914409582,HB
0.6337845414542276,0.6211429576518741,0.5732290748401692,0.5669604711062752,0.5922249646369941,0.6418528675262571,0.7378604295164006,0.8297056189867691,0.8653832049238752,0.9666410531975367,0.9634609850651081,0.802771324339044,0.6253308195580822,0.462721247276054,0.4520896616578951,0.5991989053857147,0.7534427200959257,0.8618799362849607,0.7807715696463315,0.6462851795346403,0.6270859777496138,0.6222498500622708,0.6593780356492367,0.6193746990570079,0.5507745031701639,0.5846712213568237,0.6478668624722257,0.7410162273479517,0.7694461456214747,0.767030901013436,0.8782289074360623,0.9873435123789718,0.986753297174896,0.8402126257597651,0.6646391105457301,0.58150379008474,0.6497453829957056,0.6754345487895206,0.644827646325898,0.5100008389815627,0.46511100903144387,0.5069221295961999,0.5646245223219268,0.5384954222182534,0.5558830408336264,0.47555299854932276,0.45106212579275917,0.5338034411602135,0.6308659205111224,0.6561220174030589,0.6746815390548657,0.774036107202972,0.770864360382912,0.6235257167215678,0.4644473664462292,0.4876970942274972,0.6265451663914683,0.6603311007809802,0.5725537001939132,0.5593979181824467,0.5716538918775469,0.611189326028625,0.6278382756920524,0.5714200796615154,0.509371571447776,0.5654184488777307,0.6621006736161941,0.7029117137638696,0.7374814687626152,0.8292049510647854,0.91593562077284,0.8384295827990766,0.6718707027691893,0.5239638040390782,0.5734798576767073,0.6986830111884927,0.7040585986524772,0.6349348601759832,0.6284138123042999,0.6436439606316471,0.6363771493070254,0.582937453357899,0.5553421842632962,0.6284474699581946,0.7228853431135165,0.7890223296377012,0.8790983789525506,1.0,0.9764178771940557,0.8195149196973066,0.6541008632365513,0.554003788577401,0.6419518397291388,0.7478985597041694,0.7597271390178997,0.6443199621790416,0.6028568969200752,0.6539095854308159,0.6784518896226377,0.6581202000605497,0.6151641088142301,0.5313788686185421,0.5057558781605347,0.5798412146350937,0.6396455587535144,0.7061979687080524,0.8035186198291373,0.8799679420233693,0.7901957161981294,0.6256636805890454,0.45968350691780735,0.4219821903692189,0.5714117448109537,0.6814731628293131,0.6153754723856149,0.5223025611874688,0.44520091748883583,0.4821844788804146,0.5143497245584219,0.5389539522605742,0.4663612159539996,0.4520203044438347,0.4627813268808838,0.3580855038949995,0.20945790386014762,0.043150185852943945,0.0,0.11314361553775232,0.2747587047847295,0.37468357299671196,0.44019825296311943,0.4108825441441786,0.3489931017662218,0.27749407017755967,0.33381179573106934,0.45879681739796574,0.4836355485430981,0.3433969755834543,0.17698454322913637,0.07832721627275907,0.18374807242247293,0.3523878732719199,0.5260056910499986,0.6529810176251738,0.5916321472426951,0.5119295105830197,0.43971113835185704,0.36758896322551404,0.39110769376945065,0.45906669490885976,0.5390661181629399,0.559399130881622,0.49220980264716774,0.44882102242171573,0.5194325902954144,0.6225647613516454,0.5718608945676031,0.41838424057226975,0.2518522873409892,0.171898241343456,0.29322451190614673,0.4663929048284463,0.6363292796916746,0.7794939251957729,0.7357208450252468,0.6721247206308325,0.626909764776904,0.5229702677911758,0.43735371960953406,0.4519853411896624,0.5061405010067919,0.5303908177825747,0.5049989922931344,0.48450618678728175,0.43215958992918724,0.5323728441950992,0.6028532415979067,0.4986720643117386,0.3387618967641335,0.204069118954469,0.23281534734065534,0.39513188591945747,0.5644804798983598,0.6967039318491488,0.6573888528530389,0.5898140899016342,0.5839743118027703,0.5079605873769539,0.4274498466173644,0.38490965232310526,0.459123946696506,0.5015845611666987,0.46713234063346976,0.4302120600070003,0.42600240939409195,0.5099053700112832,0.46479309334085706,0.28849227424135293,0.13424606846188025,0.12861071809616575,0.27230952640482364,0.4390428032518283,0.5678184113824103,0.5152673623696185,0.474976881250579,0.4291555926468451,0.34756930729256297,0.33466356747841974,0.35229300324823276,0.40084323855214965,0.43824507524398015,0.3621169327351197,0.33742098105511387,0.3493731114411962,0.4722558778521102,0.5021212105421489,0.3989353325908387,0.23441308221290003,0.13038641984687027,0.22781906262356433,0.3972526005121555,0.5671817244514252,0.7393762895054277,0.7811475442128128,0.679700752721557,0.6185687686299768,0.6398837875842367,0.5300459302544485,0.43795558114003574,0.42854082807275606,0.47191240622804953,0.5365838894777681,0.5177822574949165,0.4952306519772538,0.48977719944707676,0.5005149141809477,0.6220183371291355,0.6214665338635421,0.47410390444532124,0.31637562935369656,0.15478764166860204,0.04173899552833893,0.1391212485339497,0.3103604285620083,0.482354776251106,0.6521162364298281,0.7742518100869771,0.729870575642678,0.6468247903139073,0.5529808678815442,0.46906151905613624,0.42333947907704195,0.4512945479924322,0.4781062595254557,0.4845708430780826,HB
0.5562890825150513,0.5563477032866313,0.5652348138729204,0.5967891162515322,0.6027208196742029,0.6066627107939482,0.594521206738686,0.6051569359212099,0.6204938078296198,0.6470335052324847,0.6776181426992798,0.6894436972797511,0.7065176885803508,0.8565356188146573,0.9178489817063458,0.8152468652425409,0.6634347820213238,0.5930721288943301,0.6480121665131984,0.6562595913834119,0.6023949827622319,0.5118971303982791,0.3882886230011877,0.2833147562956828,0.23500486861225767,0.3168851054452606,0.4394958915531584,0.5118148889439089,0.5548074872753741,0.5667608155819517,0.5679041281270392,0.5564631589089419,0.5626592878743581,0.5897626549803148,0.612463899441333,0.6259354930077121,0.6208529286568334,0.6510319383967378,0.6669714046410844,0.6904312710862435,0.7141793584542109,0.7673592702322685,0.7965347924437083,0.929208806564997,1.0,0.9044182676286185,0.7566575724262421,0.6567532393901541,0.6976824290043853,0.6877959802364746,0.6294969835554642,0.544891258355193,0.421609244998697,0.3122500657346672,0.20800922012195855,0.24309330274930208,0.3703237398012016,0.4725065108340214,0.5498981953346265,0.568871118872381,0.5565663415314726,0.5562890825150513,0.5566442345186173,0.5732907155419085,0.6025974712958346,0.6066447484775876,0.5994775261850274,0.6346251121751161,0.6606344194528031,0.6636394435378659,0.6606567965490964,0.6920161031880134,0.7179756781797035,0.7549582928805814,0.8972344582789376,0.9683300863146318,0.8623577025818987,0.7054612649172567,0.6246949031212674,0.6874412341352487,0.6716719935291859,0.6211051914638706,0.5444703364897725,0.43125248772498015,0.30821256473115977,0.1898742438745442,0.18232309697066995,0.29764286013456953,0.4129200932477364,0.5065854248964801,0.5522407842927324,0.5706395632990198,0.5569108659025384,0.556265729975201,0.5526586962883053,0.562829903256242,0.5984717529255619,0.6093724802852076,0.594736451044029,0.6069060847456198,0.6225262930919149,0.6206640311055471,0.6356852544865648,0.6601713316342286,0.6940776040479779,0.7336520090401013,0.835799851076402,0.8316462049333841,0.7050871415638049,0.6384159033899497,0.6387506273883474,0.6285068235829376,0.5731252089345622,0.4623390487254344,0.34802738668050104,0.2178360669622954,0.17611812793517245,0.2642416795607625,0.3920346538227619,0.4932608733209429,0.5463108796924159,0.5551969892769097,0.543256386699082,0.5284608956758161,0.5266422219678493,0.5511211434129306,0.5007588082080137,0.39643229697815574,0.3618130077644244,0.3651993334500796,0.38032616672004593,0.38088564807375924,0.38697430229706686,0.3583054098621794,0.2858954812349026,0.15104550476124334,0.04838133567278824,0.03645323327818151,0.1008371839674913,0.22644836701718418,0.35647397331276665,0.44442836508314176,0.4703519610578901,0.42391878104204306,0.3897629518471666,0.4846882268659627,0.4438632916869434,0.2803760779411224,0.16393975871328959,0.2163608999142097,0.37531419491776585,0.5036883140284729,0.494267210512378,0.45969099370525424,0.46306195315877563,0.45305677258134036,0.4349680235284499,0.4385765328565645,0.44041391113124195,0.4251977267780438,0.3981552957999792,0.38365026545826186,0.38539396863601727,0.39269352919261813,0.3965306051739663,0.36902761433952147,0.29683194016453474,0.17520077000561507,0.06699104281277268,0.0,0.008706338361907484,0.10607998155070142,0.23895488791688457,0.35084552495537213,0.4543865172809527,0.5018470068868819,0.5008804764529851,0.4842151063932212,0.3685917074007383,0.2478783608450552,0.28824870614542064,0.43299395137389407,0.5598077832214701,0.5270199532428679,0.47942203444878917,0.4576024252282238,0.4561415347095483,0.4396078950204574,0.4274209636532893,0.42290283998155154,0.4006031906256293,0.3940801021917304,0.3809976555697636,0.38859953324291396,0.3961478577278754,0.3785329750689135,0.32471128522664916,0.20222038451951185,0.09707890540469855,0.035650927864729454,0.07860919844232583,0.182026204083523,0.3084605976386783,0.42701646146126837,0.5126126922150354,0.5380502154277398,0.5070215666752009,0.5310236674947717,0.45915654510517,0.3350521541290812,0.37223765413569954,0.5160856791724582,0.5866123460879296,0.5363378489296258,0.5124337922955782,0.4863750406186922,0.4636428089592348,0.4417151748946031,0.4298953202824576,0.441490131840621,0.42044078936266605,0.39893072956079934,0.39368606216743984,0.3898550855380467,0.3934903727224821,0.39009052723521,0.3922872752196982,0.3126936116457424,0.19946895341405924,0.09520817531903436,0.050958887897436966,0.10866294567662127,0.2378660935729595,0.35117647318060285,0.4585595372553337,0.4915428220735354,0.4741258174660503,0.4401607807789283,0.428023002864685,0.29051920252361185,0.2649570850969374,0.3875325967472234,0.5056245516254645,0.48381489540791733,0.4568612085215227,0.4404573507700187,0.43890195530439335,0.42932362590528594,0.4321085156881477,0.44726614423370403,0.40850091641818587,0.38163358359860045,0.38492869058393975,0.38491547392313574,0.37837532426142406,HB
0.6343503317895343,0.5368755557395966,0.43431302072746836,0.41175380569190234,0.5125560695433302,0.6212894671674585,0.729844352442363,0.8435973305886997,0.9408453022319081,0.949407545654924,0.9049531003916902,0.8876147253597411,0.8517026875806069,0.8614003705985149,0.8745487444047624,0.8682038857645036,0.8815141490031169,0.9322884823086832,0.9508386668362216,0.9531392984269902,0.9496700041679402,0.9461282892654193,0.8950475110225933,0.8014707995183292,0.6985228621532409,0.5905395895575161,0.4834656169144098,0.37892061048201375,0.372293301158092,0.4774384897095105,0.5830828768493428,0.6956624476863,0.8046109696866812,0.9122075764806608,0.9863199350432772,0.9489235134513094,0.9170397527893595,0.8997976803122232,0.8567203884308434,0.856160916023555,0.8692591030975703,0.8663692183947094,0.8987339192081001,0.9529588953427448,0.981068341354381,0.9900847822498322,0.9999999999999998,0.9897543423031216,0.929910855660568,0.8341002350257691,0.7318893932038044,0.6263812708967149,0.5186997516052501,0.41981509542607,0.42647466428695724,0.5324934184607617,0.638281892662715,0.7504748966422541,0.8559802472717644,0.9600850041478808,0.9975236335198432,0.9382579639021948,0.8717297794419816,0.7968841827313893,0.7193796802834176,0.6401694849963391,0.5627087431568523,0.5504120776683696,0.597906038986926,0.624806764291584,0.642197781428391,0.6944262051028793,0.7440538216159198,0.7515787591244707,0.7617232840758843,0.7704702636926914,0.7727825303183506,0.7184865135680025,0.6225826912165628,0.5186167887439299,0.41823154011805275,0.3981794217077428,0.4959447475912473,0.6060166736075536,0.7118489834469299,0.8096170688197317,0.8330902208325546,0.8100502231905191,0.8042676007580905,0.7802366717885112,0.7912345878491205,0.8141265579713266,0.8044157445475009,0.8261584821082779,0.875248118240288,0.885532587645707,0.8795888173425042,0.8831071365190961,0.8558314369973858,0.7844045605462451,0.6841492945222205,0.5780222825231303,0.47252762043473995,0.3732301925881647,0.3933488745227136,0.4957950263683022,0.6064627314129318,0.7167129346423129,0.8216704793646323,0.9032261147308904,0.8803451757465568,0.8408693602094119,0.8246512450150159,0.7905414307283081,0.7779153264392968,0.8091883954391521,0.8053141810520879,0.8143277564173113,0.8528788118430366,0.8714927618570381,0.8488617009728461,0.8101125928825297,0.8054864169752018,0.7888963709584476,0.7462359602389219,0.7373545607044012,0.7445866171043294,0.7182645150013287,0.7372082206081925,0.7756417874824215,0.7952523296656178,0.7955005542319118,0.7039212766372633,0.6116563305085159,0.5125769320501696,0.4185119884552213,0.3152057099157113,0.2037283001684851,0.09828614233682353,0.0006414589550918226,0.0,0.09419445474476973,0.2044928772334036,0.31274608493029654,0.4217823279798083,0.5357770074743347,0.6421277895683501,0.7439889005751783,0.804911855187666,0.8171501691452729,0.8199532442395034,0.83079668181927,0.7958469477948629,0.7525322323265511,0.7563860838230971,0.7490671453267239,0.7238345516072036,0.741598888746402,0.7547535656287057,0.7431416590440092,0.6502211284939103,0.5438430264118717,0.43286541918399735,0.3209046593835849,0.2149619084647365,0.10289321812829422,0.010912235571442386,0.017620446239334564,0.113498414600955,0.22008902157546983,0.3290879468311463,0.43524972449691135,0.5407866101941294,0.6471839066971783,0.7150133029697296,0.7063875673724811,0.697317887827303,0.6874803380574239,0.6698602260055659,0.6113506878795398,0.5776986299492792,0.5575508475554336,0.5097187098184666,0.4829210921957947,0.5315181184340911,0.6083729240901916,0.6874928219642109,0.7676800010532394,0.8381625671116557,0.8949442392920075,0.859554645063022,0.7486955430804292,0.6342300555771319,0.5260487264684539,0.4168950272417329,0.3044441215579412,0.1996767614906516,0.11996476805235434,0.15914681959740218,0.26125944021591496,0.3693449927311103,0.47750660508604503,0.5845185130692059,0.6928858374054427,0.7980905655213635,0.8978657370296508,0.9386377057005897,0.9324472758865932,0.9229039915085913,0.913757872749924,0.873785240181147,0.826814251202473,0.8132321933124949,0.8178723962816539,0.7902560392128015,0.8071313032776974,0.8449474929450103,0.8619477550710897,0.8789829864145668,0.8308333548924327,0.7253925907565411,0.6164188263001471,0.5038635944930934,0.39820021377979753,0.28485914775470134,0.17331585707412933,0.11840228419521615,0.18889949415523444,0.2934293489362949,0.40406092232534396,0.5022695066501563,0.5948661831915751,0.6997542023129875,0.8042085483147174,0.8851763029522253,0.8976283592275942,0.8854330351873065,0.8871055572848807,0.8728905535662641,0.825887019337409,0.8173451874192927,0.8194499032714571,0.8048148101734849,0.7939530774510126,0.8285318895825429,0.8499584417683226,0.8399471399477274,0.7517323874437951,0.6432516647949529,0.5344129773908461,0.42607114721956085,0.3138679299711471,0.20816968728957974,0.10489194765788135,0.09175056341786836,HB
0.87226781504929,0.8341468688411795,0.8465484203894409,0.9146041615467935,0.9601923692655265,0.9657498767744592,0.9290297705119261,0.87622244925908,0.8363290426037835,0.8089646452032926,0.8390713743170553,0.8762370105130668,0.8967065337834159,0.8686560017697427,0.797677874563252,0.7125368201814177,0.6174934917089066,0.5212978003721256,0.43595709920489245,0.43327942625774685,0.5211911044929525,0.6108112993583914,0.7053117459256522,0.7939404098912168,0.8692665047979538,0.8873400443202899,0.8696391807663217,0.8263889743814585,0.7916262962754217,0.8317630345371012,0.871546067995095,0.8662010246502931,0.826880764332818,0.7726549192320586,0.7534634913917673,0.7813211914837801,0.8199149405455846,0.8393361284710665,0.8267588669161525,0.7649881848775784,0.6766924451775032,0.5808014167131572,0.49769924843848634,0.50577826119346,0.5905993037920034,0.6833297539696679,0.7710425195763067,0.8405495113043921,0.8503405845568437,0.8309885574371072,0.7888084262700079,0.7942461744816764,0.8359530745524799,0.8504119582103162,0.8238068561608765,0.7765172937804148,0.753752838903351,0.7873238329378303,0.8390076473033896,0.8816584974343076,0.9030623525973103,0.8725863300938683,0.8002994588965315,0.7075534374636003,0.6257509424661067,0.542863386448208,0.4818196916219004,0.5410368342922496,0.636438035029453,0.7265508587013483,0.8155898956355621,0.8900352691502325,0.9069712780162111,0.8955067614282894,0.8573621449414741,0.8459675487379401,0.9071674106989709,0.9549882885150585,0.9715167773417253,0.9425645052462532,0.893806880487982,0.8666360474694546,0.8573766687057145,0.8772701449307978,0.91288133462838,0.9303476284672287,0.8972294980865407,0.8188334972160343,0.7311400541182673,0.646140232508329,0.5634570995801169,0.4886209187401176,0.5211795479393642,0.6143003813401662,0.7038457977520043,0.7973829437211988,0.8854918334549426,0.9521697004045115,0.9876780180293998,1.0,0.9508591911956252,0.9073876979079647,0.9278879770227966,0.9613035068235716,0.9567287149704784,0.916587535734078,0.8679537773952763,0.8593325323173384,0.8618533604612062,0.8910161783886985,0.9070650629149837,0.8780094641902432,0.8356745098994915,0.8194966160806447,0.8240094921165722,0.8387180222273156,0.8900715977539437,0.9302893209991123,0.9212960782296005,0.8793146157865537,0.858968081672395,0.9020754003153812,0.9542297779782198,0.9488081280281,0.9065200368795385,0.8247920662091959,0.7351782938812121,0.6429285551905961,0.5518983488821367,0.4555346021532578,0.3617857873940944,0.2715245841493452,0.1807695918958745,0.10293093533243403,0.047139993798981594,0.10062425592752444,0.18925386232714592,0.28494141133560213,0.3815882598299718,0.4774996092668744,0.5613201782324917,0.6378827140770194,0.7205176130676825,0.8087826807660938,0.8777271229781822,0.8844950386313131,0.8490689029422542,0.8138557546860512,0.8222068767435393,0.8307422861984093,0.8666926829398316,0.9149835627179908,0.9319169694583034,0.8979485168377763,0.8360749335169833,0.7992508804155918,0.8292469782633893,0.8644122994227685,0.8527174183374946,0.7775495143882414,0.6846952550217011,0.5951638171464695,0.49973251776915895,0.40559333234454353,0.31555944369182853,0.2206175907439658,0.14081938026074614,0.06170108390343543,0.05055744389120742,0.13446135858968788,0.2309368886905494,0.3235545183543833,0.4148182290515672,0.5111808634863024,0.6039097597532936,0.6941836973919706,0.7805703669820405,0.8492425867163735,0.859818781176064,0.8242858527407642,0.7707828541357127,0.7252172900713125,0.7201377730486453,0.7582140137251623,0.8039954895396677,0.814095134993607,0.7761736526186913,0.7397897139299272,0.7654011559112655,0.8095454163170621,0.8129418181688126,0.753358936100462,0.6645620551944433,0.5720899207920327,0.4784185199956954,0.3881116336597865,0.29200686772763795,0.19969102451763,0.10890672399954315,0.03042035131312948,0.04715099298565706,0.13691901266530215,0.22677028431274648,0.32274804216763875,0.41782371569558485,0.5073926913598907,0.6008766035798949,0.689063706675328,0.7703350133300113,0.8068372197107148,0.7886742142478305,0.7508139021969744,0.7208123864416733,0.7245548389724583,0.772791671256809,0.8214807547225695,0.8351947912132991,0.7960822274225159,0.7520556100215658,0.7713763787080217,0.8254898278378071,0.8485249711127623,0.8123488171669655,0.7244135907051803,0.6343443897494843,0.5388441850316288,0.4489217798842777,0.35461924913831644,0.25982493891098724,0.17015848861612404,0.07625588242111803,0.0,0.021939005174517634,0.11147861203739495,0.20211207159709887,0.2983993057963401,0.39256410503932826,0.4825672785267838,0.5762153910858572,0.6649291998571507,0.7525016659307628,0.8305761066870936,0.8572284597354192,0.8317917678663307,0.7879714348111782,0.762020717044664,0.8000056091136343,0.834964465857206,0.88800334045205,0.9280559943561024,0.9225430980123899,0.8653400919037753,0.8008391436047382,0.7913081900297003,0.8333927336047322,HB
0.8023227425754702,0.8871744025067563,0.9744588467616264,0.9999999999999996,0.9541240842758372,0.8942068342890388,0.8482735638135939,0.8069116779268883,0.7403552491236973,0.6342998082720905,0.5442611119468448,0.4664035360133649,0.3663446481003212,0.2575412968457851,0.17780465545344848,0.2532431663624859,0.36939552457470715,0.4762919173336817,0.5684900940872493,0.6504452286170088,0.6944833165204898,0.7077605314810111,0.6756949387490541,0.631319953852024,0.6561779424868086,0.6596110332715712,0.6355663483420386,0.662743732927825,0.746418985681434,0.8356402624704553,0.9185236491437858,0.9481304225095393,0.9033247119013144,0.8535044769840385,0.8148920972139262,0.7743915459971582,0.6973696487346559,0.6006275590873886,0.5215437971114492,0.4344377513478266,0.32571496564197,0.21346578237535363,0.14773791301219363,0.24071970232267903,0.35611931019144594,0.46462011641178114,0.5580984248378575,0.6449091316421285,0.7016470204535405,0.7006312612711927,0.6723818074399222,0.6251633301131716,0.6396074575033484,0.6644042324934478,0.6529453799209812,0.6798371065739803,0.7646315597611606,0.8569030077635595,0.9379784148119885,0.9861421402716535,0.9637663137737662,0.9055749356255425,0.8604280767795816,0.8285849552226998,0.7664558538489894,0.6738450352675756,0.5876542610619162,0.5029927594628072,0.4019015541076225,0.2919718845189414,0.22638645298947058,0.3121313712946736,0.43686801217009563,0.5394074715948718,0.6293433239923694,0.7043232988114565,0.7332721799536315,0.7114749957322903,0.662006162996458,0.6687935276012396,0.7257981875508093,0.7502560068731556,0.7289973931538865,0.6982511500201132,0.6674791100176161,0.6589053851078339,0.7283140391089704,0.8171982580545256,0.9034848205417583,0.9585609003341271,0.929145898256801,0.87728919972818,0.8375287816534303,0.802120115998215,0.7407562569109505,0.6502770843650998,0.5591421741465497,0.47935039381411393,0.37611477943231497,0.27026397996241425,0.263447775745437,0.3744573219290417,0.4973425565929257,0.5966028124556169,0.6805152302462258,0.7249028004490277,0.6966735721003179,0.7108098351996359,0.69941976503093,0.6677295960179279,0.7215979208081942,0.8136863199454827,0.9077368509052723,0.9764964251992589,0.966186194616538,0.9037823536007825,0.8555683837059078,0.8213106824676535,0.7724349919742304,0.6866661903583249,0.5792176553787622,0.5073295657083965,0.42671383713901,0.2986090297872339,0.21189861754909955,0.23076154083165568,0.34374586642555416,0.4673472137942265,0.5307202266712765,0.6164325490915297,0.7078303163828834,0.7709125693117271,0.8057338806007182,0.8506225452645158,0.9061809228799458,0.8911107134359995,0.8024616017678965,0.7002852856645458,0.6259119761305665,0.6058754868891771,0.644771203953519,0.6436067092138704,0.6407912619055027,0.6468777631236122,0.5754500692484994,0.4795070497902283,0.3658815858224904,0.24922845937182858,0.13460603123119874,0.06490150521731497,0.13357227327214183,0.2421836850297172,0.3519803695021806,0.45581343759426796,0.536633442211095,0.6262042808996364,0.7140410120891936,0.7633553191471574,0.8019912107649843,0.847847319313225,0.8846228828873466,0.8246084337051509,0.7329069163617055,0.6477784974860037,0.5917357997387249,0.5947362344241869,0.6344885012314667,0.664971419171609,0.6933617949548787,0.6887343538730812,0.631604792325307,0.5870837294654732,0.6197338548221847,0.6730852765195681,0.6778105475328684,0.6125835451491262,0.5234484878595782,0.4215563651191596,0.3099388456459975,0.20251275768457067,0.11221267888807462,0.06989706964493037,0.15061773149706736,0.26110937091078235,0.37368219392195323,0.4774177353388591,0.5606909257581658,0.646204521998861,0.7387333508628342,0.7966890514940097,0.8267617311560005,0.8792014392834071,0.9271314719981323,0.9007123053211834,0.8194840223437705,0.7288423364729111,0.645419322490993,0.5990769279008861,0.6103616970467614,0.6026525251993236,0.5667468344075957,0.5909148615156212,0.6406330955127228,0.6514861770903275,0.5876587083997427,0.5003783733489269,0.3992997679336745,0.2879452867480423,0.17373862924359829,0.059262118814671805,0.0,0.0706402579235994,0.182315943013728,0.29334850321084316,0.4022780485800639,0.4901590029907297,0.5722588947779479,0.6673380820004526,0.7390799081234491,0.7780742231711293,0.8173004805952528,0.8720778913223843,0.8687551136086338,0.7823653002033351,0.6884072967794643,0.6085548987742135,0.5815875808496265,0.6028190167331147,0.5972036340852989,0.5673624978136553,0.5999247676798247,0.6502492847751578,0.6437073737954901,0.5815493033216885,0.4878211816052782,0.38643236822619187,0.2721675808482491,0.15753831726820122,0.048449390948544835,0.001991445265960845,0.08143462185713224,0.19393452880553452,0.3062776685783848,0.4114158852295864,0.49850141236720313,0.5883929770787732,0.6881099895290403,0.7620120961515449,0.8053340527098389,0.8487298424253416,0.9085459685741517,0.9331919809635858,0.8633233535548182,0.7663033904639089,0.6841140979276408,HB
0.7645887837484147,0.7745108252888249,0.7681084851258706,0.7427795395584209,0.7189315203057125,0.7120285975443152,0.7335028603181446,0.7512820576333719,0.7320096177266595,0.6588648763095704,0.5724040364773864,0.48121434167802457,0.44435905329527503,0.5251192670573905,0.615402296801657,0.7132437741355846,0.8041619491702556,0.8988399410646382,0.9719397433460599,0.9551950522901749,0.8783686678736771,0.8240386081348647,0.7952358819146343,0.7416024875192158,0.7103722393538956,0.7366765367924148,0.7582506899309174,0.7683933400424638,0.7690630794336439,0.7624815755679208,0.7294781873612111,0.7119680334011356,0.7366805296554906,0.7635186526697295,0.7868284006164095,0.7797858234011417,0.7155234742161467,0.6311797615202752,0.5426660279513356,0.45800761530134304,0.4781039896357169,0.5735330021353597,0.6670065332180724,0.7599155744593358,0.854652210416327,0.9444374781942713,1.0000000000000002,0.9517989715531587,0.871918778520665,0.8224685352575569,0.7937603116866037,0.7472413785139305,0.7361583777762106,0.7532568329346441,0.7535030967572875,0.745894794039552,0.7535288302340584,0.7402351882582587,0.7114516697108588,0.709522105829316,0.7314883999528721,0.7535911665468615,0.7456053699904615,0.6850272548370933,0.5975851150726172,0.4993376991780767,0.41306715136470085,0.42469092450359724,0.5107374879646709,0.6071511852029037,0.7035124373911115,0.794040900980385,0.8906612392351161,0.9688725586923692,0.9636644813402733,0.8854467909184864,0.8193757275242162,0.8072131028650016,0.7647834532977134,0.7235724834653003,0.7464730336568774,0.7688905005811624,0.780791829145542,0.78717765442888,0.7888024499182194,0.7708055762399855,0.7371951901811384,0.7300929886665248,0.7448339662641443,0.7681442718296962,0.7787163849577043,0.7415020622599064,0.6635923563159698,0.5763402767883141,0.48204583129248246,0.4066150453127948,0.4428248966486088,0.534198896549958,0.6276857307327508,0.7243176887603895,0.8146439669500702,0.912618609249835,0.9871322634649478,0.9602110977327796,0.8847068930628341,0.8438272307620507,0.8121744880353943,0.7557143055785878,0.7211492779962188,0.7423271003685172,0.7597574677365155,0.7569105766843249,0.7586712508448732,0.7532905564934593,0.7191716080319834,0.68302678835147,0.6851766426755204,0.7070518402107473,0.7233183289637297,0.7033566851302788,0.6737602606253195,0.6529408267446801,0.6407154913230557,0.6555943474013721,0.6939410057389759,0.7132475125822226,0.7177774945960065,0.7182985331174592,0.7018693544748349,0.6795464850808457,0.6919941253902693,0.7466958569457487,0.7929113531215422,0.8136888397921662,0.8311780565277946,0.7536717549986134,0.6636837722332478,0.5671005858712415,0.47642815285119133,0.380295608196183,0.28100327730886665,0.18200871314981715,0.09429428034505971,0.07415475822846873,0.15079668089440013,0.24095628690750548,0.3364840851248101,0.4272049009039427,0.5221936968640339,0.6096477391384709,0.6806556528668184,0.7308918998221949,0.722830310178326,0.7009470590843414,0.6904861386453638,0.7031978756503279,0.735057687306506,0.7473991403993068,0.7478612660150332,0.7428381254188945,0.7221995107780479,0.6840445025712005,0.6771144453203746,0.7269642959921512,0.7682191481788749,0.7793051902397903,0.7966623680982952,0.7217808710264773,0.6309090151450392,0.5353348962380873,0.4405467133508765,0.3488734780158973,0.254280356120995,0.16270905612353337,0.06832073591806731,0.0,0.03537008478090797,0.13012149261268458,0.22015016617573835,0.3169034284462795,0.40727286333592483,0.5007402723859236,0.5892766184337992,0.6728200906406159,0.708170898613359,0.6916458966576366,0.6700668672642107,0.6663946413928441,0.6855260199682898,0.7095167135333427,0.70780073324669,0.7047366796448296,0.7112162336890011,0.6972601213472516,0.6747071807124903,0.7057517648939549,0.7542442726645031,0.7809046122840411,0.808825762657756,0.8160977046978253,0.7283208609413385,0.6290423121011184,0.5297285140768202,0.4307422602577837,0.33899029694780514,0.2448028945502776,0.15419255243330587,0.07561722424605999,0.08981115242267679,0.17568167226054143,0.27340576894251023,0.3635923609305163,0.4603526926907957,0.5519868252402864,0.6404380907539982,0.7233901990732508,0.740122821669418,0.7172156574347486,0.6905360867771477,0.6673916985314878,0.6822178343348664,0.7161657420629213,0.7264806315020758,0.7248634333472903,0.7125430862081619,0.6889939490083543,0.6617751109114784,0.6869735149880885,0.7449622281938211,0.7755891532974915,0.791069335470864,0.7393146679746627,0.6471080852481454,0.5502282345118727,0.46001983044115113,0.3626383304325669,0.2721820108454318,0.17608948795605173,0.08706016645692505,0.048408253682141744,0.11531127098855998,0.20667944900005208,0.3034458943480438,0.3935927315607186,0.4896824048207431,0.5789925622672711,0.6636659977718649,0.7075197794156349,0.6919515066899511,0.6713099433917791,0.6768696172552524,0.6951215251459415,0.7241626695051553,0.7298363351316446,0.7244414356145723,HB
0.6329961156493473,0.777477566107426,0.8821488310849075,0.7991069146398075,0.6275517587698589,0.4646074086490968,0.3790138745658762,0.45047045139271,0.4382526644030573,0.38600599482448583,0.36341354282791904,0.34933836250492156,0.35687830119324015,0.32286572855500406,0.26000285700361747,0.23846368559500775,0.19994128767571517,0.262650174901502,0.3506634218225493,0.39460068950528715,0.39902915185803334,0.4643858736220743,0.5143325168292376,0.6490621298278407,0.8282176167648672,0.9215420272001333,0.8311865227445754,0.6666019479089007,0.4999068839815237,0.3834884633505897,0.4039019684918159,0.47360884459707275,0.44370815072621284,0.36396843506274745,0.3463382712885936,0.380370848217618,0.4025197433272609,0.34859941078594225,0.27697508832294826,0.20682617764186162,0.2050927742108124,0.2719173005460851,0.35376046118009263,0.36599197429612396,0.39195571886157143,0.45662432792710117,0.5835509517116089,0.7426209197814257,0.8814159932796803,0.8579307385027466,0.6944210628545804,0.5296767601190702,0.38034289231581564,0.398173944104971,0.4330931714114872,0.42285252081404767,0.34940226696826837,0.3782067234940669,0.3721828260665223,0.3271482086550419,0.28101137040037827,0.20057463733328973,0.12849149553279382,0.16891452900864046,0.25176179684733135,0.29400678720144313,0.34409602699027886,0.431597450358872,0.4718114419749906,0.5902393428557691,0.7408973035061921,0.8954405340232467,1.0,0.9083657907345888,0.7374548400993497,0.5702084979744351,0.4142080986671228,0.43234743654352936,0.48277869667485707,0.4529431014666141,0.39975944037066036,0.4237236259767343,0.4253556920876491,0.37932021501718527,0.36227417877848644,0.29736962032635805,0.20131254391738462,0.1529133082471068,0.19767091377810342,0.27382408153422766,0.2947398525326834,0.29407215288204647,0.35481362632813784,0.4548933351869877,0.5963130965808485,0.7646667398712612,0.9070669914199243,0.8716132495890996,0.7217875445973911,0.5431984333354247,0.40444356492213984,0.3624491026261163,0.4194287085517949,0.4213672892497575,0.36973964761293576,0.37080993503567683,0.34584792647998963,0.32936826896849514,0.2821455841300855,0.2311061208302272,0.1659972224002182,0.18245840949155756,0.2508581037125044,0.27758755035267857,0.33531701551433013,0.3361991316877919,0.41873953269568354,0.5757417423526894,0.7334849246206181,0.7737197752165619,0.6341107913505706,0.45031992831264933,0.3222472568542303,0.3777430209720434,0.44752226811558504,0.4056659611746074,0.39151545421786604,0.38184537445593936,0.4337691784657274,0.4370052109805904,0.428857545298464,0.3265070837714008,0.2543187740928383,0.23849567469579558,0.3034556356654967,0.33525450110557387,0.29066656628133103,0.22385204773283363,0.1797195547808661,0.07807453923027996,0.07301237919312875,0.15755591470288088,0.22915336724996926,0.2607831159542844,0.24591388869122444,0.24867318935369465,0.26374154049361653,0.26432736556889846,0.17710944301062526,0.08498018344938885,0.13322433497039565,0.2823546295048356,0.36751409380805544,0.2584882276064402,0.1866349834179486,0.1913685993999925,0.16933378478213346,0.12467564363582095,0.10789598935993272,0.09587732186320874,0.004887091852961767,0.0,0.0798125163487855,0.15226590081203017,0.19918069798079951,0.20734204524098754,0.24456982447478737,0.24280864729970997,0.24793638964228837,0.21609315120882577,0.20825540486374283,0.24525906887816262,0.39005389100077803,0.4816715290049345,0.3668178986862687,0.2525540624998488,0.19643246774403256,0.18202827223731166,0.14829038340569767,0.10551260365518278,0.04212349545910232,0.02015947555339359,0.08902631685230133,0.1803541368113306,0.23966949833183993,0.27976153787450997,0.24332770990443997,0.24151130783538655,0.33030356818662465,0.35147374367709183,0.3095403430692141,0.2186825410194615,0.27225209203649925,0.4457891516992962,0.5681218259021179,0.4860765396136051,0.3728160941352545,0.2998579462890012,0.23393661826741852,0.19783335309935168,0.1513965902664136,0.062101108119660076,0.007899927529507522,0.05816045671992054,0.14879100925743316,0.20648853463012795,0.23799312816884566,0.2553452905454847,0.21381344159337434,0.26150066087987955,0.321781636645718,0.28923985180024037,0.18978454664616162,0.19097656215934755,0.32875223036603707,0.46026010968496767,0.39358526014724315,0.309225059521431,0.27679131746375685,0.2391927145972419,0.1984002457791938,0.13608756786887266,0.0897995539542995,0.08363542275963631,0.1617261971558639,0.2268776701461217,0.2532039648187254,0.24124393462086413,0.2437440159864499,0.29882625670931073,0.2771663800134361,0.23443268450897747,0.1981596492060289,0.2967991387745039,0.4314827739823146,0.39395703034632135,0.32750142607004573,0.28362074872698706,0.2522959844398205,0.18130914076639648,0.10819433670587042,0.07399074692187746,0.10505859775019033,0.17580549892563457,0.2260238754220456,0.24485994280426038,0.24382631053762793,0.24524690125007176,0.28310125418084553,0.32736717076416433,0.2506225494171135,0.23009380386136247,0.36450827821098386,0.3828455066663832,0.2540720592289265,HB
0.9556708567560761,0.9542478855232128,0.9648577089824799,0.9679726030742462,0.955640515354123,0.9122653828604887,0.8496259946547347,0.8033216558176555,0.8477379646747867,0.9110640368861971,0.9619191751175529,0.9935982105375221,0.984428666248526,0.9661627260311405,0.908342309085374,0.8276786524869397,0.7383800446153348,0.6441357520784405,0.5495297801083336,0.45527201704788633,0.4464192252576664,0.5398412841631015,0.6411772551360015,0.7361825079311799,0.8356789002768321,0.9293974053880021,0.9894664234061945,0.9661621646766871,0.9502864362996912,0.9528044697916913,0.9533545715467682,0.9415321930007934,0.9018991776365615,0.8450045778710766,0.821721208724095,0.8738338310816811,0.9304192124652639,0.9754350141396029,0.9983779367438832,0.9931260309936925,0.9522484879785491,0.8839005366966166,0.7978679907852262,0.7013861772461465,0.6034354502145127,0.5074012810039354,0.4560501515535922,0.5309250460706438,0.6263918678476488,0.7271087253231536,0.8215320376434676,0.9141289881403871,0.9837885743871473,0.9775490477830615,0.9581064856179049,0.9509965599525796,0.9531402920395935,0.9534215977055953,0.962782388294493,0.9586587582930588,0.9622878746537049,0.9604105694274685,0.952134686442222,0.9162585187374583,0.8628073896118449,0.805767442274752,0.8290778803192431,0.8952890372286793,0.9559392317699404,0.9866999126075531,0.9964094079525201,0.9742213661772525,0.9145848149059426,0.831072407877667,0.7376982055645993,0.6411230972798483,0.543517079023518,0.4864016563387823,0.5569884514207186,0.6526974071160345,0.752611121466414,0.8474187602163534,0.9384458923619035,0.9872123771706709,0.9828156697676984,0.9673077551111167,0.947288499369979,0.9247059167699643,0.8684351071341232,0.8169880857881349,0.8385128178799288,0.9014708393255686,0.9543255524295138,0.9914025099377581,1.0,0.9891460596862913,0.9545448651393824,0.8798044439261339,0.7908640679930263,0.6994569710896061,0.605766303509808,0.5071973109660532,0.4431186993239271,0.5041693767817681,0.6040471585057077,0.6974288228027801,0.783047856705481,0.8734165212655933,0.9594341460469904,0.9704436334245217,0.9603124677830641,0.9642864050356781,0.9630673740355609,0.9523872393279915,0.9189268034486766,0.9104307580369229,0.9057956756947847,0.9008167464482737,0.9017816555741218,0.9053878886125144,0.8336010201560409,0.7398938226122291,0.6519943330046329,0.5563180433416359,0.4539826745185178,0.3569755652810058,0.25885777535511334,0.15657275618346,0.06166260382141586,0.018063894620194754,0.08876932177174612,0.18551665656257388,0.28304563857782816,0.38321839382476863,0.478457971632384,0.5767219144918707,0.671508299679419,0.7660258920099359,0.8602538897796681,0.9220471309433538,0.9406352122960806,0.9268643008234136,0.8978793364379674,0.8479101639869366,0.7864780096663175,0.7471671973023961,0.782308375537043,0.84454575191929,0.8806176953947622,0.8925907423699428,0.9189663463612106,0.9230366368451597,0.9085001189129018,0.8305000937220974,0.7359784772758575,0.6364376623113577,0.5390717767160889,0.4413587561004493,0.33905417570759955,0.24205025304993644,0.14627691764733353,0.10121221095328259,0.17574282859509527,0.2777353725736629,0.37433425807888643,0.4728302308734329,0.5713431633366233,0.6676106595402902,0.7623106441228173,0.8451585805659072,0.9202237986520327,0.9464850528499213,0.9356926362235745,0.9097586070321089,0.8488532695886055,0.7807261423050873,0.735185997512662,0.7669749260566938,0.8297232161617218,0.8816626166820729,0.907228755392852,0.9133292194172278,0.9096319071950061,0.9120651164661824,0.9155364590034651,0.9110207304041851,0.9043164613324415,0.9017904039884888,0.8997882791950373,0.9106099717183076,0.91019250301307,0.835829872236229,0.7409199479456838,0.643530397796074,0.5412161717412374,0.44392077703867683,0.34610675461138096,0.24380538943919672,0.14713152915772554,0.07139583597067145,0.1080784081028866,0.20789099762646468,0.30676727715090624,0.4030906642755976,0.5044342571582141,0.599431389338589,0.6949122352467074,0.7846833527355628,0.8698897512440265,0.9292936458750378,0.9437165849243585,0.9196716667321898,0.8794366508449618,0.8209512187763355,0.7667499119948815,0.7648167516841966,0.8180427888312569,0.8741964934526747,0.8993740962116108,0.9086197680074035,0.9008792826536689,0.9095236209073465,0.8937420824714224,0.8290113399797954,0.7321506240732139,0.6338517109061903,0.5371158261066873,0.43472573641181067,0.33208908534471493,0.22945425060926095,0.12778811023156056,0.035717725019867475,0.0,0.07620470445975103,0.17339035153142324,0.27077017049021856,0.3710414691461523,0.4661259516504139,0.562690553175752,0.6561712580708281,0.7508446364879138,0.8404253034362246,0.9146985705754458,0.9359105662171634,0.9229841982874634,0.8782256530219834,0.8133143872624946,0.753945594530087,0.7524548190409137,0.8130555170415794,0.8713421941338526,0.910410645540995,0.9202270518047893,0.9104844755371264,0.9038737348824473,HB
0.8617097293370866,0.8193375889908174,0.7808684282592515,0.7087186933350389,0.7334280167441851,0.7905024657735136,0.829517777260683,0.8151005626185106,0.8084015402512663,0.7859747588035453,0.7273978662164304,0.6384154615356983,0.5479586121109312,0.46783473369010764,0.49614141547472723,0.5743377772393292,0.6624555897955866,0.7266913374132344,0.7773365515920871,0.8192008376784048,0.8613095345136057,0.8245524968198548,0.7006543189076528,0.5619093829199242,0.43140390419254837,0.4665888448295825,0.6061837298198625,0.7456434270072712,0.8531537840306309,0.8604066368140422,0.827720508241478,0.7719179088839421,0.7067854268350282,0.7439908192527178,0.7914151593575851,0.8098674859451527,0.8080373163846306,0.7889756168265305,0.7656771812151439,0.6998141620207368,0.6093322177788845,0.5317496466877487,0.5238712948894477,0.5958261029556309,0.6701378835411806,0.7411142649800051,0.7876896417058652,0.8345697101632354,0.8956408440248711,0.9091119769054692,0.804864375043429,0.6683004834557571,0.5131181008603973,0.485908521405519,0.627842856751704,0.7633666859990691,0.8704766520952805,0.8853578209052384,0.8406510355709407,0.7985449707066095,0.7231622948790366,0.7145805665583054,0.7585944502164383,0.8126119900139215,0.8300484718642722,0.8343961337297565,0.8227410545091227,0.7776264869426233,0.7025846993245008,0.6185160744730984,0.5540518847549181,0.5859427858992667,0.6578118497228966,0.7210814970267223,0.7721733728981275,0.814801596206395,0.8898629803162232,0.9900731319713825,1.0000000000000004,0.8840802732665227,0.7422260771375755,0.6612741761115513,0.7619673194303975,0.8633048972053659,0.867012908368459,0.83766715970587,0.7803853393237046,0.733882570247268,0.7725514348678728,0.814700875226309,0.8453926540825916,0.8459799198804956,0.8282137243548324,0.7918456878599787,0.7326077264273043,0.6425967765861107,0.552242666693938,0.5053954743122859,0.5512179724606203,0.6344823842667284,0.7108498375145431,0.7725270129048538,0.8081932317050291,0.8597118153300891,0.9190038288000157,0.8648136526198837,0.722954274607035,0.5635937457219051,0.48697207048080937,0.6042559179686857,0.7419563947244128,0.8410530037486708,0.8491001475883464,0.818098021797431,0.749883718894726,0.6842151402634733,0.7228929127519259,0.7718613118184838,0.8011748033114645,0.7902246703929232,0.7846313574918278,0.7581535535643762,0.6967191963058368,0.707919094593279,0.7254828194592915,0.7230574104056173,0.6859673918198053,0.6238817955286486,0.5842294264411869,0.6342982563858093,0.7179312386023029,0.762141465759854,0.7237124630602456,0.5922132238014695,0.4444938388364297,0.2981150020257757,0.15253465013203105,0.059763150753750605,0.13129528846173244,0.2723078125251437,0.4193775009131824,0.5717626921317684,0.7119501769666052,0.767986968009962,0.7432516053901987,0.7031215873526535,0.6424290436342956,0.5598225514764072,0.47880280022124166,0.41766023162354093,0.42447338530870216,0.4933291662062236,0.5915985868789826,0.6712549278733841,0.7324166209794272,0.7588136557559815,0.763031514461646,0.7490262601666742,0.7028893847546835,0.650399254162529,0.6473476188352234,0.7208128977355925,0.7770193505292551,0.7847934864736694,0.6800332611726705,0.522116356712194,0.3810784491288306,0.30083662772621933,0.38449591190630006,0.5191135680632719,0.6619482827087269,0.799690504706756,0.8162027251812778,0.7517768009056778,0.7113360277808956,0.6572554180725398,0.5987061971760532,0.526104921847804,0.46759799524536527,0.4853915155794368,0.5554112857124087,0.6373391216588442,0.7039165784358903,0.7436898219715427,0.7505377593614075,0.7320851748113975,0.6843122634228176,0.6350438293618836,0.5955456603381997,0.6428218735280589,0.7274516686842989,0.7761971442848421,0.7613491611961947,0.6376818026439763,0.49389148295684837,0.3414577667190639,0.20099386219534,0.13429250959579653,0.2303091936330497,0.3694197838339517,0.5183541236353912,0.6614773476887339,0.7744077867425623,0.7672154445544028,0.7214060678792014,0.6717358845434371,0.5905052764636416,0.5135877710284711,0.4493109699022724,0.440463964722853,0.498468351233488,0.5887259826160531,0.6717816848244431,0.718588645801598,0.7290996051889391,0.7460411957692101,0.7249299909614693,0.670489410846939,0.6047442817256234,0.6006109456742124,0.6872583166537543,0.7591862919615777,0.7797819460739466,0.697023628236328,0.541345898115746,0.3966149087970874,0.2397802687355277,0.09734785544666469,0.0,0.06263064457146417,0.19807249296262697,0.3525863638099751,0.49700031939923583,0.6445374091817144,0.7391972745949151,0.7248398737294575,0.6746373605478699,0.6095447026937078,0.5319259182493505,0.44175710177106975,0.38402945465248184,0.382401524003384,0.4614121048328155,0.5556665316810969,0.6428049558164664,0.7156436449217858,0.732848617931944,0.7496663785490791,0.7359694838895012,0.6829463191284284,0.6247195437813935,0.6027959477047653,0.6681036503399231,0.7432237817396694,0.7808971265666442,HB
