0,1,2,3,4,5,6,7,8,9,10,11,12,13,14,15,16,17,18,19,20,21,22,23,24,25,26,27,28,29,30,31,32,33,34,35,36,37,38,39,40,41,42,43,44,45,46,47,48,49,50,51,52,53,54,55,56,57,58,59,60,61,62,63,64,65,66,67,68,69,70,71,72,73,74,75,76,77,78,79,80,81,82,83,84,85,86,87,88,89,90,91,92,93,94,95,96,97,98,99,100,101,102,103,104,105,106,107,108,109,110,111,112,113,114,115,116,117,118,119,120,121,122,123,124,125,126,127,128,129,130,131,132,133,134,135,136,137,138,139,140,141,142,143,144,145,146,147,148,149,150,151,152,153,154,155,156,157,158,159,160,161,162,163,164,165,166,167,168,169,170,171,172,173,174,175,176,177,178,179,180,181,182,183,184,185,186,187,188,189,190,191,192,193,194,195,196,197,198,199,200,201,202,203,204,205,206,207,208,209,210,211,212,213,214,215,216,217,218,219,220,221,222,223,224,225,226,227,228,229,230,231,232,233,234,235,236,237,238,239,240,241,242,243,244,245,246,247,248,249,250,251,252,253,254,Target
0.15972884607216198,0.18185841922344803,0.179868835734038,0.15668450049787608,0.16497268250956032,0.19763263531926323,0.2318604512905359,0.2566886724330799,0.23111362172496952,0.1840223811870958,0.16132965177657266,0.18745065059244836,0.2265758985626487,0.25969883815122097,0.2803527741055286,0.311269831935323,0.32925998972017456,0.3309459970273235,0.32489339244298365,0.31405140201307347,0.29730026758569916,0.303101525341552,0.3225045753544177,0.32945006369414764,0.31581863470743754,0.27690786125408784,0.232547466001358,0.18620370425010202,0.1408183268388954,0.09407276835836509,0.04691692248337109,0.007800737332877783,0.009392178181167776,0.052454200394583816,0.10159082657474694,0.15079753251863415,0.20000423846252158,0.2492109444064089,0.29834484881601087,0.34445522577608967,0.3905052847089826,0.43963913992306447,0.4888458458669517,0.5380525518108396,0.5872234506876665,0.6339345890272813,0.6794131102766431,0.7284807473274949,0.7776874532713823,0.8268941592152698,0.8761008651591574,0.9253075711030446,0.974150934784627,1.0,0.9627132796565717,0.9171173683534682,0.8706125601177609,0.8214735306614921,0.7744704903572629,0.7292468958441948,0.6802286660675724,0.6316926605077827,0.587226453998743,0.5390068376220546,0.4909139792526819,0.4464930159587891,0.40116320959271745,0.35740860068491853,0.3168677360903668,0.284165643762731,0.2653505008627215,0.2531945913425444,0.23705156208725786,0.21904069995844122,0.2015900792833637,0.194390491936976,0.20767844544115333,0.2366505129293387,0.2676978692534082,0.29514162261304755,0.3152036336735461,0.3179650608588186,0.30988241550802964,0.30216054276641036,0.2873127062447608,0.28699679709951165,0.30544557986206244,0.3121973914293684,0.29958025689386647,0.2609424658554569,0.2149386849815017,0.1658029431022371,0.11673046819471034,0.07121354715092976,0.0258581188891146,0.0,0.026841349361387157,0.07274181601387397,0.12189078838433642,0.1710193845482444,0.21705793839476983,0.26317935572514795,0.3123189839009918,0.36152568984487965,0.4107323857279871,0.45976336580030763,0.5050590282943449,0.5519804947086081,0.601160591305422,0.6503672972493096,0.6995740031931968,0.7487784703548103,0.7970875306407986,0.8415424899860439,0.8898800450875427,0.9237029817746772,0.8934018655919321,0.8453207639691992,0.8008753260804052,0.7523926914462798,0.7035118053273451,0.6587092348169327,0.6111607616285738,0.5619658566372158,0.5127591506933283,0.46378507778597855,0.4187206174764925,0.3728978569664233,0.33120260320188655,0.29456981210698296,0.26830793947618026,0.2543028901523007,0.24091552582567854,0.2221303320191842,0.2014003785752868,0.18565116798366432,0.18405107854786174,0.20261690499033058,0.23292984205332323,0.2658652825143627,0.29782363640756004,0.3193004328981198,0.3223808675759029,0.3170183894620079,0.3086334378815828,0.2982823483719129,0.2934176913508929,0.31107718613120683,0.31997399706225804,0.3211126087243731,0.29854642164406175,0.25508085834003236,0.20981229527005274,0.16336693794546286,0.11780426605576078,0.07026657393250635,0.026133887148431456,0.001172206437434542,0.03489558207882493,0.07966023014593393,0.12697560348741388,0.1761662116156616,0.22537274865187584,0.274239837266406,0.31901882259990744,0.3666047086929566,0.4158011130762048,0.4650078190200927,0.5142133829459353,0.5627838964425914,0.6072492086965812,0.6554392793449347,0.7045093885417794,0.7478192297987073,0.7904471029634638,0.8368761901190981,0.8769130486797055,0.923781723511257,0.9427099398138997,0.9032742354005311,0.8541725268412067,0.8077894626391874,0.7620059773030031,0.7129220449840922,0.6658945325128728,0.6206925583940964,0.5716866034635654,0.5240698965312444,0.47931851823397664,0.43170339859967843,0.38782589499854014,0.3448972916500258,0.3053208623792477,0.27440759496382316,0.26185982021039234,0.2500198164199484,0.23481455601828793,0.21681360226872037,0.20135455458799756,0.20479172313989513,0.22761912849632926,0.25846603987119265,0.2887018925285002,0.31536800732512427,0.327451030580142,0.32364716239234126,0.31513146604996434,0.30326326495163747,0.2891059645130932,0.2920272789274255,0.3074329201440872,0.31407282921814506,0.2948718825439668,0.2520736289166077,0.20500772730789685,0.15963673444135584,0.11287202540847452,0.0664172532740942,0.023058960616453295,0.00882322022334514,0.0427277640880388,0.08925505450341187,0.13842685121810538,0.18756526563959686,0.2315106230180186,0.26810199731313344,0.3160597674782385,0.3652415987749985,0.41111555109769704,0.4460881208664721,0.48383511715866356,0.5228005602020763,0.5588086368049286,0.6029873074406834,0.6521237834380266,0.7013304893819127,0.7505371953258003,0.7997432997748107,0.8484165945352408,0.8928925011558085,0.9295458592165781,0.9042649457197786,0.855456833788291,0.8076289475040234,0.7630009027857069,0.7142277213549989,0.6650214105951683,0.6158147046512806,0.5666293522887508,0.5195066702792369,0.47439225676521846,0.4270920805171944,0.38244633611544854,0.3384370891704219,0.30311684723152144,HB
0.11393399730680276,0.09441158137975436,0.09558015460272329,0.09198083413295444,0.08021723523955537,0.07289798756530153,0.07222051305303201,0.08416794684352769,0.10296225995902009,0.11822198770060144,0.12695343790502278,0.12281385154383839,0.1165009028746169,0.11392164057030363,0.10731488714431237,0.08415824101926606,0.06239435523959469,0.044795428831848394,0.04447967698240207,0.057404090365726024,0.07573807095472374,0.08546257417279945,0.09658367260926726,0.10747514429781346,0.1198817411007278,0.1401195856200308,0.16978426669987368,0.2035118505061022,0.2447267223603129,0.2822106458251108,0.32531832808988215,0.3697121990607366,0.41128977129075417,0.4498360480304646,0.4940089968776198,0.5384203627348425,0.5828317650125756,0.6272431672903096,0.6716437335467771,0.7136252019152405,0.7518463104019162,0.7959363450374983,0.840339254919662,0.8825515210815231,0.9205868191378928,0.9644961244145018,1.0,0.9986140695329571,0.9617416822520801,0.9175708365602979,0.8787226178713405,0.8375191532421691,0.79312765405892,0.7487162517811861,0.7043048495034525,0.6600183551688157,0.6207978774290002,0.5799883573660867,0.5356117365038393,0.49120033422610554,0.446788931948372,0.4023825427045349,0.359736620366617,0.3219752725933327,0.27809560042569026,0.23368441667102458,0.18929227358199485,0.14774160977927808,0.10918184949315624,0.06534846726280863,0.04334702227060139,0.07778316372740046,0.11069154447816243,0.11835542765849949,0.11114585984154735,0.09693877279292717,0.08872517791777446,0.09368948372783059,0.08050733126063014,0.07499139315862946,0.06649095178518571,0.06037152937335,0.05433475412552369,0.03605384348699259,0.02852938683900441,0.033947293689151836,0.052790564164771236,0.07178530581975817,0.084544048656513,0.09685094448988774,0.10601392308935709,0.1171408565152301,0.12257403712469395,0.11315380579392875,0.08991685304010466,0.0666947950322534,0.04486624177327947,0.03415201467169049,0.03574614325076597,0.04658883297684868,0.047058151230395584,0.047724412422174955,0.055302773962985,0.06900163792682257,0.09106115379609947,0.12899977287447673,0.1685923222290293,0.20874978656587295,0.24860067505071015,0.2886967039523227,0.33302602415155547,0.37474784500244684,0.41317799022321644,0.4573213268519536,0.5016817829957945,0.5420587178294725,0.5817007572397825,0.6260143933142459,0.6704170668973268,0.7126004833350126,0.7506590076951705,0.7947006628102677,0.8370560369249627,0.8735078901263313,0.8890219226973897,0.8626711286751867,0.8191071968862906,0.7751418906156458,0.7374163499027553,0.6977825590880666,0.6667229978177587,0.6267355470675668,0.5968984481970538,0.5676257240573976,0.537774938592837,0.500311653195489,0.4667254943262005,0.43397636396767436,0.39355463254251566,0.3491891704210206,0.3047777681432864,0.2603663658655526,0.21595496358781952,0.1715435613100853,0.1271321590323511,0.08278929339191943,0.042693782457571716,0.004218583660730246,0.0,0.03984181288095967,0.07541967902495905,0.10180548623954122,0.11305675134421289,0.10458581093564301,0.09984994467829567,0.10916774135153529,0.10209243077519048,0.0831115170562362,0.08104079511791307,0.08130792041753687,0.0710977497113352,0.05826840951273593,0.04184219479663942,0.035871401789640656,0.049547064098119487,0.06422111394610219,0.08555578586411472,0.09816774194501732,0.10472346458923165,0.10618481327917695,0.11285081665417218,0.10575392042519338,0.08435043816883625,0.06505114675720725,0.04427891427092212,0.023080535980944505,0.02267424493448922,0.032983720640913816,0.039705811206001584,0.03895819375310383,0.04887432662176794,0.05539919642964808,0.07655234399023736,0.10431949824971531,0.14132639382309398,0.1812113706582026,0.21964870489179655,0.26126216203812236,0.30565329009901543,0.3487197112647318,0.3862890949605713,0.4299378442684063,0.4743013968237668,0.5147781590180378,0.5543229149659255,0.598630149973369,0.6426087493142045,0.6805032351440077,0.7229182775184997,0.7673233277205584,0.8113810687999479,0.8493820650749666,0.8915894132009297,0.9314631880227422,0.9381571567775917,0.9005303326850713,0.856562428979502,0.8187129413534375,0.7762698773981809,0.7318644943951691,0.6874530921174347,0.6430417626807237,0.5989754178198758,0.5608472145483523,0.5187503472831922,0.4743485768400886,0.4299371745623546,0.38552577228462015,0.3411347879089115,0.2996469174498053,0.2610311151747411,0.21683265928500806,0.17242125700727384,0.12801021938926693,0.08417658051543353,0.046526568888366926,0.007133756255802481,0.013515673621440794,0.049497284486178295,0.08459974340517729,0.10982661618876577,0.10692452208827996,0.10505742044662747,0.10663214121823361,0.1086908292006008,0.09019085642620017,0.08758693046383259,0.09056004011676344,0.07863991591879005,0.06250950376253206,0.04953782048251831,0.04848300200840816,0.05111710173264594,0.06480606203696371,0.08410517814880114,0.10279009298199226,0.10886998337586529,0.11124681489940591,0.11049439921186033,0.10795187188071109,0.1031017605179545,0.08206926594547159,0.05505167077356643,0.03618934485163705,0.025278716953052394,HB
0.3520262727503214,0.39056633259941664,0.42196531414273464,0.45867231001642805,0.5200904964141455,0.5783286050940224,0.6295084829260524,0.69157151341479,0.7531376564091796,0.8029272810469625,0.8504753565757368,0.8575121100819976,0.8161558784284444,0.7545862738244051,0.7008339550935361,0.6454720983101154,0.5829715962382958,0.5204154095382494,0.4580545388336752,0.40560244251448463,0.34890930820934596,0.28638534740745003,0.22382920401989548,0.16167867488974386,0.11021321241662863,0.05238769333078386,0.006787456110793677,0.043765972953774046,0.09477865387380646,0.15678490181537352,0.2128632869745961,0.2598395436963896,0.2946397040405029,0.2985178287425434,0.302903121380397,0.31409246350239295,0.30377753526162987,0.2737834837502291,0.24018218205877684,0.22419482439486016,0.25140138443367244,0.2657705792207876,0.2661259837483039,0.26613093825036804,0.26933295779927,0.2815660341256976,0.2823206602965964,0.2822923060457123,0.2761628932733897,0.2663117775099133,0.2613147825431521,0.26135581900023386,0.2725080988464583,0.2821457869911672,0.2821008785201484,0.26899908470568734,0.2508347876437753,0.24993149398513248,0.2499315372976243,0.2509585221097943,0.27227487879031287,0.31317768256714373,0.35493325723697167,0.39527264226276815,0.42770133159099766,0.46755261560842865,0.5269906781836595,0.5769228829489288,0.6369565103753074,0.6990234634800614,0.749541795225042,0.8079987131314152,0.8443794658886592,0.819323500065547,0.7724037071060259,0.7141096845121462,0.6515611355824737,0.5890049353472744,0.5264507411895463,0.46605262663107494,0.41622576246372756,0.3549745077673241,0.2924186865164282,0.22986272531379104,0.16817737404484,0.11823502965751631,0.05838720694587263,0.0,0.004092715859089324,0.05601318155842838,0.11840444153444674,0.18048207458592147,0.23099601029957384,0.28003074608085,0.305367271204501,0.31457974770503583,0.31748223524337416,0.3299933120019105,0.32106226987175246,0.28549865348341275,0.2537981484710601,0.2550357731219828,0.27957736792607424,0.2823187290693978,0.28234129218124515,0.28753943292724715,0.3000936592737027,0.323159624817412,0.33996726674112443,0.33120931183490177,0.3309050391484396,0.3309072048079966,0.33305558817230585,0.3459938188211509,0.3470990980780533,0.34695876736171494,0.3380378211653028,0.3226123414342976,0.31748605665953944,0.33003400529024285,0.331391640926487,0.34392979170996885,0.3690821168206533,0.41025100010298443,0.4527789647493896,0.4995982744564995,0.5441351655447839,0.5763393008152584,0.6181563786649154,0.6712397730544817,0.7259667548034514,0.7884184069947717,0.8480205020774454,0.8981512319084644,0.9577956269957841,1.0000000000000004,0.9917760531266429,0.9423541779068247,0.8864969155294098,0.8239876164338114,0.7614314161986111,0.6989177870275909,0.642842764243575,0.5897917092888907,0.5274013676029661,0.46484516736776627,0.402385857130648,0.3475767544227786,0.29329656062575404,0.23081525412365655,0.1693684287345567,0.15210710965574537,0.207332131884836,0.2687395884649315,0.31860691310803047,0.3722274831161094,0.4042479881111456,0.4109724534653658,0.39845599696914036,0.39555189019326686,0.3848799618791672,0.3544776001616521,0.3119670375796022,0.27730288791774127,0.27159879067219483,0.2943440530305437,0.3025182453668154,0.31414459133473915,0.3147102001783022,0.3147102868032863,0.3147102868032863,0.3147102868032863,0.31468593284351076,0.30913815242923937,0.3000937116176212,0.3128065870566865,0.32518417584230663,0.33087965466179137,0.33090232625300287,0.3281778212491644,0.3172411470987604,0.3381460707393429,0.36113243963594055,0.3697837749235213,0.38200083633031934,0.4071279135401773,0.45408765002819784,0.4986287925235646,0.5316729771445243,0.56370616980925,0.6109762878328779,0.6712509121566748,0.7331871977971223,0.7833975332862018,0.8426616939187652,0.8972604355299914,0.9464562113363653,0.9572666458151144,0.9210805000779874,0.8601871638221494,0.7976315862040204,0.7359027111117711,0.6858175744039037,0.6261535007221366,0.5636014022568365,0.501045202021638,0.43848900178643824,0.375932801551238,0.3133766013160386,0.25082245764530864,0.19067966455921548,0.16890093283888907,0.2167087812265267,0.2668373457359521,0.3226280913934132,0.35505892693448304,0.36322794795036284,0.36480025110365943,0.3848504521410372,0.3906519084979707,0.36381153808704525,0.3325402395640289,0.3014685146880427,0.28810718573541516,0.31007265339155277,0.3096352749779734,0.29833847383249124,0.2865840891519995,0.28232843341850744,0.2823207821129796,0.282766471351624,0.2944796317380356,0.2985020010305277,0.29851553445813295,0.29851866817286155,0.30104092744876176,0.3158956934268824,0.334580699454456,0.3467887882958274,0.35636237803467097,0.37737411699782797,0.379487443327863,0.37912719573552867,0.3681939389922255,0.3687419963724876,0.3982114443179956,0.4438368090527427,0.4869258006345869,0.5150193300773243,0.5592978393992278,0.6210754974008905,0.6816976105917107,0.7312626888380631,0.7925447917670931,0.8488570633082939,HB
0.1544016891594473,0.16935712898571564,0.21264974900009248,0.25896466977493926,0.3098223174316357,0.338145819002416,0.32240972608211216,0.26764451399145406,0.22938269239017295,0.21287932210130034,0.1814068973703029,0.16808545969857835,0.20572615039423736,0.253432437125638,0.2860050522407054,0.2658831211476964,0.2057298955034148,0.13483435815569944,0.0780604244147014,0.04298134350518623,0.06777369320338122,0.12851708424419295,0.19425180649125018,0.26268126344077025,0.3410360936652048,0.4114731055503431,0.48938064733715736,0.5718399326622694,0.6524001206403791,0.7214876990851669,0.8008360676269097,0.8700639516168085,0.9448246921110761,0.9903618890435828,0.9699279864157786,0.9058098182868211,0.8394006796345792,0.7701198795417028,0.6954985239480207,0.6176820770620943,0.5472839919952497,0.4718398173623628,0.40023104284751954,0.337361745318316,0.2897395542164012,0.23328300045120853,0.1750017565780686,0.1296428304186077,0.14559148616741746,0.19675281816404455,0.24841440980607965,0.30291124805357095,0.3474233900934647,0.353435591164021,0.30458958749828335,0.24117673578650622,0.18617721684419708,0.13784155188031555,0.09304892949015331,0.03885647605189435,0.02224077650881684,0.0706987219014743,0.11139573565645611,0.13728759077744002,0.16318191184207986,0.2201457551652357,0.2976653648058045,0.3669845206108664,0.4440074289093259,0.5141071576565555,0.5958999582597366,0.6783651801196142,0.7560206970474899,0.8140786611396482,0.8745351511647033,0.943730354789662,1.0,0.9898282069587889,0.9241120089044563,0.8541052918574139,0.784845498615121,0.7094566045396871,0.6396676991801433,0.5592110676205735,0.4897502803587339,0.4109968504116175,0.34094113756764033,0.2686519826784042,0.2218162633642189,0.2120636741576507,0.22150855843339023,0.24542758496916095,0.2732560548825229,0.2942400519719497,0.31175773835136233,0.3245018240389741,0.30425496134208485,0.2568935966902246,0.20498633333578997,0.14320712804647773,0.0759299685088064,0.04535301543794379,0.07587664035825803,0.11525125475809084,0.13462145979506168,0.16233909020869763,0.21340654282260418,0.2638739345391392,0.3292286871000454,0.40030907162152385,0.47263437992763047,0.540934202377076,0.6093419727456459,0.6879711801063513,0.7580334973947074,0.8328845568088998,0.8705713574741991,0.8375766715922679,0.7642128156524395,0.6826878265203211,0.6129961278266589,0.5346136850091465,0.4640724805579195,0.3914848093645724,0.3227477996299184,0.2548425630233062,0.19529534523341807,0.18301501231732642,0.22267831001565908,0.25951454948125985,0.26500808285035715,0.22820856695030534,0.1993016363823905,0.21467486952140602,0.1984537911692681,0.15750141682297647,0.10603846450956356,0.04889352965701166,0.0,0.016102242807225498,0.060924301271892745,0.07786174520313249,0.07776929880378258,0.11637793937632734,0.16902800920018768,0.2128212071168183,0.25170949960983746,0.30639361190993997,0.3688958004286116,0.4412028470484266,0.5108466497158188,0.5913703166760156,0.6608916183731246,0.7382593750813284,0.7925731542385663,0.7740619011924728,0.7121860942145539,0.6407720739934528,0.5701001336082245,0.5006478210940957,0.43138836542550063,0.361636932010339,0.2899375205889103,0.2600470701321118,0.30122424938756387,0.356402271624086,0.4035045708132916,0.38757621626626815,0.3432872146603527,0.30082413460651836,0.2790412076955153,0.2505687126469591,0.26454619746484065,0.29484249533149676,0.32788037308760876,0.34113441401319644,0.3238518552042411,0.292680641669278,0.24343173125395712,0.17987814789802226,0.12476070811805773,0.09665363867131482,0.13963714045517195,0.17899000721271685,0.21530245723664354,0.2371632187872703,0.2206846962015674,0.22230913244031836,0.28939698002853564,0.35941658432940127,0.43537634861059304,0.5069202013462752,0.5890261526238452,0.6712887621385115,0.7439606805335401,0.8116503371307364,0.8345495580135047,0.7874226732327942,0.7245853763218104,0.6520282137427205,0.5822956373542478,0.5133362997112823,0.4499750122988906,0.3856268400853411,0.3254548625444791,0.28986048457016933,0.28096763035879757,0.24693277029482097,0.2013366106390957,0.19460579572724823,0.24957797301278406,0.291640044341154,0.31881529157376765,0.2896866380618701,0.2341607086430728,0.17610998124598698,0.1282175449712617,0.10358227099983086,0.07703230553420104,0.06332448374112642,0.11344625732211178,0.15376392078434575,0.170456608939467,0.1944347417910306,0.25597599093338186,0.323062884647876,0.3948217669014542,0.468873975510232,0.5512211235117763,0.6336988906274135,0.7131431085760487,0.7822454878955654,0.849061947567133,0.8683671790554683,0.8187493741844252,0.7504680314909131,0.6720863326836461,0.6015198630664975,0.5263823630315043,0.4574255521414421,0.38661688810531736,0.3122708585531351,0.25878043959490515,0.25384472188846186,0.23030020364389348,0.23235407754926163,0.23632769605807713,0.21464953194834457,0.2059225276328549,0.20989437131559407,0.2359968872851228,0.25305434362610457,0.2378179372733853,0.19466302214977027,0.1578859967635684,HB
0.406532643460209,0.4016084626325025,0.4042558689161879,0.44405668141300847,0.5004305939497398,0.5045606960050719,0.45928763169107834,0.4272057515081946,0.3936651033844738,0.3187835611853278,0.2325052606529434,0.1461061067256617,0.05457373218009476,0.0,0.035219055791475995,0.12953491614869872,0.22308700265481018,0.31100761833101886,0.4133425603946046,0.5146190302366231,0.599009756481673,0.6949190987307419,0.7782376172207042,0.8646458374491366,0.9451736209982493,0.9131394629280041,0.8300234154680273,0.7352725670888387,0.6498547416100311,0.5623044358637261,0.4818028581799356,0.42624949553854474,0.37611306855150595,0.35392743347956657,0.3607607823293444,0.3773291273841206,0.39326947405039503,0.4138539375587764,0.44702118340339414,0.47195307967060973,0.47025311387873714,0.4496116760353539,0.4285099293438286,0.40796126779875186,0.3933948043684472,0.38573043820979214,0.4366819513727478,0.49602427503742064,0.5119001635084803,0.46856856216840725,0.4436951415362631,0.40904052446245664,0.33143783398002036,0.22949668212564855,0.13834728981741007,0.056697705185125624,0.0061214034871390766,0.034456852789074954,0.11071288275667923,0.21121907390427275,0.31134334421375076,0.3950026474299051,0.4949025911419742,0.5876583479147617,0.676372255715322,0.7753144746335807,0.8591841265846729,0.9537756571854819,0.9691062253279044,0.8789476376895737,0.7952312166439701,0.6957047402664283,0.6079550059668128,0.5167199876089086,0.4404865150773496,0.38328441550303394,0.3575072128229033,0.3421018962397526,0.3340960610388195,0.352919194083134,0.374190118906502,0.41443431568915345,0.45008933750108326,0.4712582372463596,0.4531382057843034,0.4318829604941703,0.40732033069106466,0.392635604641252,0.37792716223966316,0.38765278013595905,0.43363320355458335,0.49329483353795167,0.5148897037535698,0.48059954179373543,0.447200059628019,0.40981058123658265,0.32492566790734756,0.2412680932115192,0.14269297179126372,0.06054292995747135,0.0017147027411836824,0.021994863499902095,0.10185355046735323,0.19651589075314435,0.2990265995986965,0.3924302202499308,0.4805219046324951,0.5828155807122459,0.6773343753755401,0.7644509473390984,0.8666277059326855,0.9624436901370683,0.9604056974505899,0.8672131908189518,0.7734702573877468,0.6858090658969327,0.5954821950189157,0.5192472051769652,0.4565670471347021,0.41041205819381066,0.3775792412065164,0.35458974790389775,0.36574526649498385,0.3635317460953238,0.40546869565597765,0.4469271509315207,0.49287313121056187,0.5325497618466688,0.5325676592597137,0.49493627454509115,0.46462745332082056,0.4499180495450368,0.43712579922872763,0.42581133433253715,0.4335104338028857,0.47708648344819915,0.5215646738652673,0.5263136141690019,0.4787519468759469,0.45006745748973076,0.41930877868446537,0.331431879158949,0.2442763502121914,0.1508189812367564,0.06722548455771271,0.025423439293954964,0.08167588158013839,0.16760774347222318,0.26032792407897754,0.3628827524886509,0.4642928994727473,0.548971592291434,0.646656846434507,0.7483772903565176,0.8337251566817199,0.9226433297925403,0.9173977324874447,0.8333162584411675,0.737121181689004,0.6527420649457807,0.5693593118964593,0.4923540345711164,0.4334625547990498,0.3810866913498647,0.3774876292682734,0.38059688750397314,0.4089973528069364,0.44691257958759545,0.48211950373758006,0.5167649894224335,0.5538080363826525,0.5481708374456118,0.5049633935877584,0.4698895978205644,0.45060395637039363,0.4352442563533234,0.4088928663626499,0.43054880305595944,0.4539616679336831,0.5039636397548635,0.5599539257981543,0.5365726254095438,0.49802766386801833,0.4718884717790752,0.4194761320303555,0.32770918737012833,0.24259686411763326,0.15465767007789566,0.07444811284225583,0.05117849188995427,0.10980403474954503,0.19225010136544496,0.29371367531250847,0.39625772689239014,0.4894852674364558,0.5777480205253771,0.6800467080059405,0.774389422562066,0.8615469282808577,0.9525073661568944,1.0000000000000004,0.9378340649866792,0.8422262049955216,0.7396455904980725,0.642584587098336,0.5584090715242747,0.47831568998887564,0.4210022321653857,0.385764753675057,0.3775284408593307,0.37804171303380985,0.39457744530084327,0.41064036304720997,0.45808615567572675,0.5088383776290093,0.5331348708008696,0.5103956263868037,0.4730714359507009,0.4405858698753429,0.41284696257971465,0.4134343452506677,0.3889427092129414,0.383391327086295,0.41631915638021644,0.4654948235342724,0.5112717228694637,0.5032791986336718,0.46294352157355867,0.4279972357115853,0.3891757393875692,0.3057774755188096,0.21406608109287228,0.125699702778844,0.0460000491361483,0.02389055255490735,0.08273458602096095,0.18259006068252726,0.2852088709683325,0.38782919465409904,0.48917924914264566,0.5683980245055595,0.6297912682698015,0.725095523390038,0.8102623409514762,0.8971489535147366,0.9243782459392222,0.852746254616751,0.7551733712938522,0.6697366937820513,0.5772173932656064,0.4984746834749285,0.4274162453153414,0.36751859074164717,0.3391088560278823,0.3293717440963748,HB
0.7703743879770188,0.7867706909467347,0.742842496495435,0.6803820671666112,0.6103068556225715,0.5393752249726704,0.47712392214349375,0.4153830548916426,0.348611738125864,0.2946125678592768,0.25107700112186127,0.2149499062892426,0.2342274622188567,0.2678670430494279,0.28212366664070077,0.26773743045814147,0.252404292045866,0.22010541785781212,0.1834541354151651,0.19575844634612594,0.2156115036500088,0.2211049944672827,0.204677472040939,0.19740466352356956,0.20389035971676117,0.1976120059483386,0.22486884910573224,0.23433685133335214,0.20037786223008203,0.16480490421822402,0.12312329727085514,0.078074025764574,0.04639666832554701,0.051378938750585856,0.028979546590318872,0.0,0.045552059589499816,0.09390492952272744,0.1301223350218237,0.1571437552089865,0.20268338270842046,0.2632512166278529,0.33008617084419,0.3947546241504183,0.4669990692372381,0.5293998107431928,0.6033174802131662,0.6679685278262584,0.7374729934940119,0.8127618324380936,0.8870828150829762,0.9360693806642693,0.9252050956594791,0.8679393332030987,0.8033794662923905,0.7346752680661135,0.6657577511685782,0.6006360243545958,0.5317947245921548,0.46674299253520646,0.3948106819070021,0.33241006737926915,0.2675715084684329,0.20912346351987665,0.1828119768506613,0.21270762150345268,0.2182805372065202,0.19096417433338475,0.18964888979247263,0.21326863655854034,0.22341761783701708,0.2373584286488888,0.22123484382911762,0.21792656427610968,0.21337372459837267,0.17473947011115554,0.1467812821407244,0.14871774878033994,0.15802026806470648,0.1758740829449601,0.18239918221482254,0.1650764420867823,0.20646893048305248,0.26954612900748653,0.33668186799549904,0.39957597844126225,0.4706134606899153,0.533464814607258,0.6065644207954493,0.6688227080788329,0.7416934523137599,0.8089157577754782,0.875745595914867,0.9488010450533255,1.0,0.9975478146643177,0.9438133605853216,0.8809139553590759,0.8062380567867331,0.7312376411016634,0.6664824192666381,0.5970455241508468,0.5254792149790397,0.4625105753357177,0.3915562106172161,0.32869302591104255,0.2614770023845918,0.22196526779377157,0.1908725681147745,0.15969043283107753,0.18664124557395878,0.20442290078303182,0.2101942028848489,0.23712406715435863,0.2809719665512369,0.286477550568069,0.25579983272876783,0.20208727002324167,0.14591842603363547,0.09459444908162418,0.05088379811082255,0.05970474909300716,0.09774366260098555,0.13973395975906078,0.1702340497401731,0.20430681880144475,0.24524399067009028,0.28015948236455657,0.3063410902475918,0.3552296710475269,0.41288350216476477,0.47325748401981294,0.5404436127260448,0.603640724787657,0.6783214723057691,0.7507609541191425,0.7884236422466779,0.7674135597067759,0.7053216050683981,0.6416016468093519,0.5748827080635719,0.5093348672635529,0.4471950312318791,0.37748909224196847,0.3158684108709098,0.28025839707465616,0.31648609578507303,0.3573487542899345,0.36449175167553793,0.3465870569309111,0.3255112177968762,0.2746793815612434,0.2245287099277773,0.19504265040019098,0.21131862736920448,0.23556675345960842,0.24905011897384632,0.2786261975858082,0.3065098068976124,0.3184214321488419,0.29645243752351513,0.2998054666698753,0.305481986443493,0.28922814604511826,0.24154870529795414,0.19183655763769236,0.14950145016419647,0.175385520837938,0.21206609596907455,0.2294452229787467,0.1987234814723462,0.15049615244630843,0.12504984011230125,0.14788167580269196,0.1804300481693586,0.23803668719500104,0.30473567638037746,0.3653463258947962,0.43029881767414846,0.50414444595557,0.5664535855625381,0.6388544569743622,0.7031563407748895,0.7719800837340909,0.8342639717803522,0.8997071237320982,0.9194477996527826,0.8804509931806659,0.8169149303723033,0.7545091704568416,0.6847648156953925,0.6224842629152718,0.5484352557123273,0.47357001081097216,0.40973390644140206,0.3426669856454252,0.2822317346046548,0.2333908705353802,0.24193216500460446,0.25498229474976597,0.24986211638476918,0.21972744684125445,0.2116794730644438,0.23177439554550938,0.2457014184796691,0.2259909555444941,0.20382572402966126,0.17910462816147676,0.14962327182156976,0.13208554303708864,0.1270454352737631,0.13334326717603284,0.10166446368337523,0.10112476603053144,0.10024421867213507,0.14299807248885532,0.2114774974691831,0.2759687007450462,0.3499651662048242,0.4124675908331219,0.48221757966190193,0.5445373675596552,0.6161182415042439,0.6784235290986924,0.7524642184995605,0.8276598411673692,0.8908399850765094,0.8988865694035346,0.8509598844172075,0.7976062805573756,0.7289963082317539,0.6667089050685413,0.5951358592470242,0.5328027713442025,0.46125320989190133,0.3990619852793422,0.3356166370122846,0.2705064563502102,0.2503151313013028,0.2379777519334274,0.19004827716016282,0.1854826565091794,0.20692163605639768,0.24053990919497892,0.2729515861863674,0.2938116656810603,0.3043312027291778,0.2914261808662255,0.2653987389998296,0.22070166347076103,0.1667681169318591,0.11767902123538132,0.09396585252757017,0.12145143011517545,0.15064160924608228,HB
0.3152964410670518,0.3117364418662403,0.28800326649078345,0.26343779747764184,0.23314391181787153,0.22520578161670013,0.22515997099479046,0.22521372938465234,0.232347906413358,0.23216336173373708,0.22750883349680162,0.2393337559606441,0.24018400339409007,0.24130031668330076,0.255708147922022,0.26488304456045064,0.26857895758402694,0.25794807174388623,0.25477116401435307,0.24422863079897628,0.24003057130724725,0.2307623666836509,0.22519055006369415,0.22509136630814197,0.21742061622288533,0.19722672476163972,0.1951134590433634,0.19511436939052906,0.19844241845872546,0.23589702989104078,0.2804027774151807,0.3289882738045198,0.3779571735321112,0.43404623270295417,0.4793819841939575,0.5332240049724533,0.5900142933291486,0.6468102133484082,0.7017543617223221,0.7465153365434829,0.8021778157172492,0.8561076265797376,0.8990936068264737,0.9272738561785112,0.906644345163905,0.8603347884153933,0.8038323783736359,0.7534749145334789,0.7050855786644781,0.6485110688224531,0.5995101055071355,0.5497803798285075,0.4930340406747513,0.4362524380842503,0.3840053688930123,0.33736248769094734,0.2808676434642514,0.22407149159351247,0.16947908619749885,0.14617554749913353,0.1650040454293129,0.17933389310705383,0.18939500379306873,0.21207115165182877,0.24062174885903476,0.2519409020236436,0.23807103459176737,0.21130600365591334,0.1789419898054403,0.15077446781790904,0.1291343606903519,0.12012741795966253,0.12369331537522399,0.14451318154132187,0.1506156071577398,0.16370049364600225,0.17658393507841952,0.1660666344456323,0.15777126164680322,0.14990951576240574,0.13808173866810813,0.11901053857907762,0.1057721203586599,0.09083851041358537,0.06924226671131395,0.05021557393090914,0.028602433240132452,0.014796066182698908,0.006204827942860813,0.011338777782972986,0.000697385366640102,0.0,0.009258084990020787,0.015200401577036615,0.03020317276666784,0.047964143446103336,0.07614645616573679,0.11905800979695202,0.1751037621325615,0.22825767611422298,0.27420582231530544,0.3297906573502951,0.3749786289502679,0.42905439263379286,0.4855901625389878,0.5310629260037212,0.5617868423149273,0.611202829342191,0.6679201880258541,0.7182069822441903,0.7666622269575605,0.8233260029160845,0.8760508589946108,0.9222984912060133,0.9714508062806773,0.9872016883320063,0.957536823997652,0.9029295088893989,0.8541955711691767,0.804195269342689,0.747445177346493,0.6906475716974638,0.63439387484113,0.5885094683443968,0.5352738989452366,0.47848111090219003,0.4216834976290884,0.36536681994265985,0.3192542945955088,0.26630929985191765,0.20951851006014222,0.1546984968577827,0.11275910764303676,0.10541042211293439,0.12782736938747918,0.14409547502734377,0.16768412121711185,0.20111987004594,0.2354281686124926,0.26235780094770345,0.26801519951521735,0.24412903023133925,0.2172379118303498,0.18810086606676046,0.16367336239987829,0.15104372196451799,0.15003816355682353,0.14903323169233795,0.13864252491569173,0.14890768035583557,0.16042607629560468,0.16504641106618,0.1650628520959545,0.16511307839881306,0.172101440734028,0.17990584723771796,0.17227682255136312,0.15135003013999926,0.131912519717166,0.10680704420133091,0.09133765280852302,0.09176209136374824,0.10381142209355465,0.10615485951234183,0.11803164614592143,0.12531192225353704,0.13224183092986808,0.12108684021868843,0.13160604917035368,0.14803431276788004,0.16594934158526664,0.20790519351123127,0.254260172228542,0.30333310032756744,0.3546295467299334,0.40201408647673675,0.4585781579658339,0.5085943557562773,0.5573146637905921,0.6139934743102717,0.6692528281300558,0.7140461635594786,0.769363851092772,0.8254842596073959,0.8706896712975194,0.9247334807442025,0.9778913016439215,1.0,0.9768055941017586,0.9299309143682613,0.8732366958259212,0.8164492528064273,0.7631297161685837,0.7174581258250785,0.6610702321335,0.6042726293816192,0.5475440174839092,0.4974204330445873,0.44880962237973065,0.3921062321711184,0.335319238415392,0.28208219927344347,0.23633589424850987,0.17994150451348823,0.12694044248335912,0.12543749379858804,0.14723467046276184,0.14167426100653513,0.15772263436468137,0.18603791980561235,0.2144154385520709,0.2374340875321428,0.23766297454472252,0.21526339789023474,0.1868930444378889,0.15962630723862103,0.14405723496094636,0.13516894024543902,0.13501740544255947,0.13755282559647242,0.1428406406436884,0.14263732444676291,0.1413550710883693,0.14951066970603222,0.15234790747590932,0.1642197736654878,0.16506237641918187,0.1650618846914913,0.16359089064744836,0.14496408402838812,0.12932056273288994,0.11811873742434598,0.10566627347215096,0.09467646654250528,0.10212065626607503,0.09552639043197475,0.093363122203451,0.10293279354104268,0.0920746460712154,0.10193441462322061,0.10525964379173747,0.11665753653092326,0.14578721844254794,0.19084881824221922,0.2354320782413537,0.2898817430841927,0.3348340013476858,0.38961910752382334,0.44195407834043676,0.4885502156504762,0.5449974490424045,0.5992790474039538,0.6443422260391785,0.7003643203195047,0.7514333656402408,HB
0.42219786068153864,0.4592719573740589,0.4922829667304076,0.5409804472521307,0.5711436373862053,0.5709174241673134,0.5382515978652478,0.5028410927609079,0.46193234449648246,0.4305063953802528,0.4024593209070799,0.3835205687375116,0.36598078051962135,0.3644138959641823,0.36409865623129534,0.34719640892146675,0.3235065249105564,0.34847504140348695,0.3968184586762096,0.4444596629240385,0.4719228964860478,0.4603118427882138,0.4454830881649605,0.43005515907559344,0.42551886140505557,0.4004846542002283,0.34852169930325383,0.28358721002328346,0.2070690176983061,0.12507741416046914,0.05071581483900722,0.008973937494828554,0.02190977749460865,0.07551871295774815,0.14067093134394248,0.21677833960336335,0.2986198534067426,0.3685711696506573,0.44129150523469285,0.5232677675051409,0.6053066922311592,0.6873456169571779,0.7692521529478484,0.8407492912700398,0.9118908804552794,0.9919487513337466,1.0000000000000004,0.9316315295578623,0.8618903848808386,0.7926072912905653,0.7198797545281779,0.653109880739478,0.5772926763399719,0.5094660225666554,0.4552099772167195,0.4279183322043245,0.41016045369678267,0.40772715528957937,0.4077788602233432,0.4161894091225471,0.43219860815436295,0.45658039416338747,0.5045001100850492,0.5534149099892125,0.5755061921438789,0.5491999824146285,0.5143279070278934,0.48040768569641523,0.4417450807283423,0.41072657310822525,0.3885894318798684,0.4050251115181096,0.4482158357022574,0.4510368189164402,0.450968993614127,0.43961760618377177,0.4024306198715393,0.3880162033806869,0.42265163245713344,0.4709530655691818,0.5247531392932192,0.5487901292288422,0.5243970653961019,0.49916284617389506,0.4822596798192036,0.4540085218838801,0.4475569502614478,0.4107856711460727,0.3504766587539869,0.27027562033925934,0.19216192307083801,0.12695354972116268,0.05862488809070365,0.020598765583017986,0.03158096200655036,0.07323144398617565,0.13430182854809525,0.21396739684281618,0.29584358056855775,0.36653420302382234,0.4384996540648669,0.5204651955424509,0.6025041202684687,0.6845430449944869,0.7664758801096632,0.8386198760132428,0.8880829972607049,0.8489656904686189,0.778742145048525,0.7083216543046662,0.6265957558662061,0.5564481827725603,0.4897651933849674,0.4428225772836085,0.411115764534169,0.4077158694242824,0.40170955411632825,0.3936907169605881,0.4096067636813929,0.4289585410703216,0.45257561065438345,0.4939660661978351,0.5404053636821948,0.5739994870791301,0.5619613544094602,0.5349449812616731,0.4982051496898974,0.46391458789008855,0.4230124514310232,0.3826235521688779,0.3528948379873418,0.3458069066904961,0.3627533453891396,0.3643848457239307,0.35689268204392777,0.3204806816806074,0.30777039573210807,0.3400293802746286,0.3843073404665809,0.43477812724687004,0.44879227306543923,0.4270277181324822,0.40471331312780556,0.38713143243133485,0.385985941981704,0.3728074440633793,0.3143721466631737,0.23307409312797622,0.15115365311804752,0.0808226510065615,0.021276209344978536,0.0,0.03874952140255328,0.10767538859358661,0.17255040908035602,0.25116745724051537,0.3332023903180992,0.41487023946737533,0.48277808021447477,0.5576944435599387,0.6397018935914462,0.7217407829830003,0.8033922368140001,0.8494228625714286,0.7980625595630246,0.7284082343645277,0.663470540134719,0.5847734645163452,0.5143154209100431,0.4529520319959892,0.40718565330993073,0.38706765582524616,0.38548570483421196,0.37277059802468093,0.3847674987126908,0.3975801021071548,0.4279299882347738,0.46573151819896497,0.5012364480254754,0.5482834386770596,0.5772069518007181,0.5923592267516997,0.5581087864428151,0.5258021323219984,0.4864509708875042,0.44644640699017124,0.4228104278725886,0.4060461569361675,0.38837581070627003,0.3866503398084662,0.40163152071560004,0.4052305074373077,0.37686030969637985,0.37195452963371745,0.4147814509419452,0.4626053916795674,0.4933056030459464,0.4835709561372581,0.4683511544196186,0.45088820974190114,0.4331648412510667,0.42662510879919413,0.3814472678037397,0.31585375095320245,0.23460276042999872,0.15265388236854394,0.0823463342312376,0.03267040572335711,0.03187432106868293,0.08610040255361806,0.15127158097416604,0.23166710276345182,0.2975804990741602,0.3749924692122719,0.45702515747791983,0.5390640822039399,0.6209395374111044,0.6915629502107903,0.7635970271193817,0.8455635411359999,0.9273046993892806,0.9740286979207835,0.9229749251712471,0.8550396594712377,0.7816453735374864,0.7155422745549558,0.6386718971563154,0.560557812815524,0.5027812160294576,0.4505937539290126,0.42991855888909747,0.4293816684171263,0.42938160675502424,0.42942339234062654,0.43856543202357745,0.4713790633652608,0.5070251869124616,0.5566233077666549,0.5990754110900989,0.6169169542110344,0.5872967096536761,0.5621813692684241,0.5219951153183384,0.4833470514944116,0.4612699810188645,0.4358845861711105,0.4294039270350525,0.4293815651850674,0.4288358801123797,0.4075489788009854,0.3674156775245332,0.34601603277956805,0.3823135323704885,0.4342001640655391,0.47337953742441696,HB
0.004367109135402725,0.04688803118829421,0.05961591151518464,0.0328764625436857,0.05461924477226332,0.019570946761391816,0.0,0.024426303090270496,0.07420787499638593,0.12915162320850215,0.1960595957881528,0.2607971664332518,0.3333303049910159,0.40665141131807103,0.4718552979188584,0.5434236628558817,0.6175127925182224,0.6898018246410895,0.7546884092923694,0.8276047099173416,0.90146300474289,0.9552733187097158,0.9178737714982674,0.8534630213085388,0.7820428844277665,0.7161818445816943,0.6458223099953215,0.5786539276877971,0.5117498050738851,0.44738803332390353,0.3830608819871404,0.322669295374975,0.2845612167607974,0.2577540951067032,0.22090544670479795,0.18043791710151513,0.13509921694135363,0.08638056165591546,0.045545384258280475,0.029478762509348,0.054459897592722184,0.10173174579835176,0.15130840384906086,0.20235800898484513,0.24702301062653897,0.2715696624585202,0.2804638826945711,0.2750294482723792,0.24907794304854236,0.27039289920095566,0.30642814359063486,0.30707524299160704,0.2992105932603675,0.2664236847693555,0.21200230161382305,0.15125272146773172,0.08480944459830919,0.02544232118953449,0.035944590954165134,0.10056727365636431,0.17031833994658196,0.2367651060803344,0.3105106787202452,0.3800636243579072,0.4468056097668416,0.5206465096895776,0.5945675170518421,0.6619237708760208,0.7308040694887483,0.8048342569488491,0.8777938965919077,0.9425499268912911,1.0000000000000002,0.9645285074002292,0.90012945576789,0.828286768363238,0.7612120981693689,0.6921251466452325,0.6237712105323616,0.5663358979726876,0.5060185701940292,0.43649833673829197,0.37292732963433184,0.31773721469879157,0.28068176213714224,0.25082989688683366,0.21937966948330123,0.1752450691802463,0.128834395925439,0.08126720722139691,0.03926064606779733,0.025867831761370086,0.055683501644953726,0.10387153522924364,0.15327074527455053,0.20219364112698313,0.24987566190328647,0.28856531763929794,0.300447406104823,0.2752931329957984,0.2628268652539629,0.29602769664430184,0.32018544018980033,0.31567959190575423,0.3077949584466959,0.2678255029754335,0.20508815832059746,0.13845123557707106,0.07386374363898529,0.04127338394702629,0.0803108163029238,0.15170453808163287,0.2168041352988188,0.28856638602398377,0.3616693777816542,0.42664200763892546,0.49865138370732764,0.5726732595541961,0.6414352893341075,0.7088845709231693,0.7828345105081767,0.8562991433423572,0.9197458227338176,0.9324485841950454,0.8741405568802352,0.8021978060031125,0.7353376607930169,0.6659222657393118,0.5918833447647758,0.5203615259528276,0.4558723124006663,0.3930793299140387,0.33907712651767086,0.29817419749234175,0.27294372712261494,0.2374704293588803,0.197429523397205,0.1561403362556577,0.11263880789242586,0.07373844884122316,0.06604798800077716,0.09675745100266786,0.14531611567082559,0.19657696498234123,0.24510774393164314,0.2790187870894245,0.2938061116023023,0.28138622276739866,0.2694499186910142,0.29524755422068627,0.315926000030035,0.30804549199549824,0.3092265019121059,0.2788317864825043,0.2171726021521483,0.15055168511124917,0.08532384204718624,0.035312326456813814,0.0467450379526928,0.10776568508371498,0.1779627330810427,0.2519736143819191,0.3211551734428977,0.3882292805364138,0.46191757112220766,0.5290130734596283,0.5981610312716132,0.6721235363211144,0.7406394480732457,0.80832569007089,0.8779142942792155,0.8771506620372598,0.8143505712741079,0.7407026349850028,0.6672172980560898,0.6017564425994453,0.5312815841025629,0.4662658820150376,0.40291105465936616,0.3444723820419082,0.30334048648903367,0.27165489710129465,0.2446983979740931,0.21245679885572155,0.1670639309687414,0.12080730068023193,0.08255795115961706,0.07467508423787228,0.10774102371515282,0.15166344875292093,0.1990360796865276,0.25089171349377737,0.28283714896956313,0.2983185407179463,0.2824251999529943,0.2919082655256706,0.3232686453571154,0.3374443006997818,0.32756761731465045,0.3012068350321824,0.24214477769124776,0.17022420494714496,0.10553727857786566,0.0489472207293109,0.05836440504463636,0.11612273211973445,0.18838644313391884,0.25455000131080285,0.32477804171998836,0.3984082865352081,0.46431472892985926,0.5348574178018646,0.6089313531786515,0.6809103843952606,0.7458480606526685,0.8190222525076385,0.8901456961927894,0.8974843237746446,0.8434318658063773,0.789756210462152,0.7205361456255044,0.6545713085230493,0.5809056876714289,0.509252394611724,0.4455061688946851,0.38444495665031186,0.3346618356906459,0.3015763249823391,0.2762883021210585,0.24004568472660992,0.197040301716779,0.14904253575903947,0.10026509312164356,0.07372176291103094,0.08491888088133659,0.12873248680573068,0.17382853723472103,0.22260107539600926,0.27185916659069753,0.29969447199439303,0.2912492860587921,0.26194481755054166,0.2804666874652253,0.3174135706157295,0.3272741162716015,0.3217430251320399,0.29130292838308436,0.2398381664118754,0.17666390213397087,0.10816152819479607,0.05470221498719585,0.0779238721505291,0.13995307248848898,0.2125831844620687,0.2812054426654953,HB
0.329618929527673,0.329618929527673,0.32961716117835627,0.3271376870949223,0.3005029701125239,0.279375802682178,0.22796632808030726,0.15389395129103622,0.07945030285043586,0.01814803552337363,0.0,0.04845695359297775,0.101084500355479,0.16582897565643195,0.22258030249238958,0.2666377084279632,0.24502266161264785,0.24094674621111345,0.2713005062638665,0.32370431232226426,0.3801656325563485,0.38314451058200394,0.3460842858493316,0.31928044770445574,0.32240934417550005,0.2863701593011134,0.2249104122404728,0.1513592555093317,0.07934123311003694,0.02413004123795348,0.015907993885824645,0.06887288890343246,0.1405528566201819,0.2025274121780507,0.2757409045328272,0.350307388503889,0.42487468696111064,0.4991629392800654,0.5638555117293897,0.6324386718678761,0.7069152915721797,0.7753813354964065,0.8401622629419916,0.9117154084247563,0.917607819824378,0.8482771001178611,0.781942709046969,0.7152772893839954,0.6497407414354965,0.5821772922179096,0.5076958216250311,0.43564358280689675,0.38006109555459844,0.351708737917821,0.32187349476845695,0.2891495999457905,0.2915840243536634,0.30900070747225916,0.3193073752709443,0.3509032452269416,0.3858432797104525,0.41542459104532004,0.40958101807643965,0.37989440774658556,0.3672191700591747,0.3733938109111872,0.37781884833191937,0.36297274025639403,0.346562118746804,0.3544810744776701,0.34481130585720354,0.32012981032189414,0.2976293448515377,0.27307905675122646,0.2800092560969625,0.3259755958177002,0.3809704076590652,0.4138376221622191,0.3826142741894567,0.36273371959927436,0.3486238773865229,0.29605838094238823,0.22527498577758776,0.15227880289641638,0.09042539924479964,0.027997094522255406,0.012729835673257472,0.056608610828221995,0.1272498093055594,0.2012702918347129,0.26443093715550336,0.334771196375955,0.40932661196364784,0.4838802511124225,0.5547418888328748,0.6175352830713736,0.6914131154890537,0.765976685092074,0.8380579867485967,0.9000836335989737,0.9726779004191943,1.0,0.9399033199161551,0.8759995589960328,0.801850701567282,0.7318979486474722,0.6684054306922897,0.5943169133358528,0.519944653987289,0.4549199480481354,0.4002833840047568,0.3470019881095845,0.3035982874549532,0.2879353962650457,0.2707635232127039,0.28096267704178723,0.29512030788214494,0.32621280058082247,0.35711912078201236,0.3886999407677285,0.40425449100791866,0.38345350026005764,0.3547613954956863,0.34588828769223623,0.34580161983115554,0.34580161983115554,0.3461222899891787,0.35628301121843853,0.35708433586691557,0.329495840688375,0.3024497664521224,0.3116980779372489,0.3382772185641296,0.3910888905044074,0.43139944964943133,0.4042198354904287,0.3794108633895168,0.35457915586062727,0.3407566968036244,0.27942487044310216,0.20529288271472934,0.14124169825359445,0.07955110062328608,0.0455377855631145,0.06908255508633276,0.13769850435418318,0.2066910196688445,0.27096025116862155,0.34523046605573793,0.4197977645129587,0.49433412435967927,0.5632204630578275,0.6276026005570663,0.7001300088036411,0.7516030554811604,0.8081302611091608,0.8738375789703938,0.9083317870915297,0.8531525043915957,0.779362186106197,0.7165687918676986,0.6457071541472454,0.5713025466176287,0.5053540684753295,0.4423920432764987,0.387115774396499,0.3572298289199738,0.33330233566228795,0.335338467456753,0.33251861306715513,0.3455201735459541,0.37452944180090997,0.39714360777656665,0.43195106173644815,0.4297981658419201,0.3970003412144183,0.3727803663075302,0.3472878855902599,0.3366237156266978,0.32523123264433407,0.3217502654162008,0.33744133539638854,0.35788012562125315,0.3547657018853756,0.3699959253389209,0.3552452035438467,0.34641076799101267,0.36613759151969205,0.4175674914954426,0.4633640818761977,0.43924120636666597,0.4094822601908965,0.39246677073072744,0.3590234507488965,0.28873750977571166,0.2147801651714376,0.15176473985372274,0.08202899226765181,0.02779586859677252,0.020513398053248366,0.06623134027183708,0.13834726756596272,0.21168420611163885,0.27380447959206444,0.34586891859020774,0.42043237981897885,0.49499967827619873,0.5695454631967674,0.6395416041638708,0.7029790838065781,0.7769993789361731,0.8444312652133239,0.9093092140552845,0.9360908193047028,0.8830203130251015,0.8104081566189878,0.7389604054108214,0.6765477248968077,0.6028844990040336,0.529373272805493,0.4679889976388396,0.41136516916167576,0.36652462263980023,0.3368309326588732,0.3268779866839733,0.3145119747100025,0.3188456622416229,0.35207293368379267,0.3770770094608733,0.4065546093993704,0.4083045117216071,0.38735714713881286,0.3496711746273764,0.32066966381679096,0.3280420274587925,0.3429170008143383,0.3310212927158016,0.32975724566918707,0.3382293045449294,0.3396519576738086,0.3161533576065665,0.2811718731820858,0.2662911422472529,0.2927110324057396,0.35002261054658046,0.4069853243331476,0.4295017724453598,0.39964722878854264,0.37720764656152417,0.35209482594513997,0.2963905326087031,0.230250351014182,0.16745020569165936,0.10213729773420388,0.06278449124436536,HB
0.10439886390095288,0.0799039937070718,0.054913822769635745,0.04859318921214606,0.06998358608510458,0.1019353978896631,0.1344176969750953,0.16572429126542376,0.19697616812806285,0.22253773984133807,0.22510248891318085,0.20493442407771534,0.19586961547253345,0.21985241063851868,0.22814998271425857,0.21458443061706256,0.2192591685944164,0.24351722111971208,0.2811985521117213,0.3216366080038323,0.3621792857178948,0.4022928985057793,0.44529742109412196,0.4880794259920297,0.527253908865502,0.568971660231666,0.6120553088627975,0.6546712247372591,0.6933645692309086,0.7288071486750779,0.7676546648426065,0.8099925269900604,0.8489037806490386,0.8912247857472172,0.9265080734856818,0.9086315385984899,0.866055673994549,0.8230041841567278,0.7822925811650935,0.7422900481033913,0.6993895527345485,0.6593123195177958,0.6186796069959927,0.5756318215860464,0.5325392227015947,0.48945004215507126,0.4473417893035251,0.4083681382150445,0.3657900602217755,0.3241813373451371,0.28508685618295093,0.24585449850428553,0.20871292087668136,0.17655536544348427,0.15339912426469893,0.13639554847722324,0.12164404787500471,0.09824363391038116,0.07151560681003877,0.05784225948141852,0.07261181727029753,0.10256780563771972,0.13660341289742806,0.16956895985850184,0.20173105542528158,0.23160812261651653,0.25578936010794207,0.25979166444094426,0.24309534514887998,0.24855713096586773,0.27580515375443526,0.26882399778843136,0.25795130047483794,0.2632264012961315,0.2926179691054043,0.3328175364113277,0.37336466682779024,0.4134737321692835,0.4564695980608443,0.4982196102176696,0.5373777534004357,0.580142781910746,0.6226835942675358,0.6616212747666891,0.7038121084982055,0.7468642663962973,0.7875937206875933,0.8275777312533216,0.8705674281491412,0.9136277331065307,0.9489415311759223,0.9311218798022302,0.8885492990130536,0.8460386080612109,0.8071036138132776,0.7648831376989046,0.7227446507947611,0.6837853879420114,0.6412195885662745,0.5990939712114357,0.5601282336526069,0.5175506967962739,0.47445885066070137,0.4313662517762499,0.38833019734679153,0.34790549229597867,0.3077065741177578,0.26757958902566226,0.22862800086053237,0.1925295173014412,0.16151564856367673,0.137202030586835,0.11805467516552148,0.10000066005382535,0.08032364812051562,0.055655843060762544,0.047398327205169566,0.06755288192516917,0.0957583402366734,0.12912349054253314,0.1623615490666025,0.1916434418149967,0.21755034789795757,0.2302101104885732,0.2120903764412283,0.19971871809216102,0.21986427721758206,0.22545009578730546,0.20216195353819932,0.18020630941299165,0.17204333215019052,0.1971828286598457,0.23579297040697988,0.2763224540415966,0.31623949883153435,0.3586802637376837,0.3976258577664892,0.43979831727846397,0.48257435613483957,0.5217412421449498,0.5634694105797179,0.6065536639740966,0.6493756670708805,0.688653467286083,0.7302295465192169,0.7732273176486429,0.8044504494919008,0.7799211623169692,0.7374635066362579,0.6984023582915474,0.6564855389968461,0.6136208346142628,0.5742256883712883,0.5328127499175358,0.4904329861693978,0.45151561751023384,0.4092297650562763,0.36897659623487067,0.32852816389259587,0.28549406311121095,0.24241112227842176,0.2008008961538038,0.1629394260860043,0.12826472518597853,0.0992125460143295,0.08144665622180369,0.06692255329845753,0.04641269308226459,0.02092856049824854,0.0,0.0034643763635481273,0.027934714261814042,0.058638780535306245,0.09340236845814576,0.12734289712993874,0.15887102679471188,0.1864500793994679,0.20867545861871983,0.20935860573734377,0.20787386948710718,0.22457671478114538,0.2037014351069104,0.18103210302041683,0.17163472239882283,0.1880882962767665,0.223861187949692,0.2625268454910734,0.3042978561780516,0.34338580441965216,0.3852428030954912,0.4279517837276824,0.4670324540824823,0.508908544891444,0.5519937674854088,0.5945385207442923,0.6334790788905923,0.6756633061517098,0.7187524019293444,0.7611672460686943,0.7832151279567429,0.7534336821874704,0.7144669598386212,0.6717651055798372,0.629141299410373,0.5901581761780078,0.5481831174336992,0.5080760201382045,0.46748187726591095,0.42538146490321715,0.3864250796976131,0.3439133335696666,0.30346814778229436,0.2665476229800241,0.23114999666844482,0.19336539298464173,0.16158013290664508,0.13893107641808666,0.11540959194170786,0.08875902321771312,0.06790771473124846,0.0493435738105793,0.04151508299172291,0.05611086259989839,0.08349288935927202,0.11076915694238543,0.14149371268720945,0.15348524441183686,0.16556445933736164,0.1604298875969994,0.13719466158442006,0.14123053921654072,0.16694994647652228,0.1671386088515595,0.16970516948259762,0.19781504336104794,0.22718934069552177,0.26104764264128155,0.2990322535260742,0.3404141247943907,0.37953577834283114,0.421660170067227,0.4605804436126245,0.5028522066065101,0.5459415484956817,0.5885050352388222,0.627459981620852,0.6696111765299829,0.7127006192634554,0.7556597089534162,0.795448358547799,0.8363941597242096,0.8794588101439668,0.9223368469959293,0.9617570971999624,0.9999999999999999,HB
0.9838136860222793,0.9389803176209879,0.8811220675344857,0.8252814433722435,0.7620198890048042,0.69855806860411,0.6351209117846073,0.575627627198539,0.5207766978856385,0.4576466496729388,0.3941848292722445,0.33073194015497465,0.2702509365586707,0.21615575063664827,0.1560647194890128,0.14482021696535097,0.1645309549594749,0.17481677044983557,0.16420627842824342,0.15216842900955974,0.15594946323628478,0.1576515670917089,0.1409329812793383,0.12616516243081288,0.09703101091035315,0.10383223100750993,0.1333136084854567,0.15455143032964647,0.17920271601947468,0.2126613141645055,0.23636998489004468,0.24020300905195868,0.269024848363536,0.29361540919012463,0.30197905493391786,0.2755853572437308,0.2433573147032988,0.20879061468372284,0.19648740891170058,0.1963019019366674,0.16070390329585726,0.11668424249991616,0.06390909695441205,0.027368408572890468,0.040910368371620764,0.06985488709417775,0.10098377990466045,0.14674750174146545,0.1976509709739458,0.253235756045999,0.3074837137566375,0.36759640287747497,0.4215591264290113,0.4833546606275776,0.5367568555585767,0.5980973541158143,0.6529944956868474,0.7124326273982289,0.775868871394404,0.8393185837890396,0.8987478616307467,0.9225847502084308,0.88747081603493,0.8334708864911031,0.7703901191995721,0.7070975391523049,0.6510521394923379,0.5928869980582696,0.5294787341552587,0.4660221082091758,0.40475800322632316,0.3511202657628709,0.2885669198774068,0.22510549482339326,0.16165318060286382,0.10130690069289439,0.055511621204826556,0.07148639889536956,0.11568810837342203,0.13114634314425389,0.12285871102717816,0.1042869706450642,0.10475202520910609,0.11719450950612109,0.12166890757898874,0.10936245709522363,0.09441569509545711,0.10837362561306763,0.13590562418827612,0.15076629721417567,0.16726717623813347,0.19096233037840205,0.22117926234698237,0.24671716679134703,0.2622662130805977,0.24342875158834532,0.2096017657113094,0.1712187867143944,0.14513142570649706,0.14025699823515558,0.14765253072023365,0.1465713728887421,0.16619979664545537,0.18955895012233825,0.2336085897581357,0.28435029638140885,0.33770494452431987,0.39070816690716437,0.4441595414445396,0.5059198068508841,0.5595923214431433,0.6207961878578006,0.6842525263555135,0.7477040543055822,0.8081757787354757,0.8622615429086415,0.9240113205492422,0.975797504773886,1.0000000000000002,0.965026669172621,0.9033910640834797,0.8469180081778036,0.7891928314562533,0.7257994735243123,0.6623376531236167,0.5989514543819225,0.5413317803563731,0.4847798428682031,0.4214262341924455,0.35796561963216944,0.2958082991525586,0.2423421782755677,0.18051957971807586,0.12169061442286577,0.11621543665675937,0.13680210701180306,0.15732659104334412,0.162358005330957,0.1547608767523554,0.16278329197614227,0.15634272556689077,0.16313217867947638,0.15967247263475515,0.16422592670671565,0.1949204344835438,0.2251533615714385,0.23651155396721735,0.21583999663330666,0.18420626639630622,0.17490418992294354,0.1883827065929602,0.16911147300360452,0.13561267674961086,0.0971742638735027,0.05871214014186932,0.057719046795855045,0.08342187443667437,0.11644644547108851,0.16804524085375694,0.22497489859173192,0.2782819675281598,0.33571585275898985,0.3837749629588638,0.4293278387421011,0.4915827132600137,0.5533450993310394,0.6068324549819868,0.669033691877982,0.7311938751116898,0.7845537995276597,0.846083540260888,0.8918658851549306,0.8818650175195233,0.8351343473897004,0.7749433718301921,0.7116120914836086,0.6547079967151401,0.5974227847061082,0.5340443327452362,0.4705825123445424,0.40713075035179913,0.3468100223418118,0.2926191529075288,0.22967096351374816,0.16635052305761744,0.11121402254456769,0.07387031256745202,0.06469673088797401,0.07248066716289592,0.058137694178819865,0.02495943795056288,0.0,0.008093641909649785,0.01995353094715857,0.03467644318813057,0.07246261104666663,0.10022441610148314,0.11931842015642435,0.13833528279221663,0.14773408557962164,0.13059810723158516,0.09564396952702459,0.07461278520779868,0.05976686506074258,0.03383248092713553,0.03273693965789071,0.030939697371586083,0.03862899997677105,0.05801719654768145,0.09005019620805155,0.1357074858962195,0.18870114919140835,0.24239916201926115,0.30258173752295225,0.3659379926115862,0.42295922579310674,0.4801182353761646,0.5416292247676127,0.5951641496910034,0.656837229623308,0.7108623350780794,0.7713128645855492,0.8273569542724044,0.8690089536729164,0.8547246199216512,0.801105344819123,0.7470997069674461,0.6842523286821705,0.6207907652568208,0.557690686607885,0.5027827191771694,0.4433215376599786,0.3798792870236454,0.316417469446858,0.2531384650244737,0.19732205072677167,0.13892346181993198,0.07777855067436623,0.06708856604839375,0.08940848544099977,0.10230085100605968,0.11870902234025338,0.13953011864273157,0.15069250186157457,0.1587574041862314,0.1734097926922631,0.17934188931537354,0.20079813918355316,0.2346332738035295,0.2335019970715806,0.21080796082859687,0.17703954391123777,0.14538613004821532,0.12272936047393412,0.11047506697172937,HB
0.18418470693008815,0.1692346727512335,0.14806997455359028,0.12283772737468746,0.08871359994223815,0.05325272540018333,0.025038087820748123,0.027537603355562323,0.04950347367358576,0.08218818924876281,0.10888875931420361,0.13310534360239878,0.15605610986747442,0.19423010892104897,0.24334722621218186,0.2943674696766272,0.349761162533905,0.40322810844654944,0.4580388857659916,0.5136040603878385,0.571483413372414,0.6245181389291352,0.6828878358792461,0.7351433116352528,0.786768414733978,0.8179814947590349,0.805116593783149,0.7680206473167213,0.7200554540409174,0.6745285626034601,0.6272710347768304,0.579345143657289,0.5315695639584457,0.4806324919651386,0.4268771423565403,0.3746354723486802,0.3228598514282168,0.27095221268151115,0.21209418205197816,0.1745404102101502,0.19271809533905104,0.21656126836086353,0.21176910866192133,0.2004083845955007,0.1798263608034334,0.14744281562442185,0.10818720710827234,0.07414660745742174,0.04114678599729826,0.01991130558826515,0.03179481094802705,0.05679425151524686,0.08316256675367706,0.10464854750550079,0.12513369422570153,0.15046630247969217,0.19402471499071305,0.24689290829276955,0.29912327546715245,0.3558093262144215,0.4087517380786354,0.4658698756610542,0.5191386510643208,0.5792186538918125,0.633694711078647,0.6899478570559061,0.7505279995364804,0.811057415507004,0.8662418786976291,0.9199204113373207,0.9705743008390166,0.9999999999999998,0.9738085680143536,0.9247155459010374,0.8789255730315817,0.8288505678551832,0.7787230319858007,0.73337678464736,0.6787398345985534,0.6243496226970151,0.5719733802317408,0.5199093584237546,0.467871469740915,0.4149826356056827,0.35870703184663166,0.3063430621844798,0.25276943168263966,0.2022663420756623,0.16479920509468937,0.17909952836800636,0.1967643955195424,0.1981822069360175,0.18110859217869169,0.151105266322755,0.1162048844099346,0.08358666200581477,0.047464602953358526,0.018156419628349685,0.011974319264286937,0.02758271150184588,0.057735214202097485,0.09371465101195264,0.12695522619072364,0.12629396075827293,0.1102183097781646,0.13785294505779588,0.19149520893285987,0.24532961462620717,0.29799233595216923,0.35662404673885084,0.4090073560800822,0.4684510576553731,0.5266821370294881,0.5795445586918035,0.6388539517064709,0.6914537654176296,0.7497033380864735,0.802940448890715,0.8594839838295185,0.91099356621324,0.9571533329066544,0.9647196409997914,0.9245075514783763,0.8741203909581363,0.8232525835440476,0.7716427960442853,0.7230795040420757,0.673851791311064,0.6233776183715805,0.572658300414999,0.5203661574714624,0.46666645847227883,0.41491198025814224,0.36306368455183224,0.308018677551132,0.2673899498973997,0.22252975287105325,0.17769739205603585,0.1900622167558359,0.20856415569617548,0.2025859609110383,0.18715669807737356,0.16231677550159174,0.13013136372515954,0.0910545401065519,0.05491133524617453,0.02073656697868076,0.0,0.014133255818401746,0.0419947847500044,0.06904661546688673,0.0967742080673688,0.1157749328023423,0.1404566410495447,0.17884953916955726,0.22675098705149832,0.28181608610340403,0.33416837236600494,0.39196024370431215,0.4444303466444466,0.5031351445013581,0.5555863118514728,0.6144671772616175,0.6684999077394556,0.7251923135038838,0.7820404457205947,0.8355593609300842,0.8885589815812469,0.9405574027632169,0.9503675127386588,0.9110312371129476,0.8683840029796583,0.8225916560662243,0.7712882285533926,0.727539920780188,0.6784089447562642,0.6271785160705459,0.5693495486687901,0.5173575123987193,0.46540299469319746,0.4088762640413557,0.3566366172794466,0.30323413198872107,0.2508842479455857,0.20072270439823048,0.17421438936031453,0.19416403621688616,0.20857235007595465,0.20558630444402737,0.18957652088675592,0.15778325065404375,0.12330908036083787,0.09009506910019716,0.0641694153671084,0.05733708817845984,0.07644578808284908,0.07713240173540936,0.05968043227860109,0.0778775172728734,0.10660933612395262,0.1428258611487756,0.18378091319404377,0.23252526405028706,0.28442765504101164,0.3442480659068461,0.4047433388700987,0.45958060113672716,0.5153994069806356,0.5713999033416173,0.6260207656087522,0.6831242787466885,0.7366820655955115,0.7931859637432208,0.8462081604035234,0.8965634190853324,0.9252346903949011,0.9032248107427214,0.8569057383658747,0.8025379586473476,0.749086815219967,0.699222032420207,0.6522706434579104,0.6038129149926397,0.5568871077879896,0.5053905145110693,0.4531112038424716,0.40053158123652466,0.34654332903484053,0.29352956935444463,0.24157580740269413,0.1918961792475713,0.17989880474831477,0.1996251665554576,0.20227153046263102,0.19512062366897354,0.17406644828254825,0.14721044586532428,0.11487311462171168,0.07843459458192359,0.04113831078383523,0.019652398216171818,0.029005173717654653,0.07634254125007534,0.11842432111483037,0.1430579974666042,0.14084690544751188,0.10421475659012192,0.06948852906272585,0.08477853447222694,0.10870750342388158,0.13207921699939806,0.16500088214748487,0.21284241533627624,0.2647349117704374,0.3172459007785686,HB
0.12091541806100514,0.08829068678465912,0.048845643419140994,0.014068900755632718,0.0,0.019768454004667646,0.03952609543662333,0.05481719799036944,0.07870741253575053,0.11761964939761838,0.16496615723710206,0.21348584983260877,0.264150403576353,0.3130347982977816,0.36578809981158467,0.41506223997446645,0.46667345989106346,0.5194003390045702,0.5681683136097179,0.6206493272022536,0.6706249137241992,0.7214087065564222,0.7748667481082242,0.8283750812248843,0.8818742541341452,0.9339033903836106,0.9809944434605472,0.9969520810106683,0.9547027184452376,0.9050604978852047,0.8540276258840155,0.8017368070463341,0.7529035405872319,0.6999541588156378,0.6464631401719855,0.5948502392464422,0.5455754133795861,0.49234351918243735,0.4394138073687667,0.3905790736566691,0.3383198767729537,0.29008875276926427,0.24908384541827722,0.19999469710570927,0.15401420806412547,0.14037164983813588,0.16326367022375898,0.1692914427853488,0.1371593274060633,0.1293965930140214,0.14841269332253548,0.15054357871232737,0.12953431188822717,0.09425040563191822,0.05848759009772064,0.022878965356912473,0.000285540406299134,0.01591780435188217,0.037922884019721104,0.05499251213517642,0.07402169545875492,0.10730846555956541,0.15213287618405535,0.20145139012726954,0.2547656528664085,0.30799841434161823,0.35727324020847406,0.4087701182763924,0.4587319145822274,0.509515301555776,0.5625853437334455,0.6115940331213335,0.6635790019632847,0.7166808689777714,0.7635717840016912,0.8062258306599229,0.8573338801723808,0.9060987713940493,0.9572239435373294,0.9857805654339725,0.9566762264464396,0.9054125852154903,0.8526965652663564,0.8039435365119328,0.7513204554964256,0.6979662880529786,0.6482204989252388,0.5971822310663663,0.5437879828113775,0.4934345034416149,0.4430381197199619,0.3896067496682757,0.336098416551616,0.2826200942586873,0.23140702885536324,0.18287156261509685,0.1452609681388234,0.14612266229894721,0.1732295696563556,0.1739394603974408,0.1459491427609808,0.14849356288879878,0.15162621720180647,0.1345179472261001,0.10369714451912626,0.06828082459758544,0.03390026373664068,0.013074238845910524,0.02775325013138419,0.04953869807112443,0.06150415311411073,0.08123592305243088,0.12378365928693424,0.17187999576259838,0.22076967242473378,0.27060891698872835,0.32117297534019007,0.3732974105379522,0.42219179785576777,0.47494509936956997,0.524219239532452,0.5757161176003708,0.6256779139062053,0.6764613008797536,0.7295313430574232,0.7785400324453121,0.8305038838375897,0.8819108744782768,0.9236729047468958,0.9151015816815647,0.8647538120465602,0.811252522146153,0.7579802729002175,0.7085891108520036,0.6571268919432248,0.603654046440406,0.5525376249981034,0.5121101223827144,0.4623479256784223,0.4091482668578884,0.3599086681268756,0.3083843677826258,0.2584627957455371,0.20854965402384928,0.16153104111946381,0.13275175841349685,0.14721606019222933,0.1659783171344268,0.1449387528438516,0.12014172539737944,0.13580472305742275,0.1454958518156909,0.13654048122033424,0.11048733258543264,0.07549983186843912,0.03790232434839402,0.010678774886389242,0.011330853607378732,0.03223084652888142,0.047361540716520656,0.06586169047137092,0.10344583529992424,0.149151902796134,0.19740039512168528,0.247528035153752,0.29765289578827037,0.34901311230805143,0.3984040065283393,0.4513420465049155,0.4993039235208857,0.5418614559456981,0.5920631776396795,0.6408035661243844,0.6935196293392464,0.7451686557503941,0.7944082652978371,0.8475613006698158,0.897957501803562,0.9480723968766162,0.9840626964621727,0.9570401682728985,0.9090615948776956,0.8562484040412991,0.8054659131781806,0.7554877253286024,0.7021054076659529,0.6501200329653282,0.6011113435774401,0.5479910098349124,0.4945468452429177,0.44397565862949306,0.39379093417274025,0.34050585421181856,0.290566094015254,0.24031577356179545,0.19178577783205164,0.1483291785986912,0.14051595446436982,0.16542592050186034,0.16489129225738386,0.13152582426499893,0.13129120574625197,0.14844779186453716,0.14975476533926801,0.12640579081112036,0.08918128244906998,0.05222870702208904,0.018185131034667013,0.0074076541379346494,0.028570391528852768,0.04795492324200079,0.0615584029771179,0.087075335034002,0.1272929348144375,0.1743312501154296,0.22458917734561978,0.27380024054648533,0.3253557083033821,0.37594734892976056,0.426094418576601,0.47950074930426523,0.5330081594916612,0.5859575412632548,0.634790807722358,0.6871184776545866,0.7405249219522644,0.7907096572254478,0.8412799209096099,0.8941655400152139,0.9429849695194278,0.9915556068453594,0.9999999999999999,0.9606794744823192,0.9184756220514471,0.8756285764705586,0.8298809218300568,0.7791002726259587,0.7256391032737607,0.6722822881569804,0.6225364990292416,0.5714982311703697,0.5181039829153798,0.46775050354561765,0.4173561539515055,0.3647005672424196,0.3159476460065974,0.26356062722895024,0.21417590401556474,0.16494216630303982,0.14373226572755693,0.16280076104210128,0.17038709201983526,0.14049582518499049,0.1353322090149146,0.15201357122919712,HB
0.0057093446488137856,0.004480881638933343,0.0584202152647868,0.12663585731817484,0.18946905482852372,0.2545467646312881,0.3202307181862939,0.3825306231756064,0.4490379911125849,0.4832636321385614,0.5028332348549925,0.5473129796679265,0.5973273763189161,0.6530035229916636,0.7092331782666651,0.7594786405518187,0.800650832928791,0.8343450244503786,0.8695840738829955,0.9046293937387925,0.9340549580645997,0.9147029856214756,0.8706189369533303,0.8222099076663724,0.7764502463286175,0.7400828318767402,0.7284156996425281,0.7352741980816256,0.7331491265935423,0.7222624249220398,0.738041092401191,0.7658514739445886,0.7596247382899098,0.7451205889970051,0.6954410803731909,0.6356954872475277,0.5873032300357482,0.5975102350783347,0.6573579934236472,0.7201308525999331,0.7865920463292514,0.8481934234062395,0.916442131644375,0.9836485425747218,1.0,0.9387636616613907,0.8763488008923205,0.8107993206677983,0.7443957999896763,0.6826088290353981,0.6143081974760617,0.5483888434484238,0.48625099622532264,0.4179780737380493,0.3551246133146643,0.2901195711651564,0.22565746922447827,0.16240691336990387,0.09901602343013982,0.04588716722224295,0.046494717849475786,0.1061690923485562,0.168012792213737,0.23422249265010275,0.29869096435027453,0.3619261299491704,0.4217047607767507,0.4734391587574508,0.5381351236194897,0.601136894801593,0.6628217861779523,0.7202938714031225,0.7725524253554675,0.8163338633002749,0.8514349943189635,0.8858724820852436,0.9202734991868472,0.9468821669904385,0.927101474224498,0.88119674538793,0.8333841358278388,0.7870742871266042,0.7508859481887123,0.7385898298076571,0.7452921969348009,0.7401859504460492,0.731247786505543,0.7504193413508667,0.7779168713726078,0.7677867145135896,0.7503838483778248,0.7025956114589088,0.6413986415607377,0.5924998680330721,0.5935728011867033,0.6500172957651432,0.7119279016521044,0.7795365410970182,0.8409368526229463,0.9080185404117239,0.9730371078214363,0.9719141586196768,0.9067060545505786,0.8433232850710369,0.7788274176690578,0.7109585814005855,0.6495983143255534,0.5823834747587001,0.5169467514671956,0.4647448369497412,0.40901782179101354,0.36025811432812194,0.29842356828835326,0.23187579278323256,0.1702412258466811,0.10387710937732353,0.046572793744733554,0.018894275039022634,0.05886567195848669,0.1229021134938949,0.18572653931651717,0.253635852176897,0.315097673026116,0.3817450017652876,0.444257753349265,0.5094966343465265,0.572348308232625,0.6360747686369462,0.6951320162927274,0.7486705018934549,0.792920259360912,0.8277234364521261,0.8614869309366296,0.8958715910648322,0.9250009325971272,0.9132763904196542,0.8690417215626028,0.822098985435571,0.7744228765866944,0.7388131100166954,0.72660067636979,0.7260903646596147,0.7227739983277833,0.7184233540269481,0.7418789805606668,0.7609577041820489,0.755086073049034,0.726943351651896,0.6684393564012218,0.6101367632470508,0.5731315143717849,0.6047631576762059,0.6651482528295328,0.7333215037057991,0.8021567946671716,0.8675335698296286,0.9299521930562594,0.9767714346062745,0.9340251570391686,0.8728652586368734,0.8059042437567115,0.7425151236434034,0.6780320321474752,0.6108589922559192,0.5494927428287554,0.4815711285811516,0.41476772549828145,0.353224432929263,0.285629695475092,0.23066878789691325,0.17693683851805908,0.11335033833963848,0.053301223118709884,0.011390688188877673,0.03600141790222133,0.08243989549175301,0.13985953494840386,0.2057068443470066,0.2670624088887118,0.33497207163384746,0.4007215857526364,0.4630020192590648,0.5305089291116879,0.5917581983506949,0.6542550838237947,0.7126848430910347,0.7630322921847795,0.8068908646606842,0.8404930596858721,0.8733794563215599,0.9068318564490215,0.9358035508975479,0.919086099004896,0.8741955489674501,0.8257151058044888,0.7805761370009973,0.7444857074486514,0.7369795849904345,0.7440143489766547,0.7385016218015953,0.7206612505853814,0.7188092498980326,0.7527512912062043,0.7657309851363269,0.7553728340142626,0.7270015688836847,0.6684637398106926,0.6083920251221627,0.5608518487437616,0.5747412991385764,0.6344572487240113,0.7019625002881734,0.7633046412218639,0.8291923132026583,0.8904173653923696,0.9448889911716988,0.9189737175604179,0.8544870697709174,0.7863504762768919,0.7248036625431719,0.6582425783145419,0.5956129048067721,0.5303013763626242,0.46185058743962915,0.3996681506824934,0.3337881485756743,0.26593373929379605,0.20461994788462767,0.13811963433044727,0.08070439380620187,0.03344085555200982,0.0,0.034077534347236704,0.09290713000239115,0.15803804761947593,0.21980019697647102,0.28619985646512325,0.3517543052209905,0.4141790400634974,0.48215189347017817,0.5438439812667389,0.6088210076075727,0.6686802458140119,0.7249572958697993,0.7724247638944554,0.8160413549863151,0.8489178984939748,0.8827666397676285,0.9214502311710547,0.9490393469608699,0.9236351658881755,0.8779660215713724,0.8305965017565343,0.7839848694441335,0.7513703151789618,HB
0.10150056806095775,0.11959924989183168,0.19014315981578744,0.25868856830050846,0.3410709479867309,0.41790554524714696,0.49859316176074286,0.5808167058584817,0.6565797803120643,0.7395031554238771,0.8153730598899538,0.8949030965684421,0.9550888742146799,0.9362815562404172,0.8575249143997146,0.7758680886232232,0.6997563054483347,0.6158087940369728,0.5312135054751981,0.4466674988691872,0.3664114738347364,0.2891865218668823,0.20489575732247522,0.12043017820284829,0.05632123137346601,0.09052148140661886,0.13298384452309286,0.12410763579601536,0.08475566019056302,0.040521773489022195,0.05985671611176424,0.10106687429842176,0.07839496143150737,0.05891131499581692,0.08147283645422454,0.11781495533853925,0.09782208073640186,0.06831086304145884,0.07837513027894061,0.0839573091057415,0.06179350009895446,0.09859022760015557,0.15901118734402675,0.23559443366332178,0.3116135998363163,0.39370479200869357,0.4693085278582856,0.5515889967847654,0.6272764651413876,0.7097801850841774,0.7942411664678384,0.8687783355136778,0.8777868870446761,0.8130521568325528,0.7311923030536305,0.6466193754066751,0.5643571831824536,0.48856717883379575,0.4048868288901144,0.3203020358211017,0.23808814914059417,0.16227815914995358,0.07980307042646584,0.04654167366523776,0.08860124668827885,0.10201514916407839,0.10594273680505029,0.06730762360976983,0.04431111051598191,0.07509826091318694,0.10994844760078593,0.09643883073772663,0.062410533931942735,0.09413611973024305,0.10611238191133832,0.13909289964761506,0.11339765232805732,0.06848151848172179,0.0785363093129352,0.06855932402786968,0.0989881060275355,0.15914800444360222,0.23339480319846095,0.3099789166838096,0.3890627617768192,0.4701176309741568,0.5465669663029196,0.6272096468280404,0.7036388692232725,0.7803655419707043,0.8401570873231801,0.9035825609891053,0.8815975036329744,0.8088540587951021,0.7255411768575704,0.6437866071412388,0.567731578801163,0.48380550315195303,0.39932531654826975,0.32043683962625624,0.24194253583187897,0.15777283126071384,0.09822898743084063,0.10733815172972316,0.10062424548665083,0.08818540127505892,0.0475382546703953,0.03039130003761703,0.07666033722502075,0.05680828549282979,0.01737488872437143,0.0,0.0174648034851419,0.031474791196481666,0.002813896372516389,0.01146765575328157,0.01670616543229997,0.038363343040354936,0.09505617723246007,0.17629831822669018,0.2527858607204323,0.3329636202388151,0.4086824385576804,0.49080609093857075,0.5684155315036274,0.6481952934191846,0.7285897845273668,0.8056331523155429,0.8870245164359714,0.9602903743388833,0.9950834085831259,0.9370180514416304,0.8528472668123321,0.7682516261428989,0.6838256052900091,0.605553478109554,0.5264282525371884,0.4419338779901769,0.3573382373207459,0.2729197920151465,0.19473326896546417,0.11586782695743514,0.05660284433611418,0.06453605125903894,0.09708882882020142,0.08414096470148591,0.04194737325878606,0.05453661309543478,0.06009513269500477,0.04259331655162968,0.06820021326253345,0.04240860525368184,0.03994510860441536,0.0672914876862043,0.0396955761548321,0.034947885727926176,0.0940002305151666,0.1470881994537121,0.1276268972943686,0.06958022284250776,0.08588211806355606,0.15236027720073397,0.22646130962370115,0.3039051804264423,0.3836558076007759,0.4435887398292857,0.521317439122986,0.6036614892989751,0.6793482863879066,0.7622836908975532,0.8382069370883791,0.9178516359587598,0.9870613686267051,1.0000000000000002,0.9321228913309196,0.8566289171997215,0.7742058867439419,0.6896174232387648,0.6050264493800126,0.5221966670171556,0.4466424363388046,0.36329776678418857,0.27870403441660874,0.19410865548759104,0.11063533596975961,0.06929458130309185,0.11020877051434308,0.12164617082433016,0.09174948930327331,0.06092632935082132,0.039369681205263296,0.056355995805296155,0.059900028527864135,0.07422165749577703,0.13628371306533338,0.16096937199352035,0.10554269851936082,0.05632226439664434,0.0756775260514373,0.06899929657291648,0.018324365654561525,0.03976586441327812,0.10513832602008333,0.17150699048125628,0.24529578626903548,0.3220834691510477,0.4062026565273593,0.48527524203592454,0.5634919139190802,0.6423597635940659,0.7188293521328679,0.7811476961767252,0.77281246573889,0.7014085162974169,0.6314924430556113,0.5645055399169523,0.49824135308078765,0.4249236613792451,0.34587852065337743,0.2613874770983713,0.17686276244477317,0.09714939649405507,0.02410491625614175,0.01799566582333889,0.07499436761265255,0.11500529302049545,0.09132585319912478,0.05460172977824218,0.026705937298962423,0.051997261676943296,0.05362749108742615,0.05977658654072471,0.057337781781932495,0.0968658883993263,0.14835689233125504,0.11922755529537277,0.0645553662893339,0.031885294370106676,0.07500865245637112,0.115894756982035,0.08454341928813647,0.1040365092486133,0.17595173898337113,0.2541584468082163,0.33010142949116505,0.4117100473602673,0.49008366227374744,0.5683881505227462,0.644291789775677,0.726109348172449,0.8099196034708946,0.8755561774556517,0.8718842731325755,0.799312920529961,0.7209594808594837,HB
0.1686461515644031,0.1833153055328003,0.21699786079326344,0.25859419562897434,0.2865148452104851,0.27878942701040854,0.23718370093913688,0.18988310185654678,0.13803970336170313,0.09286982219040807,0.10276862803971021,0.14143183907516343,0.1635761074878639,0.1677552225389869,0.16777500073145957,0.16736844087180636,0.15604172457094156,0.14166482019502658,0.13441162310160681,0.10655058703661302,0.07143858276349802,0.037355593666100084,0.027158127876365956,0.05476842543527116,0.08742655608267524,0.11914995171717768,0.13906788094995903,0.14460674913236637,0.15189919396667007,0.1418687824728253,0.1493068625392775,0.18223372388711745,0.2311668570522687,0.2831717129880671,0.3438146967243809,0.3995997742281556,0.4564717897634849,0.5193805491744583,0.5820980500199711,0.6363403881436871,0.6948505101699749,0.7578137933026117,0.8201152177301716,0.8627487260325979,0.8499156463640345,0.7940518300625281,0.7347005177470507,0.6811836154797715,0.618634948331207,0.5556465796355776,0.4926585116716158,0.43058287179358246,0.3779075959658247,0.317208922046762,0.25422496681179396,0.19123726549629483,0.12944240047478006,0.08241587163632813,0.09129635599556174,0.14242786777068517,0.16980615818893385,0.18080558302134664,0.1861192277805861,0.21306229665901188,0.25246691242604014,0.29753374245571873,0.31298302629108665,0.2875799571477944,0.24518261339710667,0.19961160701947733,0.15718794981033346,0.13031646376404105,0.15785851588485666,0.17981780117640467,0.19046415594356025,0.19479186566858564,0.19481548270114413,0.1948152646132928,0.1941000240929367,0.18254504181984066,0.15924568787013715,0.12879474964702142,0.12382737498641383,0.15249362769518005,0.1782220011925153,0.1962462265917897,0.20279410577286638,0.19143506639029306,0.1787980199991317,0.16302316817610318,0.14637210420281788,0.17070031985565137,0.21916806775009867,0.27461888919972743,0.33061992078657365,0.3871352370912531,0.44994024787570996,0.5061322465351794,0.5625827084342871,0.6254745944269451,0.6884081061376057,0.7456109705626117,0.801054296449792,0.8616404207875692,0.8914693704608085,0.8542742006729123,0.7993158840428642,0.742013927728638,0.679078332433074,0.6161903403061801,0.5598371600154315,0.5035521081235426,0.44064508830492066,0.3776567196092895,0.31469637353752367,0.2564916832618791,0.20196805046566624,0.13922347548113656,0.07626596741085034,0.024404384823925263,0.04571158802183417,0.09828444004640335,0.13657378442403978,0.15063665495863043,0.15428278443925247,0.16133273491224065,0.19951848806283,0.23806448168295935,0.23998833811253473,0.20364764530521606,0.16144031654245916,0.11578888164736334,0.07083616537624637,0.04563615184745329,0.0837527618014402,0.11853799837569357,0.13055047537559306,0.13864922177821493,0.12852883611385968,0.1228969459311724,0.11381729640129379,0.10531420018806248,0.08602784500039773,0.06052744041384539,0.02553296133132754,0.0,0.010002301978589312,0.04710975560505437,0.08388710566994506,0.11560934483746221,0.1391159486776834,0.15156039287895018,0.15520053636768072,0.16571564122875992,0.17711532223395832,0.21536945679306774,0.2679807231521343,0.3225541406621977,0.38039739878118617,0.4415331159549494,0.4940396916454266,0.5558064597079069,0.6187481817512661,0.6763804443628914,0.7314361562882081,0.7942388853008429,0.8571107087387451,0.9129911984730965,0.9678100849403592,1.0,0.9727612886609838,0.9155597881120583,0.8526603318683033,0.7949928656292151,0.739962902422509,0.677169593987752,0.6141812252921217,0.5514959475111625,0.49718228485632343,0.4387092740066798,0.37574798116396746,0.31275964231193987,0.25018308582781934,0.1964537231312451,0.13850317701771786,0.12489829134452268,0.1612793409847808,0.16875924954161325,0.1795230025878869,0.19365912217775927,0.22568679051790408,0.26580037054576966,0.2872941391610131,0.2686728592298353,0.22285727098836006,0.17245504268462764,0.1254772619105946,0.08790515667762255,0.11003144685618294,0.1483426418348306,0.16680738669139483,0.16777472984339203,0.1676447918528141,0.1602637777838476,0.15408824074016847,0.14533772741471607,0.12561981567321423,0.09621959398535962,0.062475154897362994,0.029603238047478442,0.03054995198240107,0.06210971902469886,0.0997716509997324,0.13470010382473463,0.15327447948158435,0.1653782190397841,0.1677709278303019,0.16784525636852576,0.1781291125274711,0.21693992856960653,0.27029895376042834,0.32711050217264415,0.38271785679930836,0.44557599595533626,0.508564364650967,0.5715527333465977,0.6345313817708056,0.6942065362682595,0.7474921017009617,0.8099766396226085,0.8696666547134937,0.9140682908887658,0.9087959709518998,0.8616440800018226,0.800599719400235,0.7376129780896181,0.6748798498068638,0.6202941396803285,0.5621333869928624,0.49917973396146564,0.43621968159578506,0.3780455344952034,0.323493772231743,0.26074648983331095,0.1977610054590926,0.13667100212604444,0.09277531079450263,0.11537147286551308,0.15950643762825933,0.1795713401348178,0.18130130474359207,0.18588716871882616,0.22282674288138837,0.26517708040331023,0.2985378663715377,HB
0.137792445968139,0.10794027251121285,0.08621467831730079,0.10736907377264071,0.12428170424722551,0.11257476426770396,0.08472856744568835,0.05307473194459078,0.01822030498216587,0.0,0.019603498377626094,0.04629175924722517,0.06927387667442031,0.08457182978733857,0.10066084476240955,0.13820296200492588,0.18473534376434597,0.23755183529192814,0.28883625053849804,0.340868498782265,0.39635779346305444,0.45098802467383314,0.5005711618615696,0.5550792952514874,0.6101177471779504,0.6599435784001808,0.7137547108511246,0.765993442187364,0.8170999966405743,0.8722538698747575,0.9226661481332272,0.9742693271107725,0.9999999999999998,0.9651277822204529,0.9101785882107849,0.8546291135006763,0.7990793916193517,0.7435305543869593,0.6886620562455856,0.6389849347062484,0.5848073765332853,0.5292621731474567,0.4740748403437982,0.42395825395613973,0.37053070212855044,0.31502472656208336,0.2622694153224423,0.21161833328986068,0.15640115305848568,0.11246463028112386,0.10823136451232207,0.10983773446282319,0.11822881250863704,0.13234495900167054,0.13135585167890373,0.09972900881393887,0.09105929207569141,0.11489716124213367,0.1241692244500856,0.11893524355654983,0.08881769805602402,0.05780056157294289,0.03304372942275435,0.03990165062147333,0.06297492270818039,0.08269073733603904,0.09030966886336311,0.09924925673507223,0.1275261423113927,0.17341534662322955,0.22369430239797916,0.27891827568842387,0.33099135073875674,0.38226707334269583,0.4376951707127934,0.4932442823818586,0.5482037114989726,0.5977151379952543,0.6434040949715059,0.6886989798889125,0.7309453839480473,0.7794732354279306,0.8344442311319697,0.8860617635919048,0.9196465566955025,0.8978890716893508,0.8451900033027642,0.7935690940964817,0.741861435621896,0.6863937266806055,0.6310491778207576,0.5803331551825435,0.5276436801999742,0.4721260453615208,0.4166692119390869,0.365066492675183,0.31332805794799223,0.2578630036378802,0.20365698106471863,0.1541544005489237,0.11395251253838112,0.1126938190148179,0.11946397324456082,0.12901824334021939,0.13640655711667926,0.10887437196178995,0.08841213449682983,0.10546089776801182,0.11846494821883002,0.11083510609252145,0.08136349376268193,0.047878116749100474,0.023387407335796917,0.028281266335058675,0.053650593476819886,0.07257390703319566,0.08222839123275616,0.08864566803831164,0.11550887815289101,0.16196306269200722,0.21432244087825159,0.26490328934038,0.32005463910247034,0.37099908679984295,0.4234309224886985,0.4787710266417837,0.5297051560780681,0.5821452573424002,0.6364831957050205,0.6861181696227636,0.7408250880708211,0.796018350140878,0.8461782323960041,0.8994821085777358,0.9498000649228697,0.9621486940692054,0.9201040759439254,0.8672916827263915,0.8118767833143723,0.7604394416715996,0.7085317375550784,0.6530530644384986,0.5983775441645305,0.5487508059889383,0.4943305777338467,0.438785437141858,0.3841173390935604,0.33449253873965046,0.2800629770198624,0.22451780984521919,0.1698571761986305,0.12077539214725119,0.09219921400926201,0.10631447295914653,0.11115948543049425,0.12085109443020481,0.1366586832645098,0.1235182722875181,0.09499048464345106,0.0948238221184241,0.11935126063238344,0.1223083896402879,0.10016282176091051,0.06906946969785577,0.035114378524616185,0.00940149555427161,0.017310569397694486,0.04153082960249033,0.062034892463480595,0.07034725647911966,0.08170471078525243,0.10928160496401484,0.15314935448993627,0.1927741625663213,0.22977687999091834,0.28222613365705573,0.33767725012809024,0.38934643828691895,0.44101681203219467,0.49647959084476745,0.5520291103931918,0.6071770311699898,0.6572122884484908,0.7107596830726277,0.7662625908856788,0.8188709661726128,0.8696548778052919,0.924103418444395,0.9594342951543566,0.9379082408822692,0.8891697457901964,0.8340394598743315,0.7828013942742025,0.7306897974841702,0.6751967236996606,0.619920942553948,0.5695341239917717,0.5164575822800364,0.4609290129554309,0.40538134783401536,0.3508134498322546,0.3012148100710581,0.24665924657785743,0.19124052593562868,0.1400919356246868,0.0969580769678362,0.09657867044823498,0.10348458108266634,0.11385810348559144,0.122168176394156,0.13743312797571705,0.11480400315523598,0.08802189672809524,0.10247657405843014,0.12266236110008455,0.12066402107400465,0.10012238619251712,0.06986286056587443,0.045067054500559145,0.050201481657386804,0.07101668397807503,0.08727232868905399,0.09790887588547692,0.11743879044417116,0.158810548006999,0.21195259845494951,0.26186703923917776,0.314736392158242,0.3643288346730911,0.41871130333907414,0.4720767386911866,0.5222310225506666,0.5774010982868132,0.6298324095105101,0.6807679015327501,0.7361439142455144,0.789493705042071,0.8395544170442817,0.8870147881821719,0.885123529365947,0.8394095115233571,0.7847932546878058,0.7318203376745009,0.6813613554754745,0.6260547173222295,0.5711037271021595,0.5213899084397544,0.46733098141329754,0.4117944356956911,0.3579881150653028,0.3081402520702359,0.25306824660229554,0.1975268679174269,0.14373592317197748,0.09786504611791935,HB
0.04024953660894304,0.04146304197731521,0.061519173040423425,0.10230342367891287,0.1519238546364643,0.2080448119199665,0.2605383072020877,0.32154162241548523,0.37685933948396544,0.4329905514014345,0.4947457624228804,0.5543610319417849,0.6068298771438498,0.6678520490713495,0.7296869436696767,0.7905852801444606,0.8429469826675624,0.9027896613127409,0.962431675563626,1.0,0.980549177786016,0.9232587647784638,0.8701602241036253,0.8115058631777421,0.7497206611602554,0.6924064547349658,0.639644772803869,0.5955184178440938,0.5395250026607301,0.47785723627705234,0.4226089605332519,0.36638432483908634,0.3046204399760124,0.24291028922201008,0.1875193167228688,0.13161443447204357,0.08824428573357768,0.09954776590298486,0.11010543588677457,0.11246812982818843,0.10656733743778579,0.11968394582116737,0.10676473529927444,0.07712327317656698,0.04828631532376626,0.06268811520112116,0.09172853008601134,0.10208156601807916,0.09844215585723193,0.0833524884313297,0.06365137883422323,0.049080379728770884,0.032276149200988424,0.022182670940475102,0.02332239019957827,0.03720406906918128,0.04027634121962009,0.04551979933211281,0.06824336755182436,0.1061366666683421,0.15320003687398387,0.20729352139338664,0.26151768411271714,0.3206782757938309,0.3732274121585557,0.4344224873457363,0.4961442788548869,0.5512883603628573,0.6075890246772939,0.6693591635516958,0.7301607174655791,0.7823938002958863,0.8414225730235096,0.8855049344386172,0.8784886549650062,0.824534419689555,0.7716636969807138,0.7103726998302768,0.6487072117568147,0.5939851302983321,0.5372202175110679,0.47544403843694116,0.4163260373482247,0.36354719311568306,0.3023348992923367,0.24174702865678688,0.18947295415381227,0.12951340363297748,0.0913062128492399,0.10145970149134032,0.1105312148205213,0.11357341991601455,0.10985705339264884,0.11409675354943571,0.10011148100552258,0.07053622746663102,0.06020703041416109,0.08465291653667029,0.10109478486642232,0.10123472080624119,0.09073345075944284,0.07676831141046003,0.056204962025467875,0.04001140608129017,0.02371217629866873,0.005336905434629058,0.0030341292619873172,0.003032595057276044,0.004760609722077147,0.02562216375931481,0.06436170946499198,0.11439162224065624,0.16609483682260562,0.22517666154566252,0.2773915118627932,0.3378416972212199,0.3968607717984556,0.44967834118854055,0.5109497859092036,0.5715063926511244,0.6236830818045545,0.6840183168001808,0.7409927464806754,0.778562300004896,0.7631539006920245,0.7128144377736558,0.6577635992722861,0.5976118353908584,0.5454813630134843,0.48477568850867403,0.4229405627957181,0.36110467623985976,0.2992687896840036,0.23744330000139158,0.1786256134570232,0.12567639935236263,0.06612109968720503,0.040212118089804516,0.056338302827081854,0.07750920818933693,0.08217258177774234,0.07697750758278943,0.06743899744592508,0.04924768620500597,0.01953399557835378,0.008886539690059259,0.03888499449851768,0.07084005683208439,0.08882502762997158,0.08971828844779894,0.08162656140004199,0.06415266869698755,0.05287337764635902,0.042370104214921156,0.02956091995569765,0.031744835975183516,0.0480248418373721,0.052640355484780965,0.056463708256258904,0.0783427624296631,0.12073075443085024,0.17660305348867222,0.22989223842510897,0.2905789693180485,0.3432406327690023,0.40256310333472234,0.46432911046855585,0.5208009916121061,0.575808466581269,0.6374909954041139,0.6977764650606972,0.7500373347705134,0.8105420826572147,0.8671667444382574,0.9111987239097403,0.9056304051730306,0.8573274394825474,0.8039278010605613,0.7424345740468481,0.68140136574107,0.6289275687415716,0.5693282803028636,0.5077602167527981,0.45379360737554775,0.39620605830970623,0.33439774843036885,0.2742510102854805,0.22206128723907703,0.16130931512995783,0.10643509324691847,0.10065969783703865,0.0945211673256523,0.09680378875761919,0.10330312716774515,0.11145683631686643,0.09599910414204738,0.06074437490829965,0.04664337118543349,0.07870565751875613,0.10788219742199523,0.1144258959451272,0.1070110864804783,0.0942644444260039,0.07396190452750462,0.054224828725867535,0.04926860963912638,0.026708922145627145,0.0,0.012188593013542581,0.020966580877787244,0.015636222570176495,0.015773452979408242,0.03015625713981218,0.07091497851175887,0.12076423090276789,0.1735804981781115,0.2313796472806522,0.2931873688976272,0.3550232554534851,0.4168587934312167,0.47790921678741594,0.5304721718896341,0.5899671635765751,0.6517965898285705,0.713561894733969,0.7698231593835994,0.8250354810941531,0.8860084058873396,0.9326410079686993,0.9378483290018487,0.8899064216011543,0.8376221532455159,0.7777515693884505,0.7160365607581141,0.6637930727491703,0.6249805025809123,0.5676088292099681,0.5057938395892876,0.44398026958773995,0.38587747081556234,0.3323534731919162,0.2708569001368102,0.20983472820931004,0.15736588300724463,0.09786019239647814,0.05104900703176085,0.05695703848916622,0.06485719237032406,0.061659738417831456,0.057751255977926075,0.06124935669452558,0.040958597656404194,0.010720935712044799,0.011970221555789085,0.04021870167293118,HB
0.15611590895067695,0.1743736468161723,0.19032751125870084,0.2107657498321025,0.2458432891898179,0.2877049464078676,0.331867778458357,0.3767258035453982,0.42691963662412213,0.4750034517682371,0.523105774668192,0.5714931925993061,0.6202417149838384,0.6682706398622766,0.7180232551450185,0.7672195970908313,0.8151121704522692,0.8645297806299554,0.9128550586009219,0.9593732028525301,0.9901513698892099,0.9671021671197368,0.9203625794050492,0.8740368755446637,0.8273166614458214,0.7749952830559952,0.726212000555019,0.672130502828721,0.6240335672011197,0.5732725367398062,0.5235857512552742,0.4749593276149293,0.42362471509045396,0.37790501615529815,0.33357724312921677,0.29585523564260585,0.283296619152404,0.2850914661976802,0.298274899346312,0.31368409962969146,0.30050240330229316,0.2695374659901659,0.2652098478472673,0.2793723700790198,0.2848080201014067,0.29015494344338677,0.2834489610016575,0.26980339879115256,0.24420478362311426,0.20707086669331876,0.16724157842706666,0.12541006033638036,0.08451902421340085,0.04534385377603756,0.013504925764013631,0.022819287491939955,0.058702591284992334,0.08724434593660035,0.114964803635774,0.13707400410982173,0.1548534317348107,0.1745693884176187,0.20647476088777927,0.2494671869388012,0.29411767972228087,0.33718182205553715,0.38358869771478643,0.4338621220452179,0.4851648072676311,0.533400874436804,0.5816660884863283,0.6316936650007103,0.6826233332392007,0.7316192117897029,0.7799933118024525,0.8282149602270081,0.8762782387186046,0.9247711670636218,0.9722041233624514,1.0,0.9807203768437112,0.9336386214902954,0.8790364623866669,0.8310101660634133,0.781559675243551,0.730745722569373,0.6815800142317956,0.6289473554753928,0.5782476314615732,0.5274203178224648,0.4782647796301591,0.4262358896197105,0.3784584443543262,0.33191873434604946,0.2874334129874858,0.2507173093855406,0.22991616663487657,0.2401267045532729,0.25876194719892687,0.2590824474525426,0.26405287269841327,0.2639665223271914,0.25452831647510776,0.23032675759174692,0.1982475532048953,0.15854037624609507,0.12022767267139356,0.07882207596159363,0.035454842040333556,0.0,0.005258810829788629,0.036573317461395805,0.06880076744394459,0.10181902321697178,0.12614449369951752,0.1449297780729233,0.16289691740996992,0.19176681786141847,0.23041220760677494,0.27464374964811356,0.31850327480346197,0.362195032290233,0.40827175272767824,0.4554653678453029,0.5030942374950229,0.5512866120095283,0.600968739358196,0.6491260901057334,0.7012299100612003,0.7503592895680993,0.80561865203634,0.854576487530581,0.9045530806862376,0.9510835597116309,0.9806926950620491,0.9609515227173882,0.9159899514892205,0.8679758769216637,0.8195673989509404,0.7702274897535326,0.7213217150207192,0.6700434720570163,0.6218788663393853,0.5697079889654666,0.5206853233728537,0.46512456545255576,0.41149708258064277,0.365894258078896,0.31985055090442915,0.2799210407544077,0.2571481474986379,0.2629500257077406,0.2748362796735271,0.29413226865679865,0.30006293455306743,0.2769431430572049,0.27036357860812243,0.2829600247103847,0.28450793138680885,0.277828047123571,0.2493716194936897,0.2140761851980817,0.16725441311421663,0.12421481146192215,0.0844042897845041,0.04605941207549202,0.029608343527301573,0.05335360951538415,0.08876899586547782,0.11878581844622293,0.14328525710411166,0.16366467084835357,0.17855705322099524,0.20134506889817527,0.23820166044781899,0.28174405541977166,0.32646635233913335,0.371188059343299,0.4160150201354953,0.46414105237588354,0.5127338269352977,0.5668706817655407,0.6149544286060822,0.6657919245642407,0.7148394983770929,0.7627496940681882,0.8123050220352903,0.8606091395435786,0.9088271638482248,0.9565219256607014,0.9903743667362765,0.9785879112309983,0.9322311025601491,0.8838565391361599,0.8347560463197192,0.7795118408647448,0.7305341273980464,0.6776052653249072,0.6272490122038681,0.576134119061184,0.5272230604590722,0.47591636766246226,0.4282435413758796,0.3813990937237377,0.3379818736305167,0.2994261297409393,0.27071629760258475,0.26458185183332317,0.2753085790048069,0.29701779938755823,0.2974803044935981,0.2766534465556407,0.2760829928821791,0.2843045249228733,0.2814597670139307,0.2596675980757652,0.2272371980748551,0.18647563982237747,0.14621404085728962,0.10616207831921254,0.0685889179584458,0.03393057108882003,0.032268823708004435,0.06254330872641245,0.09272717591459911,0.12334600987782962,0.145662453919301,0.1601851020670324,0.17196201850039872,0.2005801115989334,0.24141686797338902,0.28464101744566905,0.33131977083604114,0.3819810437805975,0.4270414480369942,0.47364574973286033,0.5227017420084519,0.5706645025618458,0.6217906696954216,0.6709454915629163,0.7198904053138486,0.7666435902002964,0.8164196292578181,0.8640906937099664,0.9113675134128565,0.9556329569784263,0.9662952625988455,0.9270464850394662,0.8788001910564431,0.8336975196787404,0.7844085925989552,0.7363658303674732,0.6821043654630756,0.6337008801249335,0.5838436113257346,HB
0.5645844457150573,0.5646726854512116,0.5756934948611643,0.5715677771865875,0.556859517849341,0.5266599674524515,0.49341073256625867,0.43750940460552146,0.3974888733914823,0.35537591529593504,0.3088863210388122,0.26239548425249604,0.22111631487190708,0.2131900693562705,0.22912920052376018,0.2766623777060082,0.32654344462675455,0.37966406879379777,0.4232191752453729,0.45437471679728114,0.4811507107858142,0.48346042437739856,0.48346130721433545,0.48344909199639075,0.476947298196865,0.4574846475036707,0.47618844653277526,0.5325177938128332,0.5566906955478079,0.5155350416745352,0.4937959030099086,0.5073067160936744,0.5104901083737077,0.5024576727258547,0.4477568138261403,0.3702179533059211,0.29782585880295676,0.20702831893061235,0.13550527266568269,0.08195589559550198,0.09954753668039062,0.1705233296338764,0.24710033940534215,0.3295175505619752,0.42248639919091735,0.5153595679207723,0.5940870940746001,0.6745282323792154,0.7674451939456541,0.8597202729898945,0.9332012092334661,0.9999999999999996,0.9551352314071271,0.880485149494207,0.7880191784094817,0.6994254191123086,0.6346922711213137,0.5850212143714697,0.5649626179977827,0.5645842343315652,0.5630929603108634,0.5415485509032361,0.5373551998596979,0.5201790251556466,0.48227172051205214,0.436967554136253,0.38204451150743113,0.3354498017191996,0.2889555575603251,0.24127041108075842,0.18906780961209657,0.15055870423591555,0.13229494664356123,0.14700422141507596,0.19179627417120892,0.24648621400143123,0.3004018217963851,0.3501107760645037,0.38927421760844494,0.4216618351448722,0.45051911093996333,0.44970320001522834,0.4301228043837262,0.4276899759038142,0.40307699955905063,0.3722577424761213,0.35015124875251624,0.3773098016816907,0.4235768889697602,0.4681280623134696,0.48334570703926394,0.4887877714887865,0.5093745981603832,0.5020506408648928,0.4665952143828904,0.40482978707746264,0.32726370757829626,0.25003018953478096,0.16729766937395185,0.09299359509407301,0.05314614366619086,0.08463519037149636,0.1639469426424447,0.23616850506588039,0.32387106898425033,0.4168624186255827,0.506519200264798,0.5777252887918727,0.668825574715743,0.7618037149182686,0.847043947752216,0.8951825190289617,0.8303414938899878,0.7582805303012754,0.6805676374548866,0.610637517938819,0.558979300848645,0.5379918294400343,0.53754339954815,0.53754339954815,0.5371832983652554,0.5187166094019546,0.49405759491390944,0.45602789030745994,0.4175028422735889,0.38183505172938625,0.3249719499407209,0.2765908654880369,0.2266076283105929,0.18512356731762702,0.1436812262284124,0.13206960150546232,0.14600845575399513,0.1928896373003064,0.2502298123044251,0.2970635203653056,0.3435680372974894,0.387681066961298,0.38827384013871447,0.3960938561119556,0.40232699055340104,0.40166421517471873,0.38190771765880305,0.35894551561172827,0.3483950888073166,0.35946493007484426,0.41612961882237487,0.44112317948523794,0.4294814883983924,0.43004113984622316,0.44914882352655683,0.4549522486232962,0.4231369876922435,0.3468701375476493,0.27532324486980597,0.20156674226379367,0.1176523875096005,0.04260976630013147,0.0,0.028852206929060653,0.09797888389674858,0.189494599386149,0.2686411692409538,0.3486750430972605,0.4415741964852038,0.5345741866357074,0.6275741767862075,0.7205739415646035,0.8126160087998913,0.8805635284376323,0.870403692353086,0.8016793576703551,0.7260730553886812,0.6638512204693936,0.6063034123333959,0.5684894605391944,0.564589506929559,0.5645844457150573,0.5634260288485771,0.5426811749926252,0.533687285251649,0.5057491516238373,0.46375187518001626,0.4172627570337837,0.3707686496524638,0.32426426026815536,0.2795535255759929,0.2377008052231564,0.19891311757116226,0.17666501397806256,0.17892997536121102,0.22399572147776192,0.2704992985765924,0.3170145746065871,0.3686078378484816,0.4197079406911448,0.4293546846020049,0.4293792148805209,0.42937892267392863,0.4277883343342279,0.40351842487907996,0.3726977604987547,0.3495044570785608,0.36942393294833353,0.42963212430369824,0.47673410823353946,0.4834497401574729,0.48346130721433545,0.48346039329159174,0.4810158887922982,0.4411339922436919,0.363754355563755,0.28991603508157526,0.20414734852961525,0.13175978458280602,0.08042293184801608,0.0955595356740111,0.17871069771710202,0.2716928005660466,0.3646884177616223,0.4541264682775954,0.5254157208766039,0.6166521502024502,0.7096516398714487,0.8020370997021318,0.8762055556661195,0.9572716100793879,0.964214428192832,0.8848045704493992,0.8062365672990262,0.7293158518699614,0.6639632245875942,0.6048758078893024,0.5717180568098406,0.5645950572426579,0.5645844457150573,0.5645830592880379,0.5603919961558117,0.5248316448332724,0.4923577830658812,0.4569526370495258,0.40512713035536363,0.36241411345037333,0.3178519959145958,0.2703680288783237,0.21090521158677378,0.16277969616451182,0.14534513639101965,0.14552798202544492,0.18985364347318567,0.23635887654898768,0.28335447379914,0.3477391863768857,0.4024662860079391,0.42855892403528406,HB
0.12681215179719185,0.11246077082296457,0.0968297753420635,0.0769551257811254,0.04198887636719362,0.01452826622661818,0.025792001128429387,0.053850341404198865,0.08433125852822565,0.11960500611821656,0.14698438609970932,0.18014800586722624,0.20741627370976135,0.22676414039648085,0.23519477852581971,0.271045133083454,0.31875226722637606,0.3703991679202203,0.4304500718734787,0.4927389931576496,0.5549432884208176,0.610598580102176,0.6667455419457156,0.7289381015040703,0.7883661338391912,0.8411304201248679,0.9025652512787374,0.9561122536526363,1.0,0.9963157606762869,0.9523615610869651,0.8999309790475376,0.8452123121570514,0.7831994256049533,0.7271019221031394,0.6716006801656653,0.6214019356509177,0.5750993753729996,0.522780929357749,0.4612104616868393,0.39910780605236607,0.3445767314745285,0.2878445336942108,0.2494278766728315,0.2419323847091963,0.21912364356828107,0.1863458810641334,0.15339687045998485,0.12290911563586926,0.12205430131104267,0.15705505906860173,0.17307144650753914,0.17837661675218586,0.1589506144137065,0.13608562235553867,0.10396738417622187,0.06874914177753721,0.0785321354177726,0.10815500040883119,0.13438958897751174,0.16335608447417593,0.18968170068912205,0.2092508249768441,0.2291077658838665,0.24619035905512376,0.27787862939102803,0.32718320378825805,0.382859136556883,0.43523337239812365,0.4937284735185421,0.5459452867080952,0.6069003206320462,0.6670577939884517,0.7194722533458568,0.7801919675383173,0.8294806432069337,0.8494697688389605,0.8141509648640892,0.7595886681882709,0.7075274197861701,0.6553434254556847,0.5939344165241169,0.5316470269366347,0.47193276525059735,0.4192839119619367,0.35851045668716974,0.30605912954448256,0.25294677822866785,0.22834303447432625,0.22636091191784713,0.21135883873497407,0.16757633314390574,0.13627674379469434,0.10268452933761862,0.06955058114907997,0.07171690803357533,0.10520297142747426,0.12232689581546596,0.11304141928896883,0.09247190755065127,0.07213967901550156,0.04215149558954501,0.034284636425672366,0.050700648523601455,0.06346707132118867,0.07539932309804565,0.07940489104982174,0.09757648856504142,0.1227053750890379,0.1578803303347156,0.20438333310032997,0.2562244600146055,0.3086772522028225,0.3638157366008694,0.4198051980735489,0.4762840183506496,0.5188843835829342,0.5126220857801025,0.4596918844156188,0.40755698794247364,0.35608248958625976,0.30448873204394733,0.2499818298435761,0.20002861927195692,0.1514047877426985,0.12381869197023576,0.13798424413381483,0.13032754989016793,0.10758151880709743,0.08413342967685411,0.055195526831659514,0.06021198079411327,0.10590181317206682,0.13582614142434224,0.14654707856255067,0.14933045142749934,0.15138754020090417,0.1507434438200974,0.15004225294331652,0.16391985997899505,0.18574582371521364,0.20527179499523474,0.20176048904106114,0.1976215887207995,0.20055698283057222,0.21847862920784733,0.2391214947690128,0.2890747969752905,0.3368710012326317,0.39167159515630745,0.44530718249703405,0.507192069647493,0.5645897954351624,0.6131968400420846,0.6279581067736868,0.58683239338658,0.527328902430412,0.47567879950276426,0.42402241271605945,0.36721764900253406,0.3215189486154171,0.27227993360372027,0.23147203343193823,0.24257135221932202,0.2518512514372131,0.21842586511289808,0.1917493421620886,0.16511448349744873,0.1296046280885097,0.09563579124616428,0.10974210581640476,0.1550517458704248,0.1684501844992079,0.16300343333782674,0.16465022046563593,0.1371620475063393,0.11648782574854133,0.09190878530969915,0.10023817609072694,0.12714014251987837,0.15326882756803473,0.16582056188632555,0.17125143311232405,0.18778898949962208,0.1868610397205681,0.20746899226163507,0.24019663775077804,0.29112545359652175,0.34825614736966504,0.40371275183241284,0.4561534952569115,0.5095994173824265,0.5662345195674994,0.6209362454313605,0.6724875693276702,0.6753932307112245,0.6311257434876096,0.5776646265008463,0.5254971243614515,0.4777828701176854,0.4167192461058473,0.35677011657826796,0.3042662356219088,0.24474328253916156,0.21047539277587823,0.20188954754318766,0.20351382919436567,0.169055098141488,0.14804034801570998,0.11551019987432376,0.07636388493050639,0.09296845528707287,0.12392240022293155,0.1227159825693227,0.12156336153174863,0.10869505169678995,0.07417933726696546,0.033087285724947346,0.0,0.002761541821723279,0.03601667567673528,0.07581015559501258,0.11425527904204724,0.15532243283698088,0.18733942739856824,0.19919218919543047,0.2169812399672315,0.23921031545126503,0.27955626418392354,0.3225134219523378,0.3730436705136482,0.4316102327465714,0.48393874261054215,0.5449714030604689,0.6000630822424102,0.656798934250038,0.7182535311632186,0.7708417606606188,0.8306505785902387,0.8902121377399017,0.9306783577084445,0.9650961073233377,0.9495527734322136,0.9019561965689489,0.851785584079785,0.7934692929090512,0.7405762001631615,0.6789574326148511,0.6229589563530391,0.5671520607074347,0.5049435033648457,0.44267900316472364,0.3847800201169562,0.3307622738602807,0.2730652598420704,HB
0.05748876439135864,0.07425105656798148,0.07331318150198607,0.08308982713213875,0.1018231871909665,0.12120398478632555,0.13230105848950657,0.11799791812387572,0.123254029070061,0.1650763943713509,0.20891923172648497,0.25290651482992543,0.2937713261038868,0.3171272601892674,0.3026303515179032,0.27132011728353533,0.2382235926599281,0.20572159317968564,0.17857238680667353,0.1498524071246652,0.11415206398468736,0.08734896518894009,0.09093200712771599,0.10250333549991852,0.12912533918715874,0.1774986986559708,0.22980612331823136,0.2830417757253214,0.3403727471821305,0.39464694772522413,0.4515865234055043,0.5082926034521911,0.5628236558925999,0.6238561914929723,0.6822813422338612,0.7354160722495051,0.7959780112075567,0.8505802571381145,0.9072242703187696,0.9639298567468615,0.9714044504758672,0.9265597851841669,0.8661315128091547,0.8050538918325996,0.7501950185627468,0.6938045294799069,0.6326152375226306,0.5713760138692059,0.5101367902157803,0.4489116887447293,0.39055974805333915,0.33739798825594325,0.27662003728438234,0.21538096647731697,0.1541514177454273,0.09548650647246082,0.052248552057367004,0.06915757046665871,0.08661690502872954,0.07617263345332703,0.08968851099264219,0.09980804711010283,0.10453285453797756,0.11458990689408544,0.12745316440215548,0.1277664112593171,0.11998553446243321,0.15177756307935497,0.19752924076099077,0.24503893900325813,0.2932749944148745,0.32718580143360376,0.3358024672544426,0.3098638235147042,0.27648767528140206,0.23277581313612639,0.19533409885976094,0.15913214330091785,0.1299582484092907,0.10197488353634387,0.06950227701800471,0.07393135821106633,0.09116724683393684,0.11063646084667256,0.1546621175451912,0.20466581246347992,0.2556036446272276,0.31329191835818304,0.36609599950221194,0.42470027117103437,0.47725436182689296,0.5328300777924777,0.5876866541630703,0.6475185370851333,0.6999239991381832,0.7597971405782598,0.8184137252040211,0.866825619282195,0.8830347362478779,0.8413619350124761,0.780721829178386,0.7241775267449737,0.669469238646687,0.6083887314619354,0.5471495078085098,0.4859102841550851,0.4246710605016608,0.3634318368482352,0.30219261319481006,0.2409539969761343,0.1804752542736452,0.1278514297379958,0.070195012846199,0.05398096374080397,0.07414053870825743,0.05326733036501574,0.051371032872860045,0.05979138662629668,0.07644304539938562,0.09586837268584758,0.10959342858531218,0.12185635562680974,0.1316624491605165,0.13918899411375518,0.17831260658780423,0.22083962257079337,0.26154294668278366,0.2946723531643374,0.30567786642717576,0.2859614918829039,0.25044920850915475,0.21408457226841193,0.1754629072036269,0.1377705874829649,0.11514094738429259,0.08359067413943211,0.04973694189265432,0.026421332791873198,0.0418420372500663,0.0685772344249056,0.10712712313085282,0.15027497996668826,0.2044124876718718,0.2567687556945544,0.3088763996643238,0.3472871253566525,0.40516637108692044,0.4663944876061905,0.5276272313941124,0.5866601410705605,0.6393774088868047,0.6998804508291931,0.7570806516303088,0.8029250339333223,0.8498986599048852,0.9064605541031618,0.9579378555818223,0.9756386701555206,0.934827310568582,0.8779365415487861,0.824106928492079,0.7631691868497141,0.7019299631962885,0.6406913948171689,0.5802669442809998,0.527662505852468,0.46840871104168635,0.40758613616900763,0.3591820356677238,0.3074304188032777,0.2463730978432821,0.1892811367871725,0.1350773945242083,0.07406004921008957,0.014233125952036296,0.0,0.04709462509464912,0.09450821661034015,0.1101619120659636,0.10987749687058179,0.08475156153087693,0.08730176599050532,0.11359911126856503,0.12825424361336668,0.12861931470782362,0.12483374174874506,0.12410211912581093,0.11163602033645925,0.08408716066768873,0.052554288463322774,0.06106364763098626,0.07984092762355344,0.09607735116122584,0.11182312167624953,0.12840291086311728,0.14995604596404477,0.17802339958162605,0.20644458566312118,0.2400730990691431,0.2587677938014341,0.24714019782234664,0.21508383872852144,0.1800867809695399,0.15211049829503454,0.12644437046218693,0.11367126129235006,0.10663282674966368,0.0813064131235599,0.08570553502913669,0.1230259289534803,0.1722795201722973,0.23274234719395492,0.28776753812372635,0.3432060997356847,0.39583431528783763,0.45494445242077464,0.5129488729718792,0.566392401252952,0.6272281041272143,0.6866291875372104,0.7391938306906456,0.7992681937020512,0.8533777100274189,0.910412849314125,0.9646097317114843,1.0000000000000002,0.9777417500740306,0.9199588657706601,0.8587329923891358,0.7991749389212821,0.7466997780556104,0.6864509943015251,0.6252126940040854,0.5639734703506611,0.5027539279556559,0.44488405046276003,0.3913346330890499,0.33045681294823726,0.26921764661219805,0.20797842295877134,0.14673927095207895,0.0864614451304555,0.0674209311736762,0.11056087167800666,0.13940838915955478,0.1448053362732793,0.1296007117352953,0.09871594841372411,0.08370161906872697,0.09593989521515556,0.11195370866996934,0.1192202856822786,0.12346935802006676,0.12608828598426025,0.15381257178494234,HB
0.492193557056232,0.4929888986660925,0.47904422248323286,0.4698825555386764,0.45231188529444644,0.4308179544718399,0.4352123834199161,0.4680414919003798,0.4873761302231895,0.4907445633485893,0.48070763486223,0.44282063149228656,0.3976527990435027,0.3522129301025151,0.3060094220432309,0.2598840969351496,0.20983640715688645,0.1622255134459888,0.11724474581346711,0.06735730112550253,0.020287002378884256,0.0,0.02316424213967405,0.06116925116313321,0.11063948038893279,0.16079134126607153,0.21076133692579513,0.2559918347389528,0.3032945630016196,0.35341834102071534,0.4035708531795871,0.45372336533845903,0.503875877497331,0.5540283896562029,0.6041809018150747,0.6543334139739466,0.7044859261328184,0.7546384382916903,0.804790950450562,0.8549421104979932,0.9042181572478992,0.9368681478909203,0.9142162483085007,0.8799809928825121,0.8332247692885081,0.7831034630208952,0.7347131182092165,0.6903137108973986,0.640781818654982,0.5953672571245475,0.5493584130970895,0.5059846873729991,0.465523519637164,0.4328279429567229,0.4102156690802202,0.39337435884900074,0.3860757843840722,0.3922648527824949,0.4088515415139974,0.43165812510812096,0.4408182617699251,0.44464227152342806,0.45383822216303404,0.4553034258418497,0.44655881902462513,0.43406199350366526,0.41543733352673684,0.41669562027265983,0.44616322634476135,0.47366216084900337,0.48652858708806124,0.4934579497907564,0.47036965757308524,0.42690695371459186,0.38217563629197604,0.33525393584090357,0.2899452713806666,0.24083920601805986,0.19671004428446737,0.1476407819086769,0.09787523129063935,0.05393423266015285,0.025283401329943445,0.05253219351622407,0.10217296647815144,0.15018843727152997,0.19483974955684868,0.24466077724479451,0.2948131582732697,0.34496567043214144,0.3951181804055063,0.4451614354186807,0.49105894080091195,0.5376464890719802,0.5877451534484027,0.6378976656072753,0.6880501777661469,0.7382026899250186,0.7883426760048912,0.8364007326524233,0.8799407137165255,0.9181258626527423,0.9445859344399211,0.9139125508074176,0.8656429889979828,0.8155666232834974,0.7691878069402064,0.7230886150886472,0.6737537632358322,0.6296072164519483,0.5825284253602253,0.5387488234226904,0.4958819058209084,0.45888582453149696,0.4340183633955651,0.4255190001861565,0.42941219958383103,0.4401763163008342,0.45763353260632844,0.4785913081907426,0.47933245826127513,0.47812713717189703,0.4868427656397766,0.4888095603927495,0.4846983031284594,0.4720384804120733,0.45013372243799565,0.446059805050841,0.47117903509818804,0.4939046349099926,0.5077653247699977,0.5170998415660301,0.49196342225450096,0.44881083751950934,0.40377569774311606,0.35865258300771774,0.3235810974736403,0.280196034083524,0.23071228691173917,0.1863797411273348,0.13786896214569733,0.08793286711575699,0.04505792590291213,0.040520530852375725,0.0806234793111813,0.12794750518256615,0.17807238558885463,0.22821517423906845,0.27642804770721774,0.32095185990012454,0.3706995261921707,0.42085186860511603,0.47100438076398754,0.5211565563006039,0.5708340195710168,0.615218681485561,0.6636386797966282,0.7137838637802499,0.7639363759391214,0.814088888097993,0.8641786618380333,0.9100912744381816,0.9263469491213422,0.8882668555966847,0.8420932582071766,0.7921851834236734,0.7468017606776208,0.6996655604374139,0.6508430318324773,0.60670043018521,0.5600084687649326,0.516989675486521,0.4775592782155572,0.4446431893043309,0.4293863744023846,0.4207135457062475,0.4200986347132455,0.43171852986655235,0.4513829498004861,0.46424420010013223,0.4670528101687149,0.4770431666116127,0.47861950017256827,0.4685429009321357,0.4609976767791423,0.4405960155449459,0.4283147332979532,0.44784473634534006,0.47747149438988445,0.4948684302252352,0.5025035081833639,0.4887952583124392,0.44791189833182987,0.40168681160934094,0.35786678556143914,0.3225513040851705,0.2750817339027244,0.22493774807439226,0.1747878765052715,0.12576773287411913,0.08166231996518203,0.0346807271412134,0.017285126474021473,0.051486727984817016,0.10100533729251437,0.14601568444448854,0.19358959830159828,0.24372146049344467,0.2938739726523162,0.344026457856608,0.39400178146930964,0.43927772570812473,0.48653114749907445,0.5366534556685784,0.5868059678274501,0.6369584799863216,0.6871057569056279,0.735782152351632,0.7800173765477515,0.829586027040584,0.8797379630025842,0.9298904109232459,0.979351235938838,1.0,0.9621562133064209,0.9122352286388905,0.8629969364189202,0.8190672502239821,0.7780165648988148,0.7440734337021896,0.7039538729330103,0.6590013601553685,0.6098020423856879,0.5656488170000332,0.517302793674176,0.47547118688713474,0.4451393607994515,0.4307314692041534,0.4172923844515878,0.41132079501932683,0.40884131229793963,0.4271420067550179,0.4515664019963689,0.4680553292551034,0.46834879695408904,0.47524002373302754,0.48354971240572653,0.4834980518295048,0.4732254289930701,0.46343699380541714,0.4450796818254349,0.43528292879925135,0.45398343195475543,0.4882012537534449,0.5036932064478322,HB
