0,1,2,3,4,5,6,7,8,9,10,11,12,13,14,15,16,17,18,19,20,21,22,23,24,25,26,27,28,29,30,31,32,33,34,35,36,37,38,39,40,41,42,43,44,45,46,47,48,49,50,51,52,53,54,55,56,57,58,59,60,61,62,63,64,65,66,67,68,69,70,71,72,73,74,75,76,77,78,79,80,81,82,83,84,85,86,87,88,89,90,91,92,93,94,95,96,97,98,99,100,101,102,103,104,105,106,107,108,109,110,111,112,113,114,115,116,117,118,119,120,121,122,123,124,125,126,127,128,129,130,131,132,133,134,135,136,137,138,139,140,141,142,143,144,145,146,147,148,149,150,151,152,153,154,155,156,157,158,159,160,161,162,163,164,165,166,167,168,169,170,171,172,173,174,175,176,177,178,179,180,181,182,183,184,185,186,187,188,189,190,191,192,193,194,195,196,197,198,199,200,201,202,203,204,205,206,207,208,209,210,211,212,213,214,215,216,217,218,219,220,221,222,223,224,225,226,227,228,229,230,231,232,233,234,235,236,237,238,239,240,241,242,243,244,245,246,247,248,249,250,251,252,253,254,Target
1.0,0.9266899058183866,0.8707352441977787,0.8652858551193547,0.8969282453402325,0.6602233978597778,0.6729126576407432,0.978509370861725,0.9317486178797967,0.866273618864029,0.7856332500031926,0.8070571596001432,0.7018427541418155,0.4685612561844279,0.7000754418988033,0.9246263961024925,0.8517708138413518,0.833734076626659,0.8066305022345703,0.7946872089407331,0.50722589058195,0.14327944876917476,0.18025482996806708,0.5573817117049555,0.7674358681005791,0.7241506199171759,0.798307805858385,0.8510681406282516,0.8400545104832762,0.4905530289217934,0.10521003275176144,0.1701912617525212,0.5588293269882272,0.8419541670250945,0.8246227136528295,0.8195303575956403,0.881876969769243,0.9117709408511507,0.739717207114424,0.32485778492841866,0.1291830612276994,0.44788011472916445,0.8045737793447154,0.8609335976407133,0.823894820584395,0.8611609468505472,0.8611051207560161,0.7255649646874056,0.3196562002030041,0.08964567716437277,0.38372673655743894,0.7470340571840881,0.8143394531383634,0.7540489788378051,0.813083997576624,0.8181716397648489,0.7144009107534912,0.31510258697206983,0.03122398140587357,0.28054505895790227,0.670179712206243,0.815741185843047,0.7454886304224013,0.8052480258319117,0.8188325406378532,0.7466928095250149,0.3682875848727868,0.03161973784988592,0.1999471370479886,0.5836792947394764,0.7917183689002951,0.7494281566476784,0.807697517137028,0.8441920643125238,0.7362170127214351,0.33935008215664997,0.11332018852593373,0.4085225998603321,0.7519376731239,0.8248488892920924,0.7660662240190437,0.8488115464754917,0.8759131166190943,0.7992324409040872,0.41022493625210854,0.10097065915363879,0.31885166582199065,0.6966671344158346,0.8069438006914622,0.7503333656973965,0.8226938585355001,0.8331137625227387,0.731798016740608,0.3384635754093599,0.043623664377444804,0.2796610546857389,0.6627949217989859,0.7883008409499848,0.7430823753247562,0.8315870158154384,0.8516852310525633,0.7736652127589108,0.3964766985789685,0.042019003363028995,0.18252116698979715,0.5815023843503744,0.806492026822019,0.770472635103274,0.835676298698574,0.8386165430804917,0.8229452432801179,0.49671220221918233,0.13507122230869306,0.22712425462680474,0.615590334841311,0.8132279093430641,0.7470728128323805,0.8186589615450179,0.8553146656305863,0.8479526068291512,0.5238632573880928,0.11272353774835397,0.0686082625423875,0.4495329498280012,0.7855995268401612,0.8112006378710463,0.7985871310854438,0.8412275230701092,0.85230494071265,0.6402359631707939,0.22523835166073292,0.08807383878688624,0.43406923380778795,0.759984651440279,0.7748712793827055,0.7799533924385416,0.8298830801549726,0.8252459014854492,0.529908283808932,0.1346847787317197,0.14471042688450864,0.5240462815396203,0.7930675456192364,0.7588029343808145,0.7992282573481657,0.8498304984461968,0.8766927878770752,0.6468642543604421,0.22224462333359707,0.0,0.30444745641761173,0.6929950124579276,0.8226150093901947,0.7624888204346076,0.8354419573217589,0.8518644009280811,0.8796116518908803,0.8521965896127481,0.8267901642374151,0.8656781677216345,0.654977350369659,0.691101761121234,0.9772585122027391,0.9212056027177202,0.8832921030791501,0.7983492456801455,0.8398854779836324,0.7808884140880061,0.5425979498400684,0.7224923172256288,0.9586839678528236,0.8834875687481587,0.8438289590350758,0.8028607591011365,0.8464144454692437,0.6408712474551099,0.5577493861970368,0.8830019100376707,0.9304595206528219,0.8812460401769102,0.8398534569363909,0.8591097775465997,0.8200452789720394,0.5895683579362543,0.760793117743217,0.9985559810018345,0.9115522320198679,0.8697243649439588,0.7943126616721816,0.8620527955420563,0.7384342936327672,0.634865903089987,0.9222091427307677,0.9320459040287392,0.8827940332579967,0.8344263669366043,0.8341305227685551,0.7966125460595779,0.5151968335807244,0.5836089547172261,0.9300349431594284,0.928310543376931,0.8804562322411393,0.8080849041762264,0.8221748061384608,0.7785002040882774,0.5586818921724932,0.7538636931022671,0.9485212325771726,0.8759098924373934,0.8429954848708181,0.8025802150452084,0.8556559193418858,0.6420834119934442,0.5458590987469067,0.879306001690177,0.9879178897193774,0.9019432814651298,0.8448475974421461,0.8448214275485824,0.8577038163743462,0.613087229499466,0.6331816730631259,0.9483611710452284,0.9143025710861408,0.8572830066734745,0.7975521730053281,0.8304596310056858,0.6910225521018862,0.4076081360442769,0.6006119033073347,0.9126347075628782,0.8756508423059035,0.8506086449248103,0.7928049645946411,0.8545764494561348,0.7331404940934796,0.4365838854495254,0.5757194614446872,0.9117623940169648,0.8988648161079742,0.8564412886130608,0.8038199751586947,0.8583085655304785,0.8080194359765305,0.5556062703347608,0.7299103247169236,0.9775100384536684,0.9009025092271405,0.903704665625499,0.8630770580705462,0.9281343732352831,0.7740082971822471,0.6226474754234668,0.9143539674995314,HB
0.9106072043154425,0.39723931558234593,0.19550131730232279,0.18857019299117228,0.21430725511502935,0.2680017319068857,0.33188804157102014,0.401153220948288,0.8056102397269278,0.7179838183956786,0.33016808094323613,0.21585049926397692,0.24119264844093236,0.22017906430590228,0.1862990686733057,0.2612078898590271,0.3754785201305264,0.7744555176916861,0.9052972808090725,0.42587314947251587,0.25542606617304786,0.26148108505833045,0.30326368899717693,0.25022840795156887,0.2365639498076506,0.3475291499375084,0.518260037926149,0.9647914538049123,0.727659832858869,0.30723651231583204,0.19376483857810634,0.20479096885269632,0.19317290528860642,0.17693582302525757,0.2978079084727776,0.37855650797765694,0.7168186106091436,0.8647659366743903,0.4306363190109286,0.23104905974870737,0.21860879357036556,0.23693176457820275,0.18159532575210813,0.2519798059201892,0.3169158958748386,0.5496310755032576,1.0,0.7180271851616196,0.2777467515835985,0.1618915543338777,0.21309830238914707,0.23960191368044725,0.24101617033746292,0.34238390130014995,0.4092768249018479,0.7916906406393709,0.9301835050557701,0.45443110541781095,0.24317992020046608,0.21824159462997406,0.22205803200039131,0.2011248274851667,0.25242441660492876,0.26757765828152813,0.16506279746415364,0.10937331966500441,0.07033961714535275,0.07681028036326776,0.053723153533211665,0.0805639500246853,0.20825109449339907,0.4487060684477897,0.2588408636100126,0.1985224290455987,0.09595779324457254,0.09428945617224249,0.09030478631837546,0.012712949807470064,0.061418927513229526,0.2887311385339979,0.5750520796873047,0.2547612906180281,0.1540597307165541,0.04581632676319103,0.06882183970945022,0.09334921186380685,0.03999193995225969,0.11175530621994945,0.178669014300735,0.40945842669293686,0.23766947004859018,0.13980721227433301,0.04934048019252435,0.04426659162356783,0.06840755822875044,0.0687033836241544,0.13549150315905356,0.4068263702267294,0.284961395248986,0.18849375403359536,0.12128472453685202,0.10590769432533609,0.12523602777946774,0.09567761631299199,0.09075367590403172,0.23772497056422903,0.5180053333037353,0.2529429918206225,0.13790611607778613,0.04639055752262333,0.07212769329343738,0.062200452949108254,0.041634199484475776,0.05380749301494836,0.17712565361129684,0.4206416523849219,0.22074566788847072,0.17068274946330142,0.09599190425792825,0.08074742625068021,0.0758591272123601,0.030709216819131413,0.1034512076747296,0.3725057517647663,0.4172408280708977,0.18657809239659695,0.12165815863012419,0.07481101294158377,0.10544130146332753,0.06400746133813895,0.11721080299603903,0.26944801426419307,0.4290495424502061,0.20319121139850616,0.12441012059084011,0.025338993147173028,0.0396969594913088,0.04031879041449926,0.0,0.07328357883474945,0.17136807206439508,0.46993934830384676,0.3041684295983771,0.19947688469892633,0.1346829696924594,0.11155887108020934,0.07561417291439065,0.03763210217269286,0.06927437449774398,0.3669859408197089,0.44901043406993635,0.18871474791323273,0.11518193390505838,0.04589467104877043,0.09316356099369294,0.0626001312962603,0.018473696656373217,0.12978009072156738,0.38999291942301406,0.2942408106483816,0.1916221946688501,0.1341017946053671,0.08358488965126609,0.10127851602438875,0.06861472211761388,0.08839329225929315,0.21561249201341948,0.5299474895299547,0.29568185266315083,0.18876136412593603,0.09457254041887042,0.09607275478944466,0.11147404821168605,0.059312231989490094,0.053294414569129867,0.048092795700446,0.35454470566098273,0.44502347186673274,0.16243350092427322,0.10786243348856006,0.03479924694507286,0.09629015762896698,0.09491131818818355,0.0483102905865036,0.17940363379942692,0.4109485495094063,0.2384874009018878,0.14577363128031662,0.20294407108222412,0.301021562097858,0.40944959346825405,0.8282556877490159,0.7576821391987347,0.3112637263032303,0.21106946730414,0.24818702991305663,0.24056038931086565,0.19500618411188908,0.25732223410112764,0.4032085747113001,0.8642464178062359,0.7727088742477108,0.33013288656734785,0.21501099464974072,0.2493846571018441,0.2557686101526877,0.21671600450519612,0.30135559340317153,0.436817350346252,0.8817635790816483,0.8059322472812442,0.3523760022138416,0.2313249016151202,0.2307006200822581,0.22983605729158052,0.2382422576534724,0.30796322027152767,0.4212276529359502,0.7966772262123429,0.6324768186318117,0.2617245301625579,0.16384543415183783,0.21347089800540164,0.19843071205187846,0.23511623931540537,0.3114622658193533,0.5864705616547723,0.9920921305022232,0.6443222064384644,0.27033202613849916,0.17241149641831788,0.23866880948762814,0.26249895558972014,0.25764696563040745,0.3361087348364413,0.4701294151903772,0.8966145878996952,0.7784825774032318,0.3366766732775437,0.16165938524176537,0.2049409587700075,0.19086475948190618,0.19047035939131796,0.2805094223531177,0.4397603405970312,0.8777597590264206,0.7550362896438911,0.34170385710673035,0.22219210560943958,0.2381534239218448,0.21905425433879744,0.22019480547651327,0.2949150430434493,0.4251669607775108,0.8936288945556692,HB
0.9934767043558972,0.8934748996019888,0.8450954396774246,0.8609737584076127,0.7419988651486302,0.4780362083070263,0.7896712554875913,0.9591836549370376,0.8672375021323071,0.8323031154207363,0.8414594282367589,0.7751950403583487,0.4030262879485361,0.5467844967166045,0.9329395771168316,0.8929799734599451,0.8555563610251389,0.802415835062094,0.8626343048925378,0.5731732164769712,0.3573952902377604,0.7398891645076899,0.9630256649368605,0.8553791686995074,0.822313142809842,0.7977043310792977,0.7535252742929328,0.4186575462031278,0.6058052767441024,0.9117210609090891,0.8227574092814631,0.7989571892112566,0.7748648559860594,0.7912019640936896,0.4697572855151446,0.6020415314368703,0.9305989482752348,0.8622568514445317,0.850370433314465,0.838265831296221,0.8475746256568097,0.4783550448595576,0.4314977450038544,0.8558407274871946,0.936272777243248,0.859598728850743,0.8246838516910697,0.8953982128660307,0.6881379222884549,0.4658817932452787,0.828637488297358,1.0,0.908251376764033,0.8931259459335577,0.8702754425121899,0.7170426029756907,0.5347976130386674,0.875305237214133,0.9260641688076439,0.8423577832583382,0.5703412147271161,0.16779835331621507,0.12728614571925312,0.5720580654396763,0.813384447253239,0.8493186477867269,0.8611986937003449,0.8848453284876485,0.5761424211663226,0.13056212047815985,0.22179698385729507,0.6699883202174635,0.8261305010197193,0.78714099544988,0.8184636079421963,0.8228162675251309,0.5015382534992114,0.08391414214601822,0.24297247965443736,0.6934011199556493,0.8125430076052416,0.8004138244748238,0.8079761779515431,0.8170213204656813,0.4740046151430942,0.0445731841301652,0.18362819448461332,0.6385283936331998,0.7465445482615289,0.7394760467880144,0.770016632726302,0.7997643459751744,0.5099105828955877,0.059769493568859744,0.13153332026311615,0.5920199656178378,0.760814344645695,0.7593983920367369,0.8084071042303198,0.8249156634699986,0.5697553214883972,0.11776880458681771,0.04502629716345985,0.48149855969204514,0.7933635990647836,0.7553943419068285,0.8196791029589088,0.839130747132742,0.7009391873454269,0.23337266846404459,0.05640904738904651,0.46368391038042445,0.7951029101286815,0.7650076035036553,0.8269035533405262,0.8375657470280813,0.6813571805310705,0.21171721051589276,0.05253649125127979,0.4333128375994658,0.795798321627067,0.7777094988812163,0.8440529403066996,0.8669454597728654,0.8166489540151722,0.3752636887816998,0.03265824955034047,0.32039476341593365,0.7416560299717534,0.7640459603117915,0.7929190798713561,0.7961108207347245,0.7631886190746227,0.3462997277668727,0.0,0.28152965277824404,0.7148477910246473,0.7504487237745447,0.7747574421682042,0.8051869511570455,0.803142244807491,0.4078980197776769,0.03754452538472397,0.28694096058752727,0.7184479957870111,0.7581185306111538,0.7899243258021125,0.8136857085455618,0.8227908215998556,0.43704642268284866,0.05211790813267558,0.2826487983302688,0.7266037519274267,0.7888607097575329,0.8157108592064051,0.8436591754340026,0.8161450714488077,0.42196718288236623,0.048774518344934625,0.29543011232074523,0.7278441258733912,0.7620364328132829,0.7861566364099457,0.8090878535350345,0.8267406918136266,0.4643515564791504,0.03974689330685932,0.19443035477775739,0.65674942615331,0.781033978927872,0.7706941024552989,0.8086163821763497,0.8322279905117804,0.5095382755489672,0.07582150516518793,0.15522881523267884,0.6040743338676902,0.7874014821334769,0.7681060352965818,0.8047870435588014,0.8150773166386152,0.4763457945748216,0.05223559208144413,0.2025578149021423,0.6602689592392939,0.7801056975278648,0.7913888636391166,0.8155298962146798,0.8136570963938679,0.4746745024293816,0.0565196758069596,0.18911389406667645,0.644922319188237,0.7663949810854702,0.7988126239323186,0.789496670375246,0.46967589875551663,0.6743797648707008,0.957215285005768,0.8658552911676436,0.8467479272068403,0.8193563623416911,0.7949073123476955,0.5218036719197288,0.7738699060515049,0.9383698158345657,0.8465792133735552,0.8020019671287109,0.8491873703950357,0.6896238836889543,0.39905630852820684,0.7112123069092244,0.9570666219711583,0.8564067069105734,0.8191297992891955,0.8288022547377616,0.7733909200779889,0.4380685635813557,0.6301395041373925,0.952451009466317,0.8673191953503814,0.8379177373436792,0.802428599007327,0.8475011578860434,0.5872525038068699,0.7816096968094777,0.9658489616908397,0.8897765330433436,0.8431281938332449,0.8578582779555664,0.7729949393083853,0.45662605302441583,0.6985081762819991,0.9695420146932199,0.8625762142168154,0.8287712698753122,0.8030943019165502,0.8189157194522694,0.48195911272102443,0.4337701056720735,0.8447198262834796,0.9218790813995319,0.836551966760114,0.7818079092827668,0.8368600383520532,0.6740182340003291,0.47937491897461015,0.8140990105881931,0.9399699827319465,0.8371001586494029,0.8159206724028325,0.8349897122713859,0.7783028374553453,0.5692665715070906,0.8866428120991943,HB
0.860821931775984,0.5359441778787746,0.7148761730263615,0.6654840455965383,0.7986381840342025,0.7341276777847936,0.48282418110251646,0.6193053922295846,0.7427055618337244,0.7974664733936923,0.6164253034422966,0.6633095422251083,0.5591236608851604,0.8384997015318918,0.8108021776695722,0.6342715970872765,0.7704492872359214,0.9230947111439027,0.857087440614178,0.5087457192645619,0.6873598446174167,0.6552460800687641,0.6433004717968451,0.887957784370478,0.7538450626386153,0.6063546847902854,0.7036714958038921,0.8494474591183092,0.7114561279522347,0.5823670940175747,0.7486269434718844,0.7182775566812909,0.8725000262808438,0.7040063749807377,0.6067162714105843,0.5192859404146906,0.6848578162223733,0.7803700446203328,0.5128684493776055,0.6577895601052361,0.8388784872592367,0.8201541104701358,0.6027745829956288,0.7220009723150227,0.6774683809764133,0.838489999179143,0.7531492748211237,0.4937143700954367,0.7217841020237286,0.6760451262723892,0.8374906931727208,0.6576269440469469,0.7365811383376037,0.7818029325275759,0.8844489403904889,0.8580460165360906,0.5195302226394469,0.7265949312538229,0.6921553311808806,0.6427161001779913,0.9114810711030366,0.7671334769848803,0.6408866200633554,0.748222887517942,0.8791997718721278,0.6475651274511574,0.5895738855586536,0.7168626805022509,0.6861865109132177,0.6775607658115046,0.8823837215320678,0.5670855455220449,0.6161422919984467,0.7302068408429596,0.8424616660146489,0.7970966656803311,0.564447326350141,0.6815372430652351,0.5630490443041358,0.789441707811247,0.6762814851649805,0.6607219404641267,0.680534355761452,0.7723730788976155,0.7082987479216989,0.34456269004694606,0.6203505501858153,0.6759249863373054,0.7163580530031588,0.6781111563213056,0.42781126024780747,0.6345463801084357,0.8809251510757212,0.7908998809427281,0.8502797366093375,0.6298984295874623,0.6734447565879451,0.3517291612161153,0.13365785435165156,0.49797928831662563,0.5198557896814697,0.518511490449654,0.45474688921212447,0.0,0.2926689797750113,0.6384667314040513,0.5114412028146531,0.5121388391105937,0.2974227452130096,0.6025721813128948,0.4817138342360683,0.4532893083979954,0.33646508754674276,0.22235145277052792,0.6718622361615862,0.6322048885596061,0.5740721449590254,0.2369221997500457,0.20841955944420576,0.6840321798010169,0.5406845729368213,0.5183444408068443,0.5770747815835584,0.38368528033820715,0.2645080615306932,0.6717694188167913,0.6353974239177038,0.5379340140659945,0.29667781940949434,0.6203332652887079,0.6626562828515086,0.45990363282993973,0.5931271719121476,0.44834035136980566,0.24288139378200846,0.7065901029015489,0.7086806523998472,0.6191875837642815,0.5383322808928286,0.40879121630897464,0.6685449201258953,0.5138406335602235,0.5336948062203479,0.1535526868632835,0.2415611872223069,0.7140910701995189,0.5817142894505434,0.5622894406992209,0.479819029189378,0.31776544918338434,0.6691449223971642,0.6433849925613826,0.48283527999646836,0.10221416657747362,0.3126385222806758,0.573619523739497,0.3264230200961773,0.4185625234613157,0.34743627629698803,0.6558815153869624,0.6229417543894957,0.5829545589311964,0.4515872437968116,0.22408109391186182,0.6222900129040045,0.6312346649539382,0.5069646855273064,0.20803698231499146,0.4429254980152155,0.6428426510114162,0.4341156955866814,0.5435064278138704,0.4317415832209277,0.14452650413393187,0.6087931550324894,0.7529101907134663,0.6208311992779167,0.4329581508406126,0.3564135444851164,0.7124298633677393,0.4805614862835639,0.43474566178392493,0.45588818495331074,0.32458693768471303,0.6413419161045484,0.5083323958758719,0.44176619567299813,0.0444085055929242,0.25608185218897406,0.6904874090170363,0.5431783742432863,0.5709001496667048,0.3784289827440168,0.2864884027109613,0.7791957812202339,0.7887474264378502,0.6907944521212688,0.6627430036820243,0.27680205945710723,0.3947095856952907,0.6807096912534547,0.5183189346480166,0.4943363247749981,0.17544753178004635,0.5132789207850399,0.6158739751271778,0.3817823415802568,0.4887794752338763,0.23183592490634108,0.5354915818731563,0.6286574914757344,0.48397133538155,0.5857795762941898,0.2579653778719493,0.44574895724636354,0.7209534145285481,0.563651335857541,0.3519543812264909,0.10663693163554155,0.5825218158404706,0.5435602101263273,0.40395624189420065,0.4615940908699807,0.23324419981702382,0.6168561222517619,0.8509152552046251,0.834692582187774,0.5515495354864024,0.6578382381627774,0.6017040741211499,0.8176403779392709,0.8017923027147482,0.5122767926080316,0.6702457790458363,0.8092253958031463,0.8304610515708424,0.5394873654337022,0.7226423071108883,0.6692554739282146,0.7920103858226337,0.7497365859929568,0.4950870848286817,0.6622117192580452,0.5650114946483518,0.8210447557316867,0.8135505386986939,0.5785569724073101,0.6896171198176662,0.7323577011800468,0.8425496521778371,0.5422142509845873,0.6896351632656117,0.8515124680628254,0.8529372161879056,1.0,HB
1.0000000000000004,0.9631815998659059,0.8446876979377356,0.9985272836227894,0.8709261626909388,0.9172561706525864,0.8763995437495047,0.8381719139092869,0.9729217415019407,0.8064234073334577,0.8910507216153896,0.8388327125721884,0.7969659826340876,0.8786528402058833,0.6792645231193517,0.8249789230926035,0.7606675407055628,0.6761379760140738,0.8915162853861394,0.8217809101633979,0.9020174795199503,0.832108883393857,0.8330307353665152,0.925620100605264,0.641721685101261,0.9198447511486592,0.8795976075561924,0.7077814232438406,0.8739282722771193,0.706399023111536,0.8782708730195212,0.8602906240536883,0.791443705201619,0.7535668667285043,0.8320975143992615,0.738552102090019,0.7956359244669886,0.6935373481796101,0.667431203622793,0.8405765074464351,0.7327397388573385,0.8423040975946678,0.7649108607270256,0.8026286794290236,0.7778300219823673,0.7856607608487476,0.8092052833655377,0.7199091151408243,0.8823157680495819,0.7556884709745821,0.8047637927998528,0.8833285309639427,0.8005323780884148,0.9180718706150057,0.9219819895262509,0.7781326955998202,0.9492124214064295,0.8592637106549237,0.8062198166223835,0.9350465046747343,0.6904955123666121,0.8600920405604637,0.8150690203030422,0.687638532532691,0.8840089700788174,0.6897543323838446,0.8553268696175063,0.7955229336593574,0.6607237603182003,0.8256910616812076,0.7351508902186081,0.8939325458833345,0.9683848959315151,0.862413086525005,0.9955794819359776,0.8118084889704313,0.943819170233823,0.859101181964598,0.7504752451423293,0.9063340835820699,0.6649356221451987,0.8149352308172415,0.7353986831515549,0.6488053630805362,0.8863412358409755,0.670102040583139,0.877901469704347,0.8436996375190144,0.6778834840922037,0.8073526368047759,0.7834666307960618,0.7233266586071649,0.821515913950964,0.7378963121422042,0.6529743539868758,0.8119899246604074,0.2525842029573089,0.009862314305595365,0.5791092791777492,0.5829636330761154,0.5614612730537765,0.6531060833686384,0.5355179784482682,0.019510884126380912,0.5166512217343087,0.709527690081694,0.5302591084532864,0.6917162904958705,0.6839024780145362,0.11477031478640587,0.2868087746460741,0.7370741509384833,0.5040287181092276,0.6076383435696759,0.6344796666348311,0.18119645337821622,0.36946675008799224,0.7695148116315664,0.6064959977300064,0.7329167369256528,0.717290213739509,0.2945921647515499,0.6651251837725729,0.812226754995768,0.7624488271476682,0.818234484960366,0.5859895907203048,0.2735780535569847,0.6844249900136603,0.5389285288781203,0.6458366696028324,0.6655574869632326,0.3618427065799512,0.2689253178289235,0.7474996450730904,0.5618253160359727,0.6808551726827905,0.6980830900663397,0.2271876841117373,0.22047908654324821,0.8099690214396094,0.6559884764630262,0.7462660260608835,0.7837564253520974,0.3483789299430877,0.35007878363634104,0.85688696654428,0.6595209618687417,0.7278725285617056,0.6925327707913391,0.19700808002267278,0.4177096482697693,0.7590559772604033,0.5431297801090746,0.6632571710722597,0.653370388174634,0.19839194117251724,0.454426064906607,0.6825537520103797,0.5926245796737799,0.7055496410723716,0.58790314290819,0.2309417143055028,0.65481100329592,0.5170653185460239,0.5620776525207578,0.6427921749033056,0.41794046397899276,0.08989529035032984,0.6500758875095443,0.6318231113022841,0.6479454108513849,0.7108697435933666,0.5755974662577419,0.0,0.4065108987843855,0.7272690896124518,0.5676854992195022,0.7511379732846724,0.7389088298794566,0.20485927404290738,0.4108941665612056,0.8066472486249237,0.6319959597278673,0.7430291122074948,0.6665716665441956,0.12798576455783772,0.4718896323479287,0.7052054159656604,0.5206694357679322,0.6701877803658514,0.6480490493890239,0.15621731543193285,0.47812469439257166,0.753056653992378,0.652249178173955,0.7498402917145346,0.678737004924383,0.23591708773427023,0.6547544370932532,0.7499641048510233,0.7237941690976077,0.7531087261743754,0.5478511026208639,0.24670094776056972,0.790552040653199,0.7503467235379326,0.8036057028501782,0.8407365531647613,0.6293535828352756,0.25317838140614723,0.8047210162704626,0.7037022781031141,0.5228487664724444,0.6693183436286487,0.6330614979406115,0.062164830950242944,0.3068711067251795,0.763954561595376,0.573407333741272,0.7594149772762608,0.7651875783032911,0.3451608922160472,0.3458130107442563,0.7670084114310396,0.4414998508289978,0.5322383029790871,0.631991292628995,0.40005451912743517,0.10362361508672535,0.6609339515457586,0.5949885524196885,0.6307801081825288,0.7075988835530986,0.785200408482086,0.7229296964946541,0.7555258323801497,0.8108238492514439,0.7169438857595538,0.7698242548480478,0.6600271419656454,0.6594614232956162,0.9426662128694305,0.7046841164526874,0.9230016488177202,0.8989042036262749,0.7272997981095672,0.889409074989822,0.7162081912444291,0.7768855561196961,0.8136319952998203,0.6956107231231661,0.7830306422340576,0.998183777824301,0.8871188865968422,HB
0.9906352059840876,0.7814593523119139,0.5553328297274357,0.34975964401967297,0.19962166078603938,0.25534945523459207,0.4056711064156401,0.6089261254793049,0.8124607185362297,0.8068668140179919,0.5976205338833641,0.4183359555459957,0.37524376895702005,0.36038373949592784,0.41259978621085625,0.3656758568793953,0.3978049271053149,0.44173169982983584,0.4731007884133632,0.45675705105988873,0.36875633143170505,0.4366552013966313,0.44629491732200244,0.4172613232369714,0.3391006026168477,0.2584844136824489,0.21665792809644602,0.29495522359697934,0.38142879908973293,0.44924545349776046,0.40380079972624927,0.40945872894712043,0.3562845075652401,0.2664491092080793,0.1718802327065716,0.16919891935275655,0.2698039522122012,0.3501568182955781,0.40504138827355274,0.40115506287891733,0.3325652372721559,0.3639093949890211,0.4449001251315786,0.40237201970721503,0.38537400097393726,0.2611241705858989,0.31163195813082223,0.35798267715875776,0.3131426328455694,0.34548695552494624,0.4158450994889399,0.6135564537350696,0.7412388657826569,0.5832836944033438,0.37591418465334614,0.2263349463697225,0.14528364029246243,0.2731461854214453,0.4699298662513339,0.6901561036738805,0.8946715096561261,0.8616091586487084,0.6494482485728689,0.43365288672411684,0.23366341347611908,0.061404603076410824,0.0,0.14640729862582536,0.2739339395145416,0.3078154077562395,0.30295965462525776,0.22711128403082448,0.23234084046712622,0.33011777303065504,0.3148092985632902,0.3393308938287185,0.3636823970953592,0.2909094437327818,0.3436618736114192,0.4011635116513371,0.36980829510330526,0.31026240530465776,0.17765826795623096,0.28141180290377166,0.35885657200175936,0.30782693144566,0.3340615121206445,0.3286228384528369,0.289804589416787,0.230335399619784,0.32730241010111105,0.3228897931396606,0.3318652928760487,0.30456303873670254,0.2520280869913678,0.35213788449674144,0.3460330003571458,0.35937015139357387,0.32158222423185834,0.301317131510789,0.37655732267059383,0.3536481609661851,0.3425636958883279,0.2466423355262285,0.2973414596794576,0.3471262813671646,0.32878151461256977,0.3289974095275744,0.2871295001304698,0.36072146320003917,0.33246700363414294,0.35036907811687734,0.3730300291167816,0.3271382546586168,0.3159413610219536,0.39749062620488607,0.36444595474703256,0.3562025778594111,0.23386023943391243,0.215449718758154,0.33894516557168275,0.321211951002197,0.3029943947335366,0.27481119434292156,0.25844011914691234,0.3390675912630994,0.3049915374129969,0.32683912170335716,0.3379399348456914,0.26287546441024057,0.28680472814978575,0.3509910707921404,0.34676243877093627,0.36740198155293236,0.3405327002351711,0.3068111276496599,0.3569978841651432,0.33360399223231874,0.3485696302216077,0.3450792185409771,0.26128353964768425,0.21205199100719352,0.32745679556710816,0.32266478326192005,0.3339367762814853,0.2728096754525057,0.23170599485790977,0.34747702716884354,0.3254073433709418,0.3365045611599967,0.34856049453987104,0.2668074795711842,0.3122925150388357,0.3705115446524002,0.35191520093578843,0.34256671595907195,0.2217284361704479,0.30761609461996586,0.38968773454844907,0.3422475113583119,0.36704861702686364,0.40558562630797634,0.4151758730805416,0.3353226297728378,0.3955813536783481,0.3919398680373073,0.41558588670094887,0.3459978266432211,0.351702508981925,0.3867913763019677,0.35518552766784506,0.38470251506654707,0.37797128650530565,0.31317396073708115,0.37602715440253,0.3544725212687414,0.3759303645637353,0.33553431714798343,0.3053786714212843,0.37768454245362937,0.38364829696941116,0.3713658063974902,0.39048460883796654,0.3779458613477814,0.36457222399534084,0.40197284953460555,0.3872538313349445,0.3879488348989094,0.3569897322706106,0.3328598464305864,0.37745265129914396,0.3621848122684168,0.3449526540534028,0.37881005949016566,0.30546477432949115,0.3230330228188194,0.3427468280057203,0.3665646652307286,0.3752907383102727,0.30466184964951826,0.3826003601754243,0.4004691776469951,0.4359357511934837,0.3940597754688475,0.3917471278943594,0.40936168695263764,0.3794524566116215,0.3752096245069758,0.3965630260096199,0.3529636583760487,0.3819402461472574,0.36260564846374066,0.3903146326092346,0.31624052659915947,0.34398028162911365,0.38259026185879685,0.4029192562771984,0.3951736151427514,0.35509759646112593,0.39768065031522193,0.3788489451458579,0.4039469204920374,0.3501381630627094,0.3501804482224049,0.3709030638103027,0.35822793393659036,0.3709334828227614,0.30008737880642467,0.3442043515185298,0.36356605651776563,0.36662753552709093,0.3565293382421175,0.40482210198277435,0.32571102114567774,0.31026955444343307,0.40133188903548866,0.42367294847214476,0.4175714635313855,0.3534956661051446,0.40191507890101685,0.3791411414032808,0.3527046782158584,0.36604931618651004,0.2994943861021978,0.303542238866534,0.34519858868880005,0.3380963197118124,0.2831192701730926,0.13540303565471434,0.04937364818919221,0.1824120106176934,0.3713485788230193,0.5834726301114904,0.8039062526094493,1.0,HB
0.977025520620707,0.9395957406519666,0.9074565709255604,0.9089922711249938,0.9546168996876294,0.7015014158534822,0.7780210009900623,0.9626915797266513,0.905851917615188,0.937594370836613,0.8964169381201958,1.0,0.848677941807936,0.5943813277549272,0.8593342678826219,0.9437690857983607,0.91062016406727,0.8847641324713489,0.9745721569552548,0.9913818223428643,0.6873190313860149,0.747659724463761,0.9727626743618525,0.8909924452918196,0.9312003417421479,0.8907095417858737,0.9593617104299101,0.7701366423757023,0.46196965683946645,0.7090151835280623,0.9449362712124372,0.9113638550373073,0.9319989768512296,0.8899707553167948,0.9790662485714445,0.8094608781175432,0.5466684719362647,0.8187303903662713,0.9499818242641072,0.9633283670639157,0.9373859059039844,0.9553096180779945,0.9932992635896711,0.7561216262467314,0.8639686139528611,0.96801461499105,0.9366416592600149,0.9174337317935797,0.9338209874975743,0.9229514013056659,0.6430027331175858,0.7331599114803622,0.9362470647947871,0.9033567544078813,0.9479826233469355,0.9271657413548093,0.9978507457846866,0.8066903087171671,0.5225672039776155,0.7836739554495067,0.9424884155063797,0.9181069696390138,0.928816715637417,0.8994282634503779,0.9496892196768953,0.7032445460033976,0.5959302381698224,0.9140559168167823,0.9188954930808042,0.939611967668394,0.9002283654605905,0.9350967510905175,0.8920359360798198,0.5429825361197924,0.5508719073088428,0.8764853972407227,0.8870822252879103,0.943133383711106,0.9235339640509619,0.998496478271166,0.879410532979874,0.5687682914862731,0.7661314217527244,0.9664403710028564,0.9212236214312071,0.9276538153243006,0.899011456843452,0.9688564091146552,0.7732361433614041,0.6108911509793156,0.9011911022937102,0.9112869163706012,0.935424523135377,0.884630930103131,0.8618273448808365,0.6818028207056315,0.734259723274125,0.8659639628631506,0.8138807682516183,0.7903959112527312,0.41420872697011046,0.044948586912352595,0.2488075456292873,0.6979793070745071,0.8796866643882417,0.8157375229568513,0.862582329574171,0.8344695418583572,0.7914617929502883,0.39229407523682247,0.021036214479520976,0.22354266737183226,0.6812859703196246,0.9223126793091037,0.8672444010380937,0.874729511639869,0.8173453014029977,0.8099430107991292,0.547054536604336,0.14213555963248226,0.2387426842527609,0.6757199071756086,0.8648016691892326,0.8122272056319768,0.8688251644163645,0.834732057499693,0.7732823110644591,0.36919595568116437,0.02640896995796005,0.2707679999366157,0.7121773717252404,0.8684574585055638,0.8190827579110536,0.8715752289104375,0.8395693805022917,0.8180672682409051,0.4331086111107745,0.06112110527721315,0.2573288626638558,0.7067918590806728,0.9068175357209611,0.8426928825532316,0.8838755756425933,0.8199481473004901,0.7953333922999095,0.4558422266708191,0.023659051705832157,0.07415539715131558,0.5254070013844574,0.8579819817105061,0.838528002957075,0.8464180187196118,0.8596888838272985,0.865565210163163,0.6954383607399031,0.25462098584291604,0.15499062334026925,0.5675003725969852,0.8917199081335059,0.8552746686856532,0.8808174114808616,0.8794294849540756,0.8704859778604797,0.651235820728252,0.21463623169184687,0.18464649014477208,0.6122119579045142,0.8878430856875523,0.8212851669919667,0.8423184798848993,0.8343822758955111,0.8237999753234044,0.595322788150551,0.14477818634697448,0.05855863279993634,0.477760237799848,0.8436343578606078,0.8500863659268947,0.8332322717432825,0.8378000236183771,0.8199030742410722,0.694875539778665,0.24716375733597573,0.0,0.3431846995319163,0.7916267662219796,0.9580119738563042,0.8257508081859872,0.8327292893012883,0.8195735807066313,0.8482347375843375,0.5333500160313267,0.15546942620146864,0.329103141525801,0.7591409395381581,0.8886075249113485,0.8162617927949669,0.8758751437104484,0.821397361041458,0.8034523941326037,0.433174186482709,0.09036007773282329,0.32815351033857065,0.7594054382864803,0.8785276919889999,0.8085832243623852,0.8717673914939357,0.844630800927678,0.8274588542671792,0.448903340640159,0.058148851295080295,0.2212643733170364,0.6747807112637039,0.8999933437598924,0.8155024930517092,0.8314230951959574,0.8145434885886484,0.8176674326962645,0.5934481023951923,0.14256971390612638,0.040240027219251684,0.4563498374378012,0.8312498587047414,0.8517245675054266,0.8436112337594575,0.8547718538518398,0.8571456012836862,0.7152028189594855,0.2770391654993539,0.14191499918821648,0.5398386806772209,0.874326743603068,0.8433381713086232,0.8389408698067704,0.9242859117275364,0.9124517366060201,0.9151916369584749,0.9685980947294159,0.7583010623345678,0.8757029694186651,0.9507570269304673,0.9320110304826956,0.9114820887979656,0.9478110536418995,0.9453788000982162,0.6234603397888361,0.4742073986256983,0.824484312536083,0.8980167817843463,0.8992249199057938,0.891955537459314,0.9123406511603642,0.9756485227480456,0.766340072517683,0.8622214427546986,HB
0.887573334677505,0.7912378256194224,0.7911558431646162,0.7175514895164445,0.6899371180297922,0.7499223860487922,0.7549255143715343,0.4394826016260991,0.5939143605959809,0.5074980508810842,0.6187842013719282,0.7451174797690503,0.8535883203114816,0.8462454729915128,0.6768908990349569,0.8172572105111389,0.6896726566532596,0.7448781924984957,0.7206853938725439,0.8440121408547689,0.6654401120369062,0.6175024509474509,0.6745361111999135,0.6637854610314169,0.6864321495541756,0.8133162544203936,0.90692373933899,0.6491344102747663,0.7635618750075932,0.6587657830941542,0.702268930049776,0.7332593871282738,0.8564251426009601,0.7118024011841371,0.6915562248146752,0.7232157476405114,0.6651157869050124,0.6676583128808788,0.7858113068648414,0.7587897578362663,0.6430797237982508,0.7549874910964518,0.6889781349866664,0.7141498164204099,0.7390432986588875,0.8215286861023747,0.5554270229488343,0.6171627951149485,0.47342471429022037,0.5879403218998216,0.8306411303375136,0.9338631935712853,0.9612170814417675,0.7325070330468124,0.8891660203378429,0.7722944664764815,0.7995080122127369,0.7851362309857914,0.9073079305671232,0.7978356488446319,0.7364165077509908,0.7208228872193634,0.7404972166932375,0.7861025845052385,0.8991430123185018,1.0,0.7520793803814598,0.865486659223663,0.732068310650781,0.7091061427892726,0.6828819038280312,0.8238198461589827,0.7315957100786803,0.5595271319619974,0.7061332766870883,0.6094396634562953,0.6422799419625749,0.6555416488476853,0.7923794654366847,0.5643281710350259,0.6129608437423668,0.6405199833464423,0.6141016008564368,0.6233844941873943,0.7225050845081453,0.8159987387377878,0.6310086251681954,0.7435512715087058,0.6128006433600519,0.7000548061942604,0.7260623946126419,0.8916261475095171,0.807704523500123,0.6905153101662029,0.8078422411670068,0.7500150567664581,0.8189995692430903,0.878078246731461,0.992861953081114,0.7223073304508989,0.7885751806361121,0.8006106831613886,0.7449268601189978,0.7352267666182644,0.8032162728987644,0.8038913325169403,0.6098323246504482,0.7671641974176286,0.7135105325432294,0.8049808344814413,0.8399325256074408,0.9566500379169689,0.7324752701549126,0.660038689397429,0.6905226910103286,0.6791942118215317,0.6758887586296836,0.692755601864568,0.652198570372831,0.5133351398265118,0.575791069420994,0.5130057709432161,0.5232418116993087,0.16400922449183764,0.3627150178891352,0.769854498013693,0.7079778713644411,0.6654110631253682,0.5871796482578748,0.6084563413147057,0.4560249219203607,0.17852497568512415,0.5788359976565713,0.6473060088312725,0.5959675114557208,0.6095008892753002,0.656912840165917,0.6183595141100349,0.26328343059021986,0.5947914422564899,0.8087893493469145,0.6914284413905243,0.6632004562357503,0.5821643326176593,0.6723678770055614,0.2945720294315417,0.22388826701281728,0.6935819233610201,0.6813864741925144,0.5686745004141529,0.511797953986505,0.5354638022162095,0.4891498317263645,0.06614755312171416,0.33727380403225826,0.612302718657824,0.5023820141928801,0.502904860426125,0.44097984289252246,0.5340805926281567,0.24010011139442922,0.0,0.47452916232574394,0.5773051900695734,0.4799969140082365,0.5062958080245847,0.47681824431814235,0.5220871038002239,0.1296291591318819,0.3449912943636835,0.6651622883554218,0.551702298041064,0.5596767659103885,0.5630183112106271,0.7243792081356242,0.4421928180964607,0.23954974714315203,0.7030037153817208,0.7517412000341599,0.6447135932341297,0.5909209291085831,0.576380189225632,0.5324885624311824,0.13205894673109375,0.44322796243602847,0.719042831439801,0.6404920625050008,0.6663470637930891,0.6196730416625624,0.7257829043816044,0.3525579875486531,0.39671690801284276,0.8192294711136086,0.7810349881890133,0.6812183682205921,0.43403119770897014,0.3582367302652254,0.45428491078503175,0.061810120118144685,0.19818142096919678,0.6123148847269202,0.5766654128697497,0.5857605535757466,0.532964981028667,0.6042530159623634,0.3702112103132835,0.14708303963565372,0.5843714045320212,0.6271778777301589,0.5346915579019975,0.509577881112,0.5744565191474371,0.466896799682361,0.12320039497778534,0.5074326573173433,0.664546494680955,0.5712222360956982,0.5433627218498853,0.5569354610451493,0.5324247929038455,0.12484705190030976,0.374835176463411,0.6937747232170008,0.5749575731105052,0.5602045326647369,0.481382212013973,0.5618002511246338,0.2518485499182037,0.18492261225658924,0.6414422462092326,0.6351062496299367,0.5970967039003408,0.5537410836307948,0.6359453411900544,0.4687523765262016,0.2415502484871479,0.6745447266414861,0.7094576828041528,0.6002734906688252,0.4734458392647585,0.3796161846604815,0.415185851905314,0.028301484143142375,0.25007319460216726,0.6231484076678111,0.5567428183612453,0.5822612864974026,0.5929771373117001,0.6960983109310441,0.3184315038073211,0.24405599207176554,0.7138240828288525,0.7619426241947878,0.8021217550729478,0.9784211717959312,HB
0.9184693740519877,0.4725490108853708,0.3101296847827856,0.24009690221774627,0.4604092612758254,0.898607429453942,0.810496126932499,0.3938365509160121,0.279688253508642,0.20663453715548918,0.44360584593467556,0.8915763258479407,0.8604430750261872,0.4445819056168251,0.2788370582078711,0.23933734282261676,0.5547895285040297,0.94233149586537,0.6872336348480236,0.3351639535083909,0.2726582195273286,0.2685355353277643,0.6162475551673908,0.9601440792153849,0.6434238827196793,0.3443545242632612,0.3062786335859701,0.3109371585312549,0.6640808624734572,0.9640661859679412,0.6100853810064376,0.32777977404409675,0.2706137249247884,0.2898934591324396,0.665919456962213,0.9691152894584679,0.6250732014966546,0.3520716781046974,0.2803988243350911,0.3064533834092157,0.6957679987757975,0.9746369406133487,0.6071939254467756,0.34421140789131843,0.2591926749005278,0.40701195946391533,0.8433586464257549,0.8550914865128966,0.4160116814668714,0.3054991740531824,0.24107095944275692,0.37053871214487766,0.7993140160558078,0.8566196161837453,0.440357209686829,0.2867720950697096,0.22777839932667032,0.48561122242214705,0.9248618666910723,0.8130148938610217,0.40295758895495626,0.326511402861663,0.2677980865259644,0.4921387028358132,0.9208882181460313,0.8018177526106686,0.419470232175971,0.29562802580387115,0.29872597178606086,0.6682903575793823,0.9389634203550267,0.5598074490527508,0.29944170882238474,0.22776279807041644,0.2622222630752865,0.6617241091575686,0.8714146300690652,0.47143910119701304,0.2318959564548312,0.16052396257618973,0.10710166495976403,0.0,0.41642957570988604,0.6407123527504132,0.29486259781017976,0.1621405652253437,0.20471378233020132,0.061480456414696794,0.3706637168759629,0.7129701597219272,0.4282536085551477,0.2121363973439906,0.26617015741011574,0.13419520852277844,0.24309490014390112,0.7010451653977684,0.5871562843010479,0.25849901895094607,0.2552781348957258,0.1936467955904151,0.1563896881328526,0.6231295588992868,0.7049068650572078,0.31313183658136945,0.18343225543751918,0.2181613099933568,0.04690523467871244,0.349311998978887,0.6868649881909731,0.3992564534378463,0.19086888251721312,0.240677054446219,0.09786963873547982,0.2369745989994737,0.6960920542008159,0.5661002900803179,0.23526532184927373,0.24423834014432788,0.2044103603266878,0.09223327788146451,0.5069659085915893,0.7388893701164695,0.3830085182138322,0.20617110049214527,0.2561965865592619,0.10032319859199013,0.29367554508150306,0.7477108483180402,0.5869801870216907,0.239446821960823,0.22443225437907832,0.1860845176495297,0.06877933116387358,0.5084527042633237,0.7671724089413187,0.42423154244717465,0.22486864108448656,0.26426422078598055,0.09947959403286488,0.24041566243727963,0.7070521494887033,0.5881696783946474,0.237374836709483,0.22002746357852299,0.178212465660206,0.08179182290961728,0.5247133737314315,0.6822371985747394,0.31325269391123267,0.1903033630118559,0.23201828097179567,0.07963290592311334,0.3661748663983807,0.7579494955503973,0.492110489159047,0.17861427574165134,0.21293831237304073,0.1652955477764011,0.11658439340659099,0.5796642213470419,0.6907179568478673,0.3131149914109762,0.19921893741778607,0.23617636016744115,0.07847375030038306,0.3909672287004079,0.7468670905875338,0.46520928454192256,0.20425914732923534,0.2368306067942927,0.1251504030452728,0.24551650525402013,0.6865124530313699,0.536017754352316,0.21615789646410188,0.22612215668891678,0.16085975577350686,0.15636820667567097,0.6270894958938663,0.6565408984766207,0.27647746722762345,0.19709814700096484,0.21907193390125168,0.09030731530190794,0.4731046293929454,0.7971340866756641,0.4806163932261639,0.22095685338109727,0.2588277852593134,0.13408460450521886,0.28203562769425217,0.7356272755302148,0.5846988137443591,0.22738249914738595,0.21689016619146895,0.200540060780235,0.14926437901863587,0.6037703607132713,0.7048458878509222,0.32255290846472195,0.20178480868087578,0.23746199584253036,0.0885101183098419,0.433356762521356,0.7965710111040761,0.5016618678269041,0.21141856476476062,0.23114108730244887,0.12541096078997516,0.19675384667537443,0.6809840933385461,0.6565358375155083,0.42095764492435783,0.7574894542143268,0.9185481120917519,0.5011966577171539,0.3090199162349577,0.2512999427474334,0.4659762996099083,0.9032247727588157,0.8269974445995273,0.4191858141182453,0.29345108952594146,0.26366412047100074,0.5833425084560592,0.978459554503803,0.7393229109897156,0.37132417991648514,0.2778270428903883,0.24575362947976453,0.578226212695837,0.9888647929042959,0.7701227166834027,0.3873458917091247,0.2997004220131172,0.284455078189928,0.6249274625287488,1.0,0.7205944375418639,0.3631318076300819,0.2539935059507804,0.297648968293203,0.7017277407485966,0.962929109270574,0.5765578610618517,0.32336092878642775,0.2406849471675001,0.35746573350486377,0.790220055631709,0.9133752040071593,0.49255177177838505,0.3113427435389219,0.25076049085759455,0.45770977963908155,0.9066100910693199,HB
0.89319092308985,0.7846827265333678,0.7414447539145339,0.7686428930059797,0.5330802581722551,0.68836610714277,0.8963147342464088,0.5875979633273225,0.6947175999770803,0.6268859059978316,0.6384362731933031,0.449837107746792,0.7347550862178904,0.8495969938100818,0.6030972998097832,0.7347284102453076,0.72607195170922,0.6752547074034685,0.6368834859188044,0.976272078963663,0.8760780480542554,0.8548380283755685,0.8107566685036813,0.7853866700019094,0.5900805036852534,0.8381398874874733,0.9658498833128109,0.7131553151324725,0.7303959973822916,0.7330475044084608,0.6283703511237202,0.592002589452532,0.881624523193917,0.7253197562803684,0.6997232887357367,0.638088573115458,0.7249234950099597,0.5281005318432976,0.6068649533848558,0.8878719269963748,0.6837433188906026,0.7331881834199998,0.6945283855296212,0.7196343915093637,0.5070924856600465,0.30375731827461827,0.1978436066309599,0.3990803967133152,0.6319115431694118,0.5638377223251161,0.4299226221382195,0.12124973603066991,0.5823519451076025,0.6202187832495758,0.3412114376787563,0.5522512664236774,0.5119360757217093,0.5316784850306413,0.15331092115272815,0.3623866617895697,0.6797988813749885,0.4192636845656881,0.5583701241329111,0.60187146360381,0.61086439143428,0.3244660322862991,0.5116947928376145,0.7387334313253486,0.4574074817152023,0.6284813690820994,0.6845054143566869,0.7086982289825983,0.3400332683739622,0.5691506927825998,0.7962733606751873,0.4698048235470189,0.5942238457472389,0.5989493001204362,0.5724704280604094,0.17187022906879212,0.2325650601337057,0.6827967605811782,0.4598519200498079,0.37497108040068294,0.5475868408906832,0.5357501892913699,0.38008469545282075,0.11746754752632338,0.6074804092098445,0.6306026771222184,0.38295413142159074,0.6317729207675291,0.6342558238753568,0.5931646884415613,0.23843882618336076,0.6220405969999523,0.793718007056222,0.4999933649767603,0.6702019291943948,0.6503586059996769,0.6327861550893488,0.24242142556515445,0.2942553436083317,0.7259636882348288,0.46492295277156925,0.3493039911170075,0.5686027591747185,0.4635570168327794,0.4180792201296648,0.0,0.38322567476215896,0.6371308361649777,0.3857302088680816,0.6303195735588125,0.7360458663712683,0.730880253493587,0.3366996792664314,0.2895508411481549,0.7376083056602463,0.5446382059412653,0.47984315956672763,0.655256553395847,0.6461056311526763,0.41150649997597233,0.22546591346036582,0.710204011341955,0.5930829488139882,0.45765657993382547,0.66784035424809,0.5671773446727619,0.539616495687703,0.06799965034365085,0.3456558290506848,0.6166073597678356,0.3149059740910234,0.47872122773555636,0.6209298902210256,0.6405596885624698,0.421449017101839,0.25235740048631117,0.7113149422011404,0.5563024600558579,0.4802934471101259,0.6700341898106856,0.653833060019263,0.4546664248785728,0.2180068078290387,0.6857419279445054,0.6416475392119612,0.4488212835846124,0.6409763811650353,0.61144044423936,0.5770818201508088,0.19165868047152745,0.5886772756467789,0.7049852480162127,0.3894060754062232,0.571443154729363,0.5400673198574344,0.5518606153951375,0.14605947124579322,0.17647489701777674,0.6430173530198342,0.4308666951158182,0.4308352077593969,0.6460516485551402,0.6577197220510009,0.49283814196727826,0.18264077452879723,0.6559511804835871,0.7080777752057097,0.42503730958434227,0.6266248102394503,0.6307195323043366,0.6116064688192946,0.24072261848311127,0.589912312446307,0.7339084473069386,0.4490093911656383,0.6486312678052695,0.6162410008313448,0.6646327049251091,0.9723178431627733,0.8051157169592065,0.8141555233934987,0.7368195827492392,0.7557821995118847,0.5518380162632734,0.7959213333193165,0.960098333696001,0.7609592504791971,0.7871852281334148,0.7438693758412391,0.5475897773534286,0.562097808338966,0.8402295461580058,0.6801225738004666,0.6859267257566755,0.6807402820973345,0.6555145472234396,0.561267014129256,0.904431400810576,0.8476444693264038,0.7806529827246091,0.7528394584462159,0.7668856462069162,0.5733983930917037,0.7228992696838752,0.9569389609295063,0.7623438014491688,0.8079260994327346,0.7750399133562214,0.678302856233918,0.592501041127456,0.9231938802820312,0.860722849947174,0.7666945478236782,0.7081990604437216,0.7438799289226621,0.5077502029684564,0.5218794929496551,0.8300206958030802,0.6400253279661632,0.706359289075321,0.6993076427586771,0.7705852496988563,0.5517936887313928,0.7635232934662066,0.9558854971829382,0.764115108459205,0.7703575108535201,0.7578353684962886,0.6026517349635236,0.6612796506217817,0.9162035188031057,0.7108228623374417,0.8231281989542052,0.8332114672861413,0.7800701187637831,0.5275839205234432,0.7687352823963307,0.7960976857584208,0.5978838926736909,0.6024820852208048,0.639646256318612,0.5663689668518161,0.5076280404674107,0.8549795815140238,0.7820491956928186,0.6917159695921824,0.7503260666077196,0.8008304155264798,0.7246526103369106,0.6793856418564217,1.0,HB
0.8545297874447351,0.4898031862545711,0.5598517045124436,0.5407161775959686,0.7393012461978361,0.8914885241401738,0.6128454068724016,0.42578077133937997,0.48217007808959633,0.5764600717967674,0.8368564916869325,0.8372120687121196,0.47215411948463815,0.47287641280373416,0.5127195201295396,0.7423728015710105,0.8840123939205249,0.5190356416542228,0.353115452953078,0.463696546068864,0.5314450807767424,0.8014712393986994,0.900035895597227,0.5181577156275965,0.4725312483929096,0.5083462341284024,0.6549783235257225,0.9161622286679005,0.850453564229241,0.5039902356773651,0.5239757247509387,0.5618268954261889,0.7802103171730672,0.9000110293779828,0.5436636866158082,0.43928759433283604,0.4908175180699552,0.6150192699939585,0.8785920369604159,0.8328369442260817,0.44920509155184907,0.4981454170317645,0.5295962183476466,0.7642326399564201,0.9410284089021719,0.6678333523735311,0.4521339361664303,0.506497902157931,0.554888731211433,0.8143913458952081,0.8900458387605994,0.514137133561388,0.4623929336809971,0.5007278935842174,0.7055493204178,0.92912296989208,0.7913567524768139,0.46080600043543196,0.49952143972537666,0.5478071538506075,0.7675431785600861,0.8799254801470422,0.5262274322218381,0.39198876973717134,0.4561590314631332,0.5606273133774944,0.8278353139840231,0.8483027924066175,0.47179165162339043,0.5034007685013098,0.5040576232837262,0.679368873657342,0.885732829474394,0.715626510533558,0.36501770061900074,0.4721741948196425,0.5209622794101358,0.7527930307592527,0.9253413296359358,0.6890425888825318,0.48788005449676075,0.5708854350654704,0.6453467541019697,0.8655331473842995,0.8690234797166556,0.49662535358211746,0.43269183885126994,0.4573606507042445,0.6138816654272026,0.8741316545187185,0.804949788990984,0.4416783004181992,0.5085056116213169,0.5115464176969735,0.7240888914581345,0.8969423855012502,0.6155461846155839,0.38979763223241215,0.4883657620483841,0.5557051310565135,0.8134119605507144,0.9103250312972975,0.5428698666635468,0.47601691244961586,0.47544797407538764,0.3130727501159998,0.3061832221776204,0.38479127723609374,0.05294452542100503,0.26358987275974144,0.7401775784313565,0.7102628078896804,0.4714507352888615,0.4103962596644397,0.19954216476725017,0.06867156015847975,0.5700823535053956,0.7803047971943808,0.5453593863290442,0.42375765707928337,0.3827443719894901,0.054025799815161646,0.316465461912937,0.766618526463819,0.6954875430269722,0.43981725751764267,0.3721974328013844,0.21338720685743873,0.07649634403017758,0.5519401604750456,0.8064577017972869,0.6423320095944804,0.5087324598808238,0.4401226161644576,0.09639905528995496,0.3153229006010736,0.7620189527563663,0.6924339566470452,0.45616904900767574,0.39535862703824143,0.12030305304922484,0.11506135998189215,0.6323676040366382,0.7493373607644049,0.5037703221545402,0.43137941829203763,0.2863007461117941,0.047703538309542326,0.49333545860746164,0.7707464620507885,0.5477035468553473,0.38968961097004473,0.3065763256107277,0.008862624929656393,0.355955414510448,0.7589201818651556,0.650473873217553,0.45618779899935435,0.4117961874209215,0.19749729716433007,0.2132042393722957,0.715414914409279,0.7924155872263317,0.5280589118558399,0.40822238708954184,0.22914738755030428,0.0,0.45470816090765664,0.7815280459870033,0.5933962449802666,0.4303531492300612,0.4068913157687064,0.09016387847511376,0.2757348263837873,0.7643780289899837,0.7587573586750314,0.49715774313090777,0.4256851117831706,0.2513668214881146,0.06259150165285621,0.5403863560261937,0.8104651277788333,0.5993964763095476,0.4260482227479061,0.3616364016072944,0.047677088882383645,0.3277369893301685,0.7621066560771625,0.6799758131661242,0.4830473875939614,0.44875411403559573,0.20439657187782956,0.23641973265514538,0.7304439866076011,0.7598291794671876,0.4983037170956872,0.4308727284695699,0.22337652356876014,0.0831670292388631,0.5769431997150687,0.7838910058687083,0.5436276331794503,0.39598207084879333,0.32721823800847827,0.014065389926329885,0.3140954989116347,0.7387284182166267,0.6184806082825898,0.42739368788904253,0.38046484444525297,0.06887680879623459,0.18373531964340084,0.6928287142962102,0.7232941591368884,0.471368822301913,0.40886368918450233,0.2043589951482867,0.08482239855380791,0.5270390325880323,0.7870986636151447,0.5965467505013904,0.4641302399062701,0.4463934851672826,0.16381836272826944,0.47909077503871766,0.8845485700568458,0.7393495914025552,0.4793567611697813,0.4243035584564425,0.12452059681871686,0.2132029356470011,0.7238689538890304,0.7551590384877707,0.49400357756054336,0.42936229787451796,0.24362659143254461,0.027411114528134606,0.491203644678454,0.7739638636618702,0.5718868220582405,0.46330109940656516,0.5496179047665641,0.790816718045789,0.9011897820739465,0.5369229973039016,0.37133137979203856,0.5014940544076301,0.576797545840164,0.842788202998987,0.9286063618112657,0.5460002438249749,0.4827757767803691,0.5275942881639704,0.7440668372524839,1.0,HB
0.9179198894771032,0.6586628474032816,0.3785395203980927,0.45960346119080153,0.685878709212834,0.7408225454344683,0.7931196331754808,0.7809384616150934,0.5078153120540267,0.5067732314919788,0.730798694054545,0.7446363140921297,0.823242349364596,0.7459347743402489,0.47507774677893977,0.541780569051145,0.7390700932247276,0.7960180245493025,0.835743515737025,0.832400905394793,0.5527751992508121,0.4724881126523497,0.7209439962322537,0.7294180163197346,0.7816031206889362,0.7784604696989659,0.5375557714430512,0.5643418724737552,0.7912323159433732,0.840790421391447,0.7716485379895561,0.7673767520576613,0.5845932683349648,0.6893066274822028,0.850591004514279,0.7758810283394604,0.5097943052554392,0.5127680371989041,0.5562302405569521,0.3367364927098586,0.4306047257313872,0.6216928995373894,0.6739145806888123,0.7967349264194932,0.6807480884001613,0.46848636639064845,0.669947101480219,0.7935745823276923,0.8105013471707454,0.8204671531943706,0.5659382575320173,0.5228577036367437,0.7466500366476598,0.7650150984470336,0.8223312684150159,0.7391213799215155,0.5073387638945657,0.6631656926154628,0.7798510081717376,0.7849786477496854,0.8391276961485064,0.6584354905622183,0.43789881387079865,0.6174570010874754,0.6679533295533531,0.7246829935430712,0.9007949223090428,0.8101035510350583,0.5836640043312746,0.7257507158197682,0.6953062724924701,0.7185634923178517,0.7559170529455812,0.7463931071532066,0.7821983898439846,0.6339086558750306,0.3896685892328551,0.5480517025553513,0.6793206120426143,0.6899759975020199,0.7843176555270879,0.7413752657227575,0.5142833883355766,0.6472223404462758,0.7581299125764622,0.7033247112901051,0.47092615411977823,0.1947237450914613,0.3933334167350051,0.7008014551911947,0.7164024509469755,0.6373674352287797,0.619808526889799,0.41880272545773867,0.15252242643908187,0.3595710047883407,0.6707044821573964,0.7149323757015913,0.7036376052121445,0.697497391879613,0.6442892588653779,0.6131521239659397,0.3997307129215366,0.3487266397916753,0.6898997802481108,0.8518390501245086,0.6903187348709909,0.6091377015811823,0.5489955345129691,0.27510768521348095,0.3660306442007357,0.6948421465635604,0.7455650027679848,0.712404395934453,0.7021277405171369,0.4459304682293377,0.19826744451155875,0.44290593462612304,0.7436013366878231,0.742225790979087,0.7159645732786535,0.6201026144223261,0.30105826208814823,0.3101634564224316,0.6521297277093334,0.7935594551008802,0.7388823939305684,0.711658206132713,0.44041442070163894,0.22013448555083537,0.4801322126224332,0.72623086298698,0.6400758595706941,0.5896491426472423,0.45520217336199065,0.13370616053602102,0.10754578827517236,0.42845701448654916,0.49040465011235934,0.3497272418132972,0.5439283005840105,0.7665661584355834,0.7113905125711828,0.3992683013665168,0.23020063351091757,0.5269883818597991,0.7233040907201767,0.7285763539005412,0.7935309835795417,0.7073076945043897,0.4167560516014204,0.22526361650653626,0.4875752140967937,0.7370495520421416,0.6875427765544049,0.6928680642425102,0.5943455032324676,0.26838386933656366,0.2736450526519085,0.6301005897388932,0.8135758773433615,0.7382075232704528,0.7212878316256568,0.607983586758519,0.3052229203009753,0.30442591428781773,0.6360775600834916,0.7579360424392372,0.6917785122495999,0.6926454895380494,0.45682054630050417,0.22804679660846938,0.48130008083089404,0.7475128134582534,0.7299740103862804,0.6881447903729709,0.5921930984551851,0.27782140751230344,0.028607093669165806,0.27577260218957045,0.6079640325601174,0.8429826680166752,0.8423838142588136,0.7349192990706603,0.7371773248563283,0.591849674431022,0.26315527084364265,0.3320302491959223,0.6620222790540014,0.6965143425562581,0.5845944916305299,0.546021741873864,0.44477049835763705,0.13296210351711968,0.0,0.30347471781546653,0.4987486736518192,0.5156968029464528,0.7604231570331532,0.9453594273074548,0.7700899135247237,0.42567839451076006,0.48493874864564845,0.8312182203185827,0.9147611324219631,0.7800602037696482,0.7271816926369568,0.6012207149127162,0.288158715132076,0.2145053144709722,0.5476870473248079,0.7501052543455731,0.6490736058707813,0.6405560776501176,0.5444553227297932,0.23694100750591085,0.2702323154153907,0.5998006735766614,0.7050312616485999,0.6504271173166163,0.6786371388113921,0.7058145426121964,0.7166316247318854,0.7580263516430317,0.5864089313766205,0.475325206471952,0.6629823415973239,0.6884314717800912,0.7258959670876133,0.7931920841193452,0.5667719389314538,0.4770488580559695,0.711599028293405,0.7887354178604515,0.8502626364480985,0.9907125350395611,0.8684175249978483,0.6539621380588403,0.8680810065313216,0.9999999999999998,0.8152632827555693,0.5924154370297641,0.5434380971342088,0.3366214864520185,0.39137763725562347,0.5634477232956205,0.6100535066841841,0.6700589683621994,0.7840262187301783,0.6382496869600793,0.4885386512148804,0.7171950792698376,0.7778668138491616,0.7928035107572144,0.9521474634780427,HB
0.9074977784307005,0.4522408340537719,0.14413361692503435,0.14288354763740407,0.5600661799430798,0.9269254204832308,0.6617615921530197,0.2501119641480739,0.07861868920444592,0.3457906774018241,0.8308477860784974,0.9209595949260142,0.4827000227405057,0.13559568434451308,0.0930108249642968,0.48385039644200367,0.873194709475119,0.6621411689273878,0.2509442488026631,0.0656109541056843,0.30881246669180296,0.799616433647436,0.9534829156148464,0.5356300921027394,0.16937665179912587,0.06937766144953816,0.4240205008001835,0.8932528575709974,0.8559261771247063,0.3987437565564015,0.09991177792557826,0.1432132513155181,0.5858751314573069,0.9816874050237875,0.7552036924536115,0.3119579196309409,0.05992150517396533,0.19635758322050656,0.6773249869442902,0.9904820900338972,0.6585013326982373,0.23480599347290487,0.05217393177529639,0.31031090263628325,0.7804728433677218,0.9522038640900473,0.5458140072031202,0.171881169931128,0.03660698716600219,0.36310921155261966,0.8514074080998194,0.8974736995783624,0.4576317524300654,0.14540724592280863,0.15262375261883732,0.5656315733623071,0.845464796456246,0.5060916554254548,0.15718004404633723,0.062095983338023464,0.41793238373902997,0.8948065108286637,0.87363679829261,0.41944054217489735,0.11157038890370885,0.13761022798820055,0.5709572875507808,0.9068226659035884,0.6072415631508635,0.2107756507960682,0.044252653973106404,0.31410149865124837,0.8048316956760849,0.938673746425959,0.5143570058257777,0.1623178320098797,0.06891574681381374,0.4055455112151781,0.857187578127535,0.7746880189421804,0.32942893614704805,0.06150107048691167,0.21777093485830756,0.6854120501175095,1.0,0.6772577823046283,0.25049058168366345,0.07607557685307975,0.3416387406465641,0.8240389363011701,0.8915451863835121,0.4457795202476972,0.1169909867691018,0.08229753391120231,0.4582262798501423,0.9276581753354535,0.8935210630615181,0.43997274692275423,0.13061950004989553,0.12576708819900995,0.5415315488627422,0.9489179452797026,0.7362195842405826,0.2878731312495312,0.06339949319132587,0.22101456157362553,0.6823761183128184,0.954872420693689,0.6075890629100088,0.21370074022647778,0.2194237150730941,0.6389753718697936,0.7619451772728828,0.33380117095110073,0.01946082382148495,0.11684249782520806,0.4534417300430541,0.8151822892742676,0.5505061924709894,0.11964888764059123,0.06590558837054705,0.3421808917174295,0.7862204673765173,0.804189468302091,0.33339508495722503,0.017533848290177567,0.11470056060751033,0.480605607589479,0.854567141730881,0.6054950008740844,0.15485924753222147,0.0557297973055213,0.29297290058513703,0.7268898239290343,0.8028350796401459,0.3521413467262292,0.025684772684387958,0.1429494936843818,0.5429080640981013,0.8100462331949526,0.44698084184106557,0.05988402852936414,0.09148495874145945,0.4056424035961267,0.8194016680790982,0.6731177077643667,0.20831750430214435,0.0,0.2017077112838771,0.6018668219817155,0.7755962906269224,0.36408505185579576,0.03292534785909307,0.13511703981059808,0.4978860747462087,0.8771484381277604,0.6324584490420345,0.16448847328439442,0.012806480884287708,0.2343513604037918,0.6274877751540241,0.6652477742759794,0.23581756329754755,0.058161413423779784,0.24344828231766658,0.6562464026054614,0.8018480856695974,0.36710007472999384,0.0048736559624881215,0.09079200968826351,0.4223768396624835,0.8214578315792959,0.6399556693817264,0.17505086177776052,0.020141292434401437,0.24970001544466947,0.6750446700850053,0.7793341278865878,0.33581172234629075,0.00806954303629226,0.11667623058513221,0.4579374016932244,0.8468468313678644,0.6376843247144234,0.18398358843377893,0.022933289685906688,0.2443900765397803,0.6705941355007171,0.8058778639126601,0.36480515909767985,0.024353123973606228,0.1284920514636173,0.4709271912949754,0.8727585540521875,0.7051516849584253,0.2350227183409418,0.025701754361623252,0.2058412566062896,0.5908264042684793,0.778614472664673,0.374271053304675,0.030806971240415648,0.11659346995162212,0.46117379773151657,0.8354091163005798,0.6116999351396809,0.1640791304533884,0.050935135065372505,0.29236898024833746,0.7052272322096348,0.7058774387905712,0.2551202147663282,0.0453253460654619,0.24074005201293314,0.6577999508993063,0.8748388129866363,0.48050470366052045,0.08259282311856697,0.06425241676711546,0.27143012831597,0.7140625783187718,0.8062358120988419,0.362515609238954,0.025957268899984065,0.11381858702063918,0.4621279987183352,0.870089286173417,0.6818543929262658,0.2018521812399322,0.0032303631355187212,0.2181281377308144,0.6487354417483425,0.7710513006024106,0.3411250383175396,0.0295994282041131,0.21607565673949714,0.6948245832987571,0.9458010230961339,0.5774552550945363,0.1723226945994768,0.0421710883963915,0.3540477669524552,0.8508969698247949,0.9716513292867303,0.5377745789796605,0.16620692455327568,0.06120944336783718,0.3887538319365874,0.8693122071510432,0.8956532837250771,0.4395318009611676,0.14144435258132826,0.08339541592256239,0.42824315074009445,0.9091006857443565,HB
0.8539988186488339,0.46926431567299365,0.6094324183621882,0.6300080057297328,0.7329142757753737,0.8937646425235246,0.7664079131803407,0.33337286343938843,0.450835630007308,0.5647006380865669,0.6539068297280937,0.8960552585729142,0.8799059648487244,0.4954269183345992,0.5696459406482555,0.59787309124314,0.694788542124293,0.9255469290711695,0.8697206290124395,0.47647363468842263,0.5718930416518624,0.5758266131139222,0.6543186712797033,0.8967294365365732,0.8933168973005112,0.5522339124430324,0.6044462493653007,0.6247489556085146,0.7640058330890316,0.961048745546262,0.8118548449045226,0.43192275188695173,0.5721500347917265,0.5984763720276713,0.7206143917209396,0.8936800176797344,0.6766972112664986,0.3696742768492074,0.5405358760603955,0.5831140591855657,0.3610431987291247,0.48838653975371105,0.4560363617727785,0.15466859115577747,0.02617546290234629,0.5351398775266614,0.7651353187006618,0.590169908721478,0.5011525367745286,0.449466053172209,0.09989081776438646,0.32682322850127443,0.7923058751595642,0.7703007393471579,0.5570864352222487,0.5054296221986352,0.38186354336413775,0.06872179349977126,0.4283867809098967,0.8076180138986562,0.6813316967600604,0.5063564661852427,0.49040810757105313,0.2557420116989131,0.12752065416308977,0.6244060336253363,0.7999465619480359,0.5927372544007858,0.5064984116070235,0.42897636227962166,0.07410898803362098,0.3045486212317794,0.7676375024936806,0.7263969733975673,0.5157794784203729,0.45158517062910364,0.2434557693061692,0.0,0.45346763523300204,0.772292431693514,0.6776731194972563,0.5464544306277719,0.5289464648480438,0.2600539670762263,0.20878070126873083,0.7054032711430853,0.8445421713944121,0.6069310248545898,0.5065722595964852,0.4155059620245445,0.055561254978276464,0.2688801714822655,0.7456841161591385,0.7034325892621642,0.5403117803070774,0.49687795524857314,0.3569929019599156,0.07874738791240943,0.4949084069205505,0.8038415189835684,0.6277425103303174,0.49834938871920187,0.43709611916100544,0.08012256603776868,0.2636295238295414,0.7484626196324324,0.7452387186724749,0.5397684221554218,0.49064409207000925,0.3998077835050917,0.07577133862276808,0.41507634735400734,0.8062066813884168,0.684002232085851,0.5246511258557753,0.5042499315504059,0.28581597074762377,0.1297930391747164,0.6205752378456924,0.8258008130714631,0.6278506538442581,0.5110063830942357,0.4671229484756725,0.19202830629635992,0.24877797498885634,0.744861936732462,0.7957318734375609,0.571021859573122,0.5042759796218528,0.4421960919328676,0.08801088343406249,0.35758115522286316,0.7870016857054773,0.7029612936969563,0.5116419082858372,0.4531152299344732,0.21566232642240846,0.017432762929388446,0.5051450236285,0.8026559625414005,0.6429163052412408,0.5222903334939148,0.49051211981030884,0.16037176309985424,0.12158977137444893,0.6411300467396137,0.7874504304664436,0.5718694517452991,0.49439260687867614,0.42173913956216746,0.07081790159613632,0.27883442469690145,0.7566461763406775,0.7554966316618486,0.5319085157453285,0.468188927566485,0.32941629795526484,0.0421417091535059,0.4518964022794587,0.8080073825878915,0.6576282632558645,0.5140137101568225,0.4822202254766359,0.1909564347410979,0.17864024519104182,0.6913950157042876,0.786893923831157,0.5728907026117178,0.4991365807885231,0.42618030982002564,0.0861286175051239,0.3645213468785644,0.8048516152211596,0.7344529963339586,0.5719807836982622,0.805156821974486,0.9690003369963267,0.7355830683813531,0.4721597950019125,0.5928627939740896,0.6245143728605516,0.7987926700580883,0.9373769221445278,0.6285576107204691,0.4178727894368861,0.5929748317298782,0.6236187788208625,0.7833871263481189,0.9478383493004992,0.6775662262980529,0.4798611536610575,0.5673157905746764,0.6077523881742888,0.819508812251851,0.9603350905301964,0.671943205916524,0.4851177652474181,0.566796841500163,0.6028897168365965,0.7841598751106091,0.9572485120914171,0.6887750567422861,0.417262599849036,0.5920555205696558,0.6045078144067253,0.7254788487851527,0.9261005111365797,0.7933998864188423,0.44774247021741775,0.5426482685514233,0.5791627401541386,0.7079502496616525,0.9454465827391862,0.8437050751253667,0.4782630537969246,0.6015507519340784,0.6038316049813779,0.7116350666488884,0.9292687113513143,0.8007290812986438,0.519865507107699,0.5812143129405696,0.6183751495488983,0.792604659069069,0.9577429000116822,0.6884552448959322,0.4575857248496138,0.6049375960497965,0.6175444222108073,0.7873673063719782,0.9452530756771447,0.6946164610605159,0.41696814607059207,0.579895348098616,0.5982257183487261,0.7215070567374609,0.9341465388841907,0.7619739560945034,0.4263815157937272,0.5756001159256878,0.5982514699412964,0.7321723099589157,0.9331059113274964,0.7880019034629266,0.4846755109661096,0.5982806794005737,0.6119913024025876,0.71232971282289,0.9281170419250202,0.8392259743596613,0.511701997275724,0.5824756156973787,0.6118293987777346,0.7707756065299991,1.0,HB
1.0000000000000004,0.5795027162192503,0.4901509068840748,0.4644938088805963,0.3106937251683659,0.5256345442603281,0.9503213214355957,0.709381139138495,0.41165749772287885,0.44246092227225065,0.3543304231260209,0.20082573820745164,0.46304374162671413,0.9135630557012755,0.678934586720318,0.39108190404395016,0.41609507990690897,0.39096418720616777,0.26962513355983875,0.5735322055153729,0.9712652538579696,0.629781720396327,0.35383442969560397,0.46439099221969427,0.4325620634254439,0.29480690439316337,0.6086694876998866,0.9590094326826808,0.5802677313785343,0.4161658020638521,0.45371253732310457,0.41886226874592003,0.26061954062864334,0.5350095768751273,0.8388037370768568,0.46588187623400446,0.3553905824920687,0.4272451107813282,0.3755357221465907,0.3525167614565494,0.7676504827707431,0.9990211557061088,0.5241435475640381,0.36874335744694653,0.37414073201738196,0.2970029902356486,0.34403687759456014,0.7836001012014528,0.8595573393139824,0.4202578901395917,0.44017698459447807,0.4099657031162298,0.2592938522695061,0.33728748953231324,0.7900721882429402,0.7866326165157482,0.32803207219732267,0.39925465689267225,0.4295528728904263,0.3566073694938181,0.3424396515410226,0.7594887927356226,0.8421037589455018,0.42321338769506056,0.4187783726181089,0.4211123640293857,0.30240234204514227,0.4508688827423568,0.9232721612931996,0.885136124536142,0.4317277705871958,0.47978297724206165,0.5773239720854546,0.40722945553291723,0.20757168358799705,0.572832306977475,0.8735933581279856,0.4785893810732498,0.4329060637380504,0.48495473727420846,0.4005051351828115,0.39324787005962225,0.7966098322682282,0.8550613156407225,0.4227928628427424,0.42354533031548947,0.39534363019848895,0.28227274373293687,0.36317251408714757,0.8018806128046201,0.7287476595505908,0.3562933718740169,0.407060451735469,0.4386582506841834,0.3439532510894874,0.381819296935336,0.7993301752605588,0.723601780489969,0.3748215219587081,0.4181421238183676,0.37795720759172635,0.20655585299841928,0.4129729371798785,0.7550227304362607,0.39472253505474075,0.0,0.055479719680682216,0.23993082565858304,0.32110750133893395,0.17722682410957757,0.29022348719136604,0.6913840224290109,0.3970255086286554,0.18327181768133194,0.3212782426863967,0.30479767683752446,0.1306605841981474,0.19582474341692846,0.7145794142238842,0.5547662905000661,0.17759357304330337,0.21666920926374011,0.29940561424959933,0.2829869565463614,0.08884485788262975,0.5290640616217539,0.7600990597179709,0.3754527002996464,0.2500160517477963,0.38396876517764467,0.3309806232896988,0.07443076346344402,0.40484543776668236,0.7344746599442957,0.33424398806260047,0.07534344049789654,0.35410022610804104,0.45882159485604435,0.3357874914594352,0.0992758163351839,0.5145557729250823,0.8287317351030787,0.43289025951895965,0.17513558375221194,0.29919611056763795,0.30269761852559096,0.1880538496587496,0.3587995682962468,0.7126156505349304,0.37514475220029997,0.17440921179744162,0.31892787405614476,0.30895035221289024,0.117891066591433,0.2275972023341004,0.6811677113584054,0.42178824368397505,0.131628125059295,0.2736596552871591,0.33314404790072505,0.1929309316851615,0.19756623205386337,0.7236616992617879,0.6078466847334139,0.2116972728567048,0.20856798009632538,0.2844228303454224,0.20218758939555181,0.18060576279461493,0.7312202589126877,0.7577305459044648,0.31791530499909815,0.21513386648184296,0.314857824274414,0.26897748858700643,0.125049227636008,0.5537845619160207,0.5725278179962063,0.20438882964087135,0.2293349768713484,0.34086108592033115,0.30793753720101114,0.15006845833391758,0.6102315428320053,0.7086342523324194,0.29491689633566986,0.21106926780352087,0.37378871030534766,0.3386216523060823,0.09266679080713791,0.40386212871012805,0.7657859085064516,0.4055889812103315,0.17017601067800125,0.3091354281108907,0.31281406477007456,0.10484418163164211,0.23685613564556185,0.7284147263675855,0.4847276736630506,0.12312517387488331,0.1971997266858767,0.32608147892195616,0.2673808586648443,0.1512238191716362,0.6674299242391131,0.7101392141029357,0.3002688151094759,0.22222177073023142,0.3792346407292895,0.374118267414536,0.2829445083845936,0.7106209645337098,0.8698840820673075,0.4298107792158756,0.21922523080502332,0.3464428381592062,0.32797639861373806,0.14973199224719957,0.36562006785396584,0.7502841826932243,0.406886727744292,0.12362441101120192,0.2779587651025941,0.32376402882576194,0.14709339837252822,0.20836052828783203,0.7129874914496934,0.5143507972208754,0.15091995788830248,0.23412072047779064,0.3366684288206696,0.2712017118343444,0.20152362454259176,0.6286803411609316,0.47541913756967125,0.45114058700731174,0.4193076199575638,0.2640506605877384,0.31558537583263124,0.7803023385486441,0.8451330074297023,0.3877732982682969,0.408938195045478,0.4230491367721658,0.26296362713473354,0.34889377748150174,0.8171630438470028,0.8872045582440253,0.4193780687103268,0.43161795448642204,0.4479991021804821,0.34519244356012235,0.4573710565286957,0.9179807230872661,HB
0.9999999999999999,0.9527221466421206,0.8100377592845834,0.5443608510185294,0.377227745011125,0.2406062175683642,0.19248053764010664,0.2639846114239295,0.34346826962348453,0.43681805123336226,0.42981032870130764,0.4000985753621942,0.4419499605967422,0.5229079797275583,0.553479013107439,0.4809949372166076,0.4592057258828137,0.4858633081977074,0.5757554401739238,0.5377371986842115,0.4836608194136317,0.46237448050896923,0.530224305261385,0.6539255519833808,0.6141006916427215,0.6031484531558845,0.6599079177185815,0.7985226136392191,0.7269980727630504,0.7026050259998587,0.6858413443155057,0.7370274347981608,0.7588047797221246,0.6936436535781533,0.6326051081341261,0.6345368694457604,0.7064636202632751,0.6067782037019178,0.5767400948807718,0.6132181385850919,0.7317514058652631,0.6702880368162932,0.6349420983704291,0.6113263655412103,0.6485319602806722,0.7218438007379414,0.5997313687674458,0.6075645623825414,0.6381227880492465,0.7360988586605804,0.6549861435960199,0.6017789534622221,0.5889039381951418,0.6416458400857937,0.6497244292824692,0.5882658649243072,0.6001092191016387,0.6510934340007936,0.7438430960437744,0.642886417875249,0.6650927495176399,0.6382657652389291,0.683879458960663,0.6750311219976352,0.6182178917379614,0.5929501927188998,0.6301074478398604,0.6607512995068231,0.5377384228451493,0.5744274535694789,0.5861576306409778,0.6748554757190054,0.5951958227851624,0.570117432758871,0.5326291585202654,0.6109515844242905,0.7470028503344618,0.5991585017716803,0.5695984563746868,0.5906699966227841,0.6409862683800068,0.7496586380186371,0.6354101419976671,0.6068641593515478,0.5874586998272661,0.6582646875125705,0.643151040490788,0.5326610292163523,0.5309186195005041,0.547151393559152,0.6470488930337198,0.5964784909886233,0.494374757663573,0.5861924597612089,0.623194897219936,0.7094191972041878,0.7348992429065621,0.6433883659486587,0.6591699164249284,0.6595054527699998,0.7259350445767715,0.6903856497620627,0.6161982262472687,0.5739417190275616,0.6339551612593349,0.6474824800324229,0.5717861208487894,0.5223562254819246,0.4499948517880108,0.4085187729926709,0.45341160212741716,0.47061335915358327,0.2895176355425112,0.4271331183616667,0.5830913767453,0.4969431461084558,0.5176776015786718,0.45163275521845325,0.3745461067277591,0.6129542074337643,0.6024561468143904,0.5777396785500544,0.5885199167732739,0.34929002745231974,0.33283126112085504,0.6338047192050372,0.647843809043232,0.5626408254875236,0.5140938823306558,0.4234541624380853,0.24496059137211235,0.4761830516864156,0.5468696231813646,0.46609739739838707,0.44157370514727357,0.44563887453178297,0.2682586203263704,0.46276686519603294,0.5753569441281284,0.521072867746361,0.5233940184069013,0.38129936016704935,0.3378455199161281,0.5855056644644914,0.5686786488535878,0.5227911658464347,0.478637478044605,0.2726708754019074,0.4467108095879432,0.6009564127053844,0.5062415547309139,0.45393024335119714,0.46811979953397675,0.2874173266332174,0.4349987248349887,0.5678897318698357,0.5151253238928842,0.5121866774851763,0.3835942540605852,0.28048273082512565,0.536780621838958,0.5654910459655679,0.5313110409711785,0.5179922836079487,0.31799018185554695,0.4609771022088952,0.6374247289609832,0.5812058897762168,0.5765471671579465,0.5375796510297876,0.32326572622702776,0.4909244930542681,0.6591939016352771,0.5736311385446673,0.5224990771625401,0.359917083346068,0.26536505136458,0.5384816506591592,0.5779927199547085,0.5199356289052021,0.4836213433151607,0.2781558151094844,0.3905700589984368,0.6225129334044989,0.5787168686726462,0.5389815613902486,0.4540981647245055,0.34676598856491636,0.5812992828346376,0.5827046305835949,0.5477004707489239,0.5385019336579415,0.30852861684920785,0.3784327060943323,0.635879833311724,0.5790239753548299,0.5172601275925015,0.4944577219361248,0.27337212945497946,0.3437751217757462,0.5809362644417231,0.549062875098486,0.5688734646341083,0.5894410261153994,0.38796061704823803,0.5203927408570405,0.6676140409604313,0.619870171668104,0.6228007818807176,0.46472921564220904,0.49569139995889744,0.6793608122780269,0.5871001621641502,0.5273826618574657,0.43296283603391206,0.37933108336386956,0.5504987520562512,0.4580847452169421,0.38514463197244353,0.38849724887325876,0.4708969295183921,0.4565499477710864,0.3990228678631458,0.3940931193714836,0.43778344800938174,0.4384337365202863,0.3763958794375639,0.3215416978271102,0.3085271124679735,0.32945333742873784,0.253367873020515,0.13774681878973227,0.019202282217917366,0.0,0.2502517492805716,0.3734018725278708,0.6281800539333612,0.8257241976488573,0.7160673699067005,0.6865599892506024,0.8845508489588559,0.7518348611027791,0.6731452312059963,0.6929357322792379,0.4993713516358085,0.5019068025165048,0.7130211040489199,0.5934010204056209,0.5899383791697269,0.7405097945088702,0.8006413987116398,0.7963134179186008,0.7707041394011814,0.785813301887239,0.9705271553717495,HB
0.9368722365111553,0.5361425637088155,0.3206659371007161,0.17220047141290618,0.2845327916933287,0.3119856614585701,0.4561823733169632,0.8314925687382537,0.8975324392692103,0.4903380685853289,0.3688212786689684,0.30527160339326587,0.4222118259957668,0.4459918084602217,0.5503389019005849,0.8832545134412588,0.804066607992723,0.4537264190419461,0.27270237429362254,0.15469609523509842,0.29703341579501163,0.3424198201121249,0.517690019888077,0.9138292695950216,0.860297010614512,0.48263016326222186,0.2963015794329933,0.30873257616067473,0.3262563676597692,0.27977001429887594,0.42338331377906746,0.8072030252915017,0.705101010617283,0.36110637857644257,0.21500229731355436,0.27466360333966744,0.33001467143263863,0.2515772334915485,0.11777581868670728,0.1522543489405339,0.146790842173675,0.29278756260716676,0.28186672777390465,0.16984857898341632,0.2296688371607436,0.1819625989123277,0.17657719135376437,0.2974834679727367,0.40806898305544026,0.478946327293047,0.28176499102346675,0.20647052595262894,0.11920824438959832,0.04220441548910969,0.2605801922732258,0.24470375449724102,0.386809849186728,0.35656101757824255,0.32088666279049916,0.20738038209897525,0.21700090294700436,0.25155896970158675,0.3155466162093341,0.3639430757541584,0.2204532821767624,0.18913729446461325,0.07883706880470553,0.15240293089198387,0.2942653066208494,0.38705153773727385,0.4890222012676224,0.33900615845369275,0.2953661313054541,0.21701718221515875,0.18056535146599995,0.2725206521072363,0.3383902965536314,0.5232717924699917,0.3254465607205783,0.24168980415036634,0.22881765949533062,0.11605964134310476,0.23165256067239248,0.1714447449220069,0.43047227856839587,0.3580069419312717,0.24927470784910621,0.25222873692568903,0.13302183293882797,0.22732532722293053,0.19489449772075274,0.35865978324822123,0.35013400981833387,0.2388919906951794,0.2253289769359359,0.1328609192323107,0.24608026190093613,0.21643477849768855,0.36182654656679514,0.34232628129341336,0.23884150653113467,0.24802080689397865,0.14617636617205854,0.2635411649695487,0.2830416976486556,0.5210667034612206,0.4023191607873735,0.19212627096765855,0.1063251760073034,0.0,0.008855947300727252,0.10267158838407964,0.22824921887794947,0.3793347289408766,0.5277840868051427,0.4503882265219392,0.2789447415600357,0.19380730541250424,0.2535398112232272,0.16492776667743403,0.3540994579514143,0.23002252431533288,0.23022087609155628,0.2687600171617692,0.1600253676881498,0.24917473763165576,0.2182561869872286,0.4226948128054322,0.29269036226036693,0.22137412550308877,0.24241730876440526,0.12494447743017867,0.21246972966621547,0.20331254015992695,0.4207896067448984,0.3716734983723722,0.23090518831373297,0.22349058683698209,0.12414895456700581,0.1420420080897422,0.19563692000940636,0.2999921600539417,0.3445717787858773,0.20306664873754388,0.42164823451459776,0.49791860511578934,0.26546263840229134,0.2508582425594277,0.3171845054587412,0.40503390779168313,0.3824254869218131,0.14030810938948157,0.06370242088455846,0.28374979868888683,0.23960336948543626,0.2545200681557027,0.13068796179696873,0.2608946277734687,0.37440584717581427,0.7377374499207159,0.6030029033199606,0.36030720554580586,0.3456176819791348,0.4039167245643531,0.28858806060696374,0.16226850294109507,0.380080815960691,0.7288142344623227,1.0,0.6383931862345964,0.46341629351007585,0.3209793703809667,0.47581515390902096,0.6389572675406776,0.42924792729181815,0.3596110956915277,0.7088149110615989,0.8465327754906795,0.4603037521962867,0.2937161437437448,0.22621125386963836,0.3275304206996519,0.33808307341387334,0.5237376625840238,0.9030425594381786,0.7176948208825413,0.4119664973439616,0.2654704657045772,0.2925679220712829,0.33790300985358224,0.3377628980691769,0.5178415845418627,0.9033669539961204,0.7108604889909138,0.4045322789012724,0.29435013604502025,0.3553355519389978,0.374186756404733,0.31441311086132906,0.48856454270491545,0.8583569637461728,0.604705220930247,0.410662895073175,0.3248811056028611,0.3779801032761152,0.5467557377840255,0.6522112060584515,0.527551859696274,0.730628667300496,0.7097827927005738,0.31569526884761334,0.15382789688751197,0.10653532157292611,0.2076211371786183,0.31052126438969285,0.5321173558154166,0.9276996353700455,0.8456906876051495,0.4774341337367267,0.2962603715205936,0.32555799660438556,0.35043836604721523,0.40325074835656993,0.7007089289412729,0.945437839013028,0.5674148724797394,0.39426017387024936,0.24778737108319993,0.3263775824284645,0.34153878615621514,0.42871291944226586,0.7692192887243503,0.8795351110295493,0.49549421119441206,0.29944106114698243,0.2923399085041951,0.3618537377769271,0.3826640167455748,0.600912033337146,0.8927005941674104,0.5669544309255352,0.3411822442798842,0.2360380078355222,0.344695080625534,0.34877842088719335,0.46436988178256966,0.8248784803200264,0.8736426393874841,0.4997545269225325,0.32477319556094386,0.3037439237859245,0.39682772913423525,0.4144149057780879,0.5765617942841099,0.9562134958056387,HB
0.9265022778821224,0.7361604913989139,0.8423296087572187,0.7308456603743179,0.7398298194358071,0.8240391990148139,0.9047941940127076,0.7292300991478586,0.7864875066025316,0.7074916480660152,0.7485290031321692,0.8600938278963435,0.920891777870446,0.7488905125153944,0.8158150789708292,0.719625923732353,0.7438677193221781,0.8470501406569393,0.933480474057661,0.7248072014834186,0.7999114082420773,0.7255567414839388,0.7197762165688562,0.7673354384283555,0.8570145809824501,0.673655852763483,0.7070042461825152,0.8289549733410975,0.7395952411696363,0.7804656209715488,0.8777259189702753,0.9596162130890509,0.7025934921622623,0.8396339287990391,0.7799483115519106,0.7522884479439744,0.8049828229949223,0.9552950038657775,0.8755590014556724,0.7413759614456863,0.7585803914821581,0.7038139274986452,0.7561159929998986,0.6486530230237899,0.27253078241374373,0.26943327982227894,0.41528478868528174,0.49464875060125957,0.3870035424331726,0.20964437922388113,0.570975012731473,0.5445739061831958,0.46362577723331455,0.4902105833726438,0.574605169842171,0.35317524329665684,0.5061775439746832,0.5864145885184606,0.5061352852982783,0.47229622256767056,0.5467588482747825,0.37633155118867023,0.0684290526215614,0.4554993849509663,0.5309919353499128,0.44487762933077546,0.4380315314503149,0.4948075039557409,0.40837241068819985,0.20056547477300635,0.5973789402833369,0.5835925855533306,0.4762184503112148,0.4439610331396966,0.5025475464706752,0.4842834720914637,0.11975094858595714,0.39901916349374567,0.5683873183335901,0.48511172844291073,0.45122513417891064,0.5218372372050966,0.2352330700780323,0.18263428673298598,0.5428568494393886,0.5092620981011216,0.4518768667716433,0.4846159072582936,0.5495899206139518,0.26219751460262364,0.5170863976725242,0.6179994579907109,0.5073000053531058,0.4603433681709821,0.490758933792788,0.5205171797396311,0.18347818794440185,0.4296173149009004,0.554381414536465,0.4632965405908438,0.41621177478628857,0.4924781991641143,0.3749221141459609,0.27628614607980095,0.5588423023388338,0.4973164673796582,0.4533687929828023,0.4566454593294522,0.5718376742053946,0.3677223027007339,0.5331565885706251,0.5779170535165372,0.49596890829578166,0.4754917331652435,0.564396848048498,0.3773677318156752,0.15145126686346844,0.5342535162787145,0.5403853645289578,0.43347998205754124,0.4358950723764905,0.5348938937663426,0.32958661392313626,0.497596945174799,0.5856480765266885,0.5077059379221756,0.5158022601169336,0.5659844741187348,0.4355646736255827,0.2835847574040353,0.6190437551332719,0.5270304764322482,0.46793123052632435,0.452325022582722,0.4984090148338911,0.3950886822154551,0.0,0.3341314931493917,0.5635297770793435,0.49816602582643954,0.45785402042498413,0.5250537723712823,0.47755092076719485,0.20701568537424997,0.5769152978223522,0.6208598037803457,0.5108446280748198,0.5005095131911288,0.5453625701292895,0.48490200211207757,0.20634999056531056,0.52641498098729,0.5600231376764921,0.4742518819609014,0.4466904523945643,0.5547918185749467,0.30374009391788226,0.12495722425388323,0.4979157594046182,0.5034057057401116,0.44973501361530266,0.47902967229176907,0.5214427552560155,0.2523800864389609,0.5722913333456194,0.6777724453890399,0.5165782676197632,0.46353274360224717,0.48516356195211685,0.5609809118724738,0.1837851343482284,0.15384681385708943,0.5526778878519809,0.5427774506701222,0.5708972746003007,0.7411227809997758,0.8585195444603753,0.8687749325489773,0.6768804916914357,0.8322830074022485,0.7375659653477009,0.726410044111462,0.7943791998362077,0.9399253219971269,0.8594535210924152,0.6910011539829433,0.8242385364736826,0.7315161998820656,0.7261407046161463,0.8100112920762337,0.8783362274616646,0.6195694529945408,0.7703114869170009,0.7685572477886051,0.7380463833916062,0.8112795189928215,0.947659198661492,0.8432404518141925,0.8047735899547601,0.8042964686551528,0.7703823445787181,0.8135856548339464,0.9332945868055669,0.8179970737921725,0.7430463690900906,0.775426569242216,0.7099708525550978,0.769273055627254,0.8438499594707838,0.6538081931572663,0.6835740918206303,0.7340717529119276,0.7166260527153221,0.767885883118244,0.8542704899658959,0.8865808861177533,0.692390077498378,0.8423413063118419,0.7712224064541986,0.7702346453757105,0.8384355935138883,0.9601507168826018,0.7589801807176664,0.7293286685041651,0.7515956841304101,0.6998662418370514,0.7630447995805705,0.857586371531252,0.71565348522652,0.5569575588349234,0.8293638539933319,0.7598830845923712,0.7583825772777435,0.8402575162214396,0.974622762506987,0.7470361608414549,0.7484945212974434,0.80970184233305,0.7433045089234462,0.7454470292860549,0.8697577394671874,0.9473515408999966,0.5865046305176582,0.7272765400770864,0.7327495950078702,0.7003993467681973,0.7722509842697316,0.8740495110771764,0.7298571388532493,0.5464427147331965,0.8209231007995355,0.7512672785789656,0.7515472419276459,0.839070565360561,1.0,HB
0.9999999999999998,0.9198511539950218,0.9786491959474104,0.880773725485781,0.8110252827335456,0.6672581735449972,0.8184942531837331,0.7803473636157248,0.7452785588476669,0.6627027166581556,0.646690800182476,0.538878526163822,0.6773723666117155,0.6351564268505889,0.6998947030633789,0.6455377466368166,0.6589902689641811,0.5750978383452923,0.7099389817509392,0.6673872399116345,0.6976599382681614,0.5461258820771191,0.4994262654156312,0.4199742058836158,0.62462642123262,0.7299584472546561,0.7158686414944213,0.725779435140441,0.7070721589817646,0.681637413599242,0.6775487449440487,0.6766469375038049,0.7247508539231708,0.7474765643617884,0.6990209460389079,0.6445988003389258,0.6465262519008081,0.6912401014620515,0.7368008393167209,0.8167010365657397,0.7513129341865359,0.7508919777824723,0.727831596774055,0.8101101088315057,0.7476427524361908,0.7596841498933371,0.5889947591916453,0.48847057203208766,0.34063889727218344,0.49234824376907693,0.5422334122468631,0.6728976681436609,0.5458303343427748,0.4800687450779617,0.49103128324437195,0.60768997192739,0.7412400912411223,0.6310744275235087,0.6564915577329964,0.6002505381565,0.6035766439149273,0.5224887152515156,0.6716335399708886,0.6555670982503801,0.7639000457867853,0.6578139456443151,0.5987512081303126,0.4980468006275096,0.5998368674231314,0.595815906092094,0.6971001550298979,0.5765586374093294,0.5686717896614248,0.4627954140977879,0.5788294642473388,0.6106039839009509,0.6926848488943473,0.6893255244715701,0.7731854159210962,0.6962751722966998,0.8095798190104102,0.8849490537114264,0.9225585365503222,0.9002696284000857,0.9021236165983109,0.7679859863082459,0.7910750123388788,0.7387235106411547,0.7795120520946022,0.729161365681035,0.6378069664099322,0.5917050671155142,0.6016131967791392,0.7824685504163604,0.7286665341875664,0.766318722256542,0.686361700994649,0.6577581489855817,0.636947077438407,0.7031404220838773,0.6563101038501229,0.6865995270491669,0.3635523571831769,0.2238851578581711,0.5188860253579228,0.5753379842074526,0.68930168120124,0.6768121388421668,0.6740021613623235,0.6513373576931241,0.35463415651319696,0.5800808929977095,0.8362893484694147,0.8287915889744284,0.8619800574005672,0.807980168731617,0.756941049565284,0.3923964550462453,0.37952773636626214,0.6885660426692481,0.6466430285775828,0.6384573345056295,0.5479441683792188,0.5508837444055736,0.2796361810322474,0.026574427520197563,0.3470337454479875,0.4933795919941082,0.5022452814893656,0.6335053915515634,0.5187001780309863,0.5304109619796098,0.2635797123264749,0.11031474546980946,0.43187264879200327,0.5544137950255124,0.6485071511669467,0.6558513097326355,0.5641420884066066,0.5432809984841762,0.20961579042006684,0.3115836381557173,0.5532218903308947,0.5483479754401059,0.5881517425198137,0.5658860851555336,0.6360258947187205,0.2893025415439696,0.04881263759574472,0.331857245305609,0.39743950421149865,0.5121205742898371,0.5881804547966529,0.45872773045478143,0.3480299458113947,0.0,0.14753185154944548,0.43769698637994203,0.5532261916447079,0.7091513667052289,0.6697823044809967,0.7333727681170334,0.45381045944992815,0.28366173365264236,0.6098873831729548,0.6958177024545302,0.7333062077693511,0.7068202486618131,0.5860946057888541,0.5988470006732978,0.2626631927513321,0.31191322556660483,0.6141392848246834,0.6183926812113854,0.6983375442871702,0.6006194553677748,0.62684708276486,0.42784074154973784,0.24313315680085945,0.5649329542297095,0.6467569414563619,0.661332434538356,0.6377148648313684,0.6481415604435161,0.5404022711519154,0.13443506111324366,0.0668684701922817,0.3934552019399038,0.4416772936828808,0.5905356955488814,0.6115630947139226,0.620178848377662,0.5232104102112929,0.18048507583036044,0.3493101656602595,0.5998742596680637,0.586022929166762,0.6258815552676644,0.5744226528666811,0.5831651197357841,0.2346681790729752,0.23639575714398298,0.5600996565297494,0.5902619151975612,0.6626761940552444,0.6826036219308336,0.7470620195736564,0.5121859852256205,0.33032371726790855,0.6650928965172935,0.8046044783628574,0.8857645902760989,0.8579302485194635,0.9011744686038552,0.8629823963725369,0.49700622486219337,0.5642151288314747,0.6323935489561343,0.6003376757423937,0.7250626590367382,0.5558078959531403,0.4994085370318415,0.32108450656653575,0.020779490396290123,0.2810996611664449,0.46167005646121284,0.567988564538489,0.6128999061608777,0.6104159884485365,0.5326261329209758,0.1827877863367271,0.3487023778848204,0.5956224337700087,0.5958530342392503,0.6295656431037819,0.5850243473812062,0.6817476380325156,0.6495405050694585,0.6953158675662678,0.6542497410219454,0.6598189177884339,0.5839788614104326,0.6977989888264127,0.6579387803204979,0.6889128116029506,0.5637710665477906,0.5187454426537106,0.4972417025738076,0.5683594868212423,0.6401216366361602,0.7946598591003473,0.672268678608597,0.7135652561337602,0.7839808945067797,0.9118736178399198,HB
1.0,0.4932232748937584,0.34771310907494524,0.280823911236201,0.3462666821061058,0.294764439367313,0.35509825186944344,0.609002582178674,0.9085373719731833,0.5448178411807345,0.29690118129470466,0.23592312311872154,0.14168070125866672,0.31737225052287776,0.6798236317941115,0.7000104902957403,0.33270308757450584,0.2171462905703736,0.1381530600570562,0.20595080776630015,0.3708721336615186,0.7227790907282485,0.8269995920157656,0.38124628927007853,0.22940384307457728,0.15956163794323164,0.24603563709511445,0.2686008385586214,0.4288119045075458,0.8001857705496804,0.9232452902941599,0.46968941704002454,0.3144702138868989,0.29150302275885,0.3479263120671141,0.5651658550152807,0.8405828935321833,0.4747366817040395,0.22665004490802287,0.12779159638874837,0.1317249044939408,0.1606644102618433,0.3396987157980025,0.7192722114083687,0.6526492615698709,0.30602668126875443,0.24269012599267903,0.20502493996170967,0.28766320450037464,0.45751875751621984,0.8296286373848307,0.9084906884426309,0.4548078456903468,0.28273486996198116,0.17685764194536313,0.19652893077380984,0.21117136840392225,0.39054547310866505,0.7554303092201287,0.9146381447923835,0.4808260122611685,0.31402273226917865,0.2848819131500018,0.3281803079712917,0.5530972523170616,0.8343480309837936,0.5194570053011995,0.2857357514979286,0.18747673603525028,0.21556431822646838,0.1931528369521578,0.4771828371942046,0.6973225427779921,0.3659423942861295,0.1512375406002211,0.09582714178075724,0.09328376261289595,0.13302359636329442,0.21515352145061994,0.5147910903062467,0.7194243691907976,0.4100519385903598,0.2226435227732977,0.12818650003778886,0.11558266410508722,0.1643547228923028,0.226019629626105,0.5545299893638584,0.3319503693477466,0.11712902355836974,0.037785670503942104,0.019304377829299835,0.11397631407780473,0.19630352824615782,0.5645306267615906,0.460870508460991,0.26878370343155344,0.20022411796628248,0.21388859275651484,0.23336509038673325,0.6041819942932642,0.58719016654176,0.3132254407556707,0.16276505401001495,0.16035729922853426,0.04284090877909508,0.1287965140592342,0.16966908152805704,0.5422927309043497,0.5218463553141102,0.2680127420100109,0.10870402188956252,0.03682252305725742,0.1296184742509019,0.16882465125879698,0.4515370982571745,0.4757206152064999,0.20000745931219477,0.01618315973701634,0.13419155481031497,0.15974592471442595,0.24208672914234475,0.6336740834722896,0.5030237897538172,0.2732673073339389,0.20518053796058044,0.25608887206800635,0.17077474817911575,0.24422390601861954,0.28159638948095767,0.7087897981545068,0.7479237141962445,0.445242490437451,0.2527259445084118,0.03694957683146294,0.027037081248067363,0.06459353382219835,0.3697760721828556,0.543857194487467,0.24736721972917897,0.09551890053694434,0.08655053431418347,0.13038901797653368,0.20738610559567716,0.3808236871889945,0.69445347092765,0.4393026440241723,0.2468386470971713,0.1402660057158629,0.1701111768392538,0.2007907638031421,0.5521806560665325,0.5603848401560416,0.29603723724422126,0.1928871669602823,0.17284723187084383,0.15752799796765737,0.27589449121917786,0.5386092328487435,0.82400665208361,0.5042629416774616,0.2827187049011717,0.15001968281265166,0.1083555844352122,0.18279110854431524,0.2396179735151991,0.6031637348004981,0.43652307546496205,0.2169696111522974,0.0920376441422448,0.11475348390709295,0.07133812973524911,0.37306349411331174,0.5205487395516881,0.25603769399465914,0.11000087475954334,0.10356238487834313,0.07950199903040822,0.13485723227117496,0.20877819442572765,0.5095488469253677,0.6153931729275044,0.325170585628503,0.20145416795172455,0.1543453905786505,0.1748482620695211,0.25145410641533905,0.44574661236202884,0.6824812482616665,0.36934607464025815,0.15750765007499234,0.03112417149778235,0.0,0.12144069068277474,0.2629016040409855,0.5023867109030453,0.9284943694537735,0.7838847947927161,0.3946780647264827,0.31785896064475105,0.23958470610465055,0.2729408056425595,0.38699392317008696,0.7082949725713839,0.8714759906633684,0.45075828960700237,0.26627146578396177,0.15786487043398578,0.19668528416100228,0.18620753890131292,0.3223951629335886,0.6544931384896024,0.7525054393302781,0.32937599893499403,0.2181117413809197,0.18160686700859952,0.26223198816200943,0.4887633900194124,0.8697705790461061,0.6236025796144045,0.3012296240561336,0.23323284365274866,0.23546277217028289,0.32856628251603714,0.5336841205751015,0.9504804133618623,0.966673206783669,0.5067293538851172,0.34855606969545194,0.2531664444140591,0.2545873668679217,0.3304570415207557,0.5278726598067207,0.8809310309581089,0.5928135914975692,0.30052710236571967,0.23196435404826943,0.24220532721771315,0.4037416019941822,0.7141433306712792,0.8757183942989175,0.4596159840586833,0.2944671642492329,0.1854511323573722,0.15090580645197615,0.24139405638037914,0.509790489359617,0.8140558947089751,0.445911062677677,0.17770593849990846,0.0856869840781509,0.18024916896119514,0.3890557863063133,0.5790645936704637,0.9748274709485845,HB
0.9933415524277853,0.7952365956305343,0.7332098783371999,0.7191176525964613,0.7347671926869608,0.5523093549045996,0.8256019126562881,0.8446302608430871,0.7700766511694193,0.7318292396292634,0.8204137077260283,0.6482646642949506,0.6988994193529683,0.9279929817094539,0.7967743165183552,0.8258414695742928,0.7812089215783629,0.7617138576933553,0.6139939580827398,0.866337231680379,0.857079448095766,0.7880746347642962,0.7296227900924133,0.7805335007250096,0.6793433824494663,0.7973662343087278,0.8982246987378146,0.8352853075147886,0.7635713239170343,0.8235088573726097,0.7099059933540752,0.7841248199649438,1.0,0.8648346328479675,0.7986748168310802,0.7503834470185193,0.7993373750445532,0.6050046832597116,0.8124165789252689,0.846767677477954,0.7755331639452949,0.7236752176631425,0.8169860996591076,0.7218480809489047,0.7610566118192157,0.9323436216115262,0.7520942205477068,0.7837461023981009,0.7289975998092333,0.8367329651474105,0.7762096788180934,0.7711629162672735,0.9567962877292389,0.8680967477489596,0.8475482716664478,0.789401464324452,0.8604669723036729,0.7167931033008459,0.9256743244029502,0.8926566396815336,0.6696172000676144,0.6643396873682301,0.8162907249636455,0.6859168170088628,0.33957025719051503,0.4788485784464951,0.5941450561007093,0.7402478148978142,0.991306695062645,0.8839367607543318,0.8571549015769135,0.7430652753255611,0.6542526900707271,0.8845265625670571,0.8229578972748897,0.8030147680233521,0.7452808741395902,0.854455351224003,0.6544515443061236,0.7430543340591909,0.8974317108952099,0.7996916356357784,0.7517778006865323,0.7243723970137672,0.7780645057320248,0.6699852773295494,0.9297143587655139,0.8799271593790396,0.7602944010425667,0.6992824953565204,0.7943608338668633,0.6610546448067072,0.8069526313550721,0.9311408465539057,0.8257642898619513,0.7991748186003447,0.8102670608723646,0.7712065465449385,0.6883731440303191,0.9278357475492975,0.842356293371175,0.8221797220573817,0.717741618840944,0.7941723399961744,0.6994559113956307,0.7610424633422372,0.9438044908735241,0.7935940368418417,0.6693252827054548,0.45517216811208816,0.5021228584171551,0.5313663323386864,0.48495955064698304,0.3121386217066586,0.4137432064784623,0.6422100863691305,0.7491299655175445,0.8016649733733545,0.4174048673825914,0.34070060512207645,0.6907878198699431,0.66314739303946,0.6708663542454887,0.7457997728727253,0.7953185470453059,0.6534533734023418,0.2605879684369101,0.45854788346102815,0.7347976754793235,0.698733488429504,0.7495261106115292,0.7792159943823616,0.7811803458901783,0.3750379674056481,0.37464162559564884,0.6937957804328787,0.6253027552889578,0.6631001041568476,0.753121440620967,0.8187707600783138,0.4589214972033693,0.36284433425219187,0.6795595752057273,0.6461633327809311,0.6831130749510101,0.7212411571066841,0.7952656733355683,0.5966763744088746,0.2749617722892217,0.5462029745962729,0.7766201333485196,0.6605967469027181,0.7192141045859921,0.7467824337642637,0.7357819126571985,0.3475781734387944,0.3318686667536086,0.716826078483702,0.7705095141618474,0.8549867097624122,0.8375499056114317,0.5278400255571387,0.47420897157255903,0.14722719311675414,0.0,0.4266294783249398,0.7335604611161464,0.6542518465321316,0.542921788092456,0.7237347111490542,0.8384161617403638,0.503661067852881,0.36913645298512976,0.7236688503903974,0.7333156592653189,0.7418138001466028,0.7896209486101795,0.8362362720966416,0.5502689223404875,0.2821572053920167,0.6246941935454924,0.7450986192037212,0.6462621751313113,0.7000567685549612,0.6649680425368008,0.8029938264923691,0.49327293141902717,0.2729798883767234,0.6311114369509305,0.7285013428777394,0.6464618101258786,0.7047336740113319,0.748574563645815,0.5459890732084329,0.24124680163463497,0.5504531894561431,0.7222299687570235,0.6746726159633933,0.7628371937304856,0.8404565678373377,0.7203182961244459,0.31069266647768434,0.4660288228186473,0.7535837785262394,0.6905545775456217,0.7435655744728766,0.7906619998806153,0.6752869062326909,0.2645815619639844,0.3958754804921545,0.6959182865661258,0.6516116151496452,0.7123344592036722,0.7305639212510666,0.773296420830107,0.4015743367245339,0.29095299225988835,0.6430500955396776,0.7054848388827246,0.7526365612339858,0.7147481616851887,0.7849630791060056,0.4555390557355792,0.2651394597496288,0.6317134719549713,0.7251822345221768,0.667352708699974,0.7138032806984174,0.7710977642337506,0.48275154929387565,0.23757028348077225,0.5700943074788809,0.6676121219293076,0.6239703557435747,0.7030345983705146,0.846852880089124,0.7726022608146312,0.4082094266612153,0.6320120277804735,0.8788918613880248,0.7744239788136396,0.8387641083067123,0.7947209553400825,0.7458896067839338,0.3653464328390146,0.2284664368608902,0.49964492673303207,0.5750085086991708,0.8575935168040458,0.8697050245625775,0.9142880306363588,0.8374055906542885,0.9541667095952939,0.8315819567136811,0.8844911121694161,HB
0.8404615931864305,0.4164259764807383,0.6214973243462998,0.8011732813330954,0.7538261510158937,0.8177436070712982,0.3732877979606899,0.5359216670754825,0.8062654323869625,0.796192675789392,0.8287450872977127,0.4948348065577157,0.6312364680768296,0.8675397270491794,0.774230462048922,0.7277284920874463,0.46913005747287917,0.5142828236454893,0.6465325912415607,0.6537422049138288,0.4764455992138079,0.5191392546248794,0.3970417616727522,0.5567840968101354,0.7923889030876006,0.6735895942845933,0.6529144777215281,0.4557844404621232,0.5998112805279674,0.8487001072443197,0.8354580719890006,0.8253967170149306,0.43265241113578723,0.5147306266617959,0.7464932501126236,0.8290907769494149,0.78640373215767,0.40142092764395665,0.4387726531955325,0.7181209233136316,0.8349689323529073,0.856114963084806,0.4587546803817366,0.5480921415132642,0.9126537464936448,0.9388301125457699,0.8901931069367643,0.7075867129371751,0.5697037909438416,0.6802328828544413,0.7841448363656593,0.5332025918485575,0.5990105429538315,0.36415055100071925,0.5175742416261264,0.7557847535730216,0.6408922836236082,0.5635673635400122,0.4491155297136227,0.48420093748801607,0.689113929409626,0.8763963328143767,0.9092473996754302,0.5162441177403672,0.5167627832512833,0.7914938722743812,1.0,0.9728115954915584,0.6923878874623894,0.4737065789134638,0.7021308252252534,0.9643912997107278,0.9757579892836605,0.7482911096346987,0.48134672933393796,0.7011209992057057,0.9359836500885041,0.8519806271806254,0.6364620743253777,0.4735513848526325,0.6440546493558448,0.798065860087001,0.6410948286046443,0.6002309205531753,0.4397153401112255,0.6292210581880324,0.8280240519679043,0.6750540280626627,0.6767323145082869,0.5749475549225167,0.8043159258497892,0.8249242359094251,0.567462641786113,0.27061154746784366,0.41739566627637137,0.1172047965193248,0.22920090264954407,0.5802493651973868,0.398449248285615,0.259465913006089,0.21304430218839832,0.3170702166827182,0.004937588941606119,0.5103315411028944,0.5677347894726577,0.3910073349984322,0.3024307703640896,0.5494731326149829,0.45414015540526176,0.7816801378719278,0.5832272437571988,0.30979083570010646,0.4458555308366918,0.6017301182887564,0.5014583817239746,0.772466597920487,0.5131302333618724,0.2477552456584604,0.5820175673631018,0.43733202057258147,0.5924792931460674,0.8147716583914542,0.526281987578078,0.25939520303076424,0.5851437622719291,0.36366060308591885,0.5372742756287234,0.5905355552928531,0.32658068225504744,0.1755635464612113,0.3468235929684451,0.019825840756027446,0.4196757601869989,0.4261109908640184,0.2224055878974287,0.13241063568128109,0.3045625682878912,0.0,0.49081639546493916,0.5716821927355862,0.3940366548817247,0.3942579191078037,0.6172074691370741,0.5581382584585914,0.8400204470895414,0.5802754132988901,0.22726178524238572,0.48291162515831054,0.30008865160341847,0.5116872866273017,0.6086207130175567,0.3113635403438675,0.15381310299222406,0.4606997104904913,0.20350161864091154,0.5871633772542872,0.537647520275887,0.25687338302586227,0.38992676210883825,0.3871356347450079,0.3609214435339734,0.7686041216340391,0.5398459554763688,0.333103700125974,0.4024931096268367,0.293340200824058,0.28900781022988786,0.5592280100386078,0.29911823321967823,0.14969133519741806,0.2210310581897601,0.16395577489946467,0.1877331945076608,0.5171425328951287,0.31032745204029233,0.24459620528602377,0.4225348527654029,0.33860345969820704,0.5846037765915293,0.695415730818183,0.4405593328892907,0.3230061575568244,0.5546231432356379,0.36704019705688307,0.7030692555856812,0.525387760574819,0.19784485884198988,0.3892421305922005,0.26453733737771623,0.25311123200750263,0.6722370820257675,0.520399700112752,0.2125278085384683,0.48746695916096927,0.5083983383695392,0.4828946770503375,0.8035072735180728,0.5586177873499274,0.20022682720257912,0.4422091632419538,0.5404773627595247,0.353354876495497,0.7004769506120248,0.4766322191301504,0.28644857546319225,0.27263578956084755,0.2761131330453348,0.248698104340213,0.5430874106936012,0.35199627465684147,0.20562572493910736,0.3873771770501695,0.15574550464628967,0.5347844238723538,0.513552723953794,0.3132474212570089,0.36126890694528857,0.452071471161303,0.46879559220275535,0.7132092268312569,0.4379168456396023,0.17199883686194983,0.4987298910600342,0.2480559231053312,0.567251898011436,0.6914944166803045,0.7978083236987188,0.838094446252597,0.8330798614501411,0.40560790569626537,0.5392982065869685,0.8098687921389209,0.7930704848688452,0.7947373092175134,0.5311502340317489,0.48538614909937916,0.7116035229968105,0.8602602684242351,0.460433898175288,0.6493201923621519,0.4610209486427155,0.5395913666174454,0.6800132660830678,0.8557755016508355,0.6675617862084673,0.6601853565987832,0.44818993549947406,0.6227288470294989,0.9192488791741091,0.8947714799959421,0.711645596025662,0.42955990466502536,0.7062268784984496,0.9490895300648958,0.9698350305997274,HB
1.0,0.7060566826905261,0.6135617973984668,0.8587583532037657,0.7992939827713612,0.8406365138612575,0.8788415673018879,0.8438071451242015,0.8320608829664802,0.510048133666956,0.32055277096880164,0.6266341100052888,0.740660049547968,0.7903739970872701,0.8714570040658238,0.8775405306984669,0.5718913955516078,0.697575737003169,0.9190494743008841,0.8805390815252951,0.855374223505408,0.9003256870277541,0.597473234966033,0.5191352936778197,0.79920479834349,0.7701638048657349,0.7051008448623559,0.7935716004776885,0.5887474963895647,0.32236561436982547,0.6194276965555101,0.8114032909447872,0.8119850844398095,0.7586127327473058,0.8445476050513927,0.651626754718803,0.3631102782374649,0.6441094014650341,0.8630281563495135,0.8205410133370177,0.8761881793022639,0.8613624200255596,0.5198803807663177,0.5350543590363348,0.8312534153126248,0.8208027772266935,0.7677340446770231,0.803704339577302,0.5513654512376487,0.46488431817083553,0.7465722652520403,0.7716773394468641,0.7357554876493317,0.822958662731051,0.6223113946696406,0.38155705251983885,0.6745265475884004,0.8548346148009451,0.954704502451819,0.9403880857422144,0.8471228084929088,0.8997998483799627,0.729435535580742,0.46485294723806114,0.7212639651115609,0.8613393399292688,0.7750884270214338,0.8053876032453284,0.6739864687653763,0.3634807767678254,0.533334158656724,0.7665695770173895,0.7821573656140757,0.6877216704215317,0.43056888335254606,0.0,0.0877374158885853,0.5194206906034715,0.719631424878441,0.6579870721108734,0.750488293942726,0.6413617731183605,0.22155797181853343,0.18319405840190406,0.6094648885404657,0.7999482091609948,0.7622315614726078,0.868495887975145,0.8581100428962116,0.7598751521378351,0.5025862576913691,0.06802292120532849,0.13342557370801078,0.5768261450637122,0.724949934304687,0.6407733044267048,0.712935099052721,0.6047066898797555,0.19040930954221214,0.03286648314460483,0.4388396250582385,0.7188233068444345,0.6798543656034426,0.7107087630361868,0.7738361816606321,0.543521418304733,0.13892033971607098,0.2820651917923498,0.7020878430028186,0.802831820960306,0.7444320501887354,0.7844979877964626,0.5508605845111205,0.09197586901899957,0.05077804201555236,0.49746493716411866,0.7594430919991055,0.6758110143040998,0.7326895814057712,0.7372388122167257,0.5440719797307021,0.1220431948096421,0.1036825401178687,0.5318773936575671,0.7177339700486125,0.6273419883794591,0.6933232966234373,0.7172915099067336,0.36531369674422565,0.14546980716702684,0.5136242730543541,0.8158806983516897,0.7653885499989319,0.8088300247122153,0.7804473161916134,0.41323630903519737,0.1410400117173316,0.48483324656821125,0.8212089000428358,0.7480077138954133,0.7107801052716674,0.6483933073336492,0.46235838760264025,0.036636301968793195,0.07218800739006626,0.5254978829543726,0.7890356690163176,0.7291661598883745,0.8007883118393586,0.7268425549340787,0.7400371241044001,0.696084955686878,0.2952737216439245,0.2851110007178934,0.7172053003389856,0.9078567896305612,0.731790301830979,0.7331894757654034,0.7023734846925,0.39628439883982836,0.060419842012045644,0.3391627000351063,0.6908395987893947,0.6693731492335091,0.6601172262152812,0.6960811320138118,0.432125640446845,0.005831687500748806,0.1158280241547689,0.5653082413716324,0.7276042745618521,0.6714723680404393,0.750772532675434,0.7663627731807969,0.6910062533775265,0.3085724042345881,0.001697388673436051,0.32226420455352,0.7099734422495705,0.7391540535064338,0.705676563445619,0.7620644922208608,0.6182221760981557,0.19013698077061392,0.012717567984305678,0.41685380833331487,0.7609503187438131,0.7140732751567047,0.7146262278680704,0.7334550213335214,0.3870060525510475,0.012564821072430399,0.2315712875134457,0.6612615959602612,0.7478414575108534,0.6813180801171428,0.7560883406660979,0.7635062588906989,0.5545912677011742,0.12298846575849898,0.1615653049060728,0.6032030178365007,0.7744107205687896,0.7005947780566173,0.7645110599135965,0.5620508516983493,0.161134170749615,0.31949324271576995,0.7271677468677102,0.7204383383721602,0.43810723017472064,0.6800827945822763,0.842801851838227,0.7803512932522412,0.8495612172161333,0.74006373422059,0.43887744918665406,0.637015076026431,0.8337796987127859,0.8339271901643568,0.7636863312205942,0.8487030143161127,0.7769575425780895,0.4518356400437986,0.5906320531672824,0.8376821528339844,0.787642907473362,0.8013768113268565,0.8868473383854716,0.6283389874293019,0.44707825128329337,0.7484375002891617,0.8208343510334819,0.7821057220425047,0.8317707953592921,0.6316317246573921,0.3936638921609068,0.6865188649146958,0.8375853227515062,0.8378632717320453,0.7579470947700615,0.8056062442564629,0.7303957649242743,0.378242145328181,0.45433300813001165,0.749163487611797,0.7773852729103199,0.705209947784849,0.7975366577487564,0.6636377981414165,0.4329653255267121,0.6913526684381286,0.8349518438487182,0.7896193137025178,0.9273410672650124,HB
0.9635127410987396,0.8897284260025484,0.9434453586014999,0.9580264171452992,0.9267149187526498,0.7356593023433577,0.9108936172465951,0.878340245777314,0.8935534726835972,0.9721601178953725,0.937476324910141,0.7431543867905004,0.6878965830543693,0.9408958138881645,0.8777406371365555,0.9389540775611469,1.0000000000000002,0.9052608565403883,0.6761710374332577,0.8683569120748793,0.8800013868270458,0.8850120587946095,0.9461324883025866,0.9472562637722477,0.8435437912173047,0.7752109868897417,0.9298009379091481,0.8723023871363516,0.9340252603482082,0.9662567418036871,0.8461225575316311,0.6506312560804566,0.922561921445493,0.9126360042106303,0.9027645312116113,0.9756303261746686,0.9627088344708865,0.8615577305991458,0.9532576685532896,0.8829986477712806,0.9157550775763228,0.9644680470541738,0.9535211738375862,0.8065546798305181,0.9138360427318692,0.8889834423485505,0.9167600936132587,0.9564664283035331,0.9462125852890091,0.7339455995851847,0.8677132991004173,0.9010519539057043,0.8942992130408636,0.9686048116174553,0.958300743578367,0.7169668639599431,0.7252545638598404,0.9725763953119386,0.8837124697977841,0.9309784002927246,0.9820803831167686,0.927518708861464,0.6840821000023196,0.8292548969151106,0.9424615068454709,0.906325577338553,0.880780208099569,0.8475399379571951,0.8276269392541902,0.7632420157466757,0.30709856502978683,0.12611147541268175,0.5709884525768105,0.8727355258998177,0.904180970610722,0.8436005599502938,0.8068355372000051,0.7702654081124527,0.3135709299284255,0.0,0.3811999530971091,0.8204249990403996,0.9170689442656308,0.8495804021291675,0.8031157217723963,0.7535850037083207,0.3020790416210084,0.024787777279042356,0.43269655785380423,0.8304056385971956,0.8921132288554856,0.8430134376437415,0.8115909630108342,0.7458501501256076,0.289230679546838,0.13245294357857085,0.5889199263502647,0.8753381770950373,0.8830863814163747,0.8127146417780573,0.8186414631744323,0.6365824490815768,0.15416109204426753,0.1622979007439853,0.6186761393111078,0.8895407215697408,0.9067131917824292,0.8350347906592457,0.8382592060829908,0.6343115918645408,0.13852518360701072,0.11350517691334905,0.6036423703079166,0.88012238997155,0.8908461221470614,0.8214913641664625,0.8149980745178669,0.6098808695572684,0.15183191794712658,0.2611592325637868,0.7300418966826994,0.8813856869074803,0.8509074355793567,0.7880736472456775,0.763921518431993,0.37042315287655536,0.057068628962208434,0.4329466169467322,0.843282077410336,0.9307310518748719,0.8533198525611441,0.8038122824009462,0.7069507474117038,0.22775090530218933,0.021629026354354597,0.46637342663742576,0.840128508621681,0.9057616383058942,0.8248767909207395,0.807119224036972,0.7047615802278544,0.23751762142475896,0.16694935031709401,0.6362443134128171,0.8735351164198459,0.8783467982138251,0.8250644198115611,0.8333743304585488,0.5395598505534767,0.09830649216140563,0.30009272359187644,0.7746076533652391,0.9299934395285543,0.8939086924280415,0.8310610385849955,0.8329146975500377,0.47497836166147267,0.03853265964005059,0.25890173169920483,0.7409283953122665,0.9030338441135044,0.8739592476402713,0.814112974148941,0.82465533181458,0.5280148398118643,0.10884857631163047,0.34908027038334555,0.7896092557373902,0.9035767690703314,0.8620286481794575,0.8076831049892397,0.8094763405529541,0.4317435133458907,0.07603966716213506,0.40893860215989575,0.8250079606102896,0.9222037248329091,0.8692160064011685,0.7973318573908517,0.7994927223978119,0.40908822858659954,0.02118573628755871,0.3149692338046284,0.7599763410569913,0.8944572648461906,0.857345197831499,0.800597691547783,0.7974916360334652,0.41255003264304024,0.1156208842496611,0.48567032876971705,0.8442131106757793,0.894010279818737,0.8409382709923603,0.8151247367915728,0.7175769387791926,0.29596280764932104,0.09716653639241368,0.5052160777858685,0.8522711844766533,0.8883774939985483,0.8340011785297248,0.8286428870189708,0.7306796226747834,0.2508487732777893,0.09504801352475734,0.5575633069466865,0.9029153373965972,0.9899842978813174,0.8719221287640082,0.5972417483693795,0.855660488626097,0.9397033998737527,0.8923429697396046,0.9474542230999565,0.9562051727532455,0.8417932644653618,0.8404482941990612,0.9180498917280444,0.8837155161646668,0.9407582462542907,0.9678380682594414,0.9077775215051409,0.7713212667283671,0.9325020768882617,0.8742465163727016,0.9172403603741419,0.9645438829279012,0.921545694907073,0.699924240650726,0.842994585782739,0.9243433554410976,0.8844833808929236,0.969017769868018,0.9786711443561582,0.8484515132455377,0.8668243622333771,0.9182048234242159,0.8827022797851052,0.9505583127786743,0.9694505045247104,0.916979502112149,0.8925701859056734,0.9140811185261606,0.8970304721836626,0.9581398393910694,0.9551866802256106,0.762831834920976,0.8122904633968042,0.9595372186537372,0.8988879951923934,0.9626838434401865,0.9914608211929388,0.8840226143540406,0.8849655486017609,HB
