0,1,2,3,4,5,6,7,8,9,10,11,12,13,14,15,16,17,18,19,20,21,22,23,24,25,26,27,28,29,30,31,32,33,34,35,36,37,38,39,40,41,42,43,44,45,46,47,48,49,50,51,52,53,54,55,56,57,58,59,60,61,62,63,64,65,66,67,68,69,70,71,72,73,74,75,76,77,78,79,80,81,82,83,84,85,86,87,88,89,90,91,92,93,94,95,96,97,98,99,100,101,102,103,104,105,106,107,108,109,110,111,112,113,114,115,116,117,118,119,120,121,122,123,124,125,126,127,128,129,130,131,132,133,134,135,136,137,138,139,140,141,142,143,144,145,146,147,148,149,150,151,152,153,154,155,156,157,158,159,160,161,162,163,164,165,166,167,168,169,170,171,172,173,174,175,176,177,178,179,180,181,182,183,184,185,186,187,188,189,190,191,192,193,194,195,196,197,198,199,200,201,202,203,204,205,206,207,208,209,210,211,212,213,214,215,216,217,218,219,220,221,222,223,224,225,226,227,228,229,230,231,232,233,234,235,236,237,238,239,240,241,242,243,244,245,246,247,248,249,250,251,252,253,254,Target
0.8123624661147542,0.9051442476465104,0.9797093157838312,0.9147084541532915,0.8071623921069868,0.7316743243759332,0.8142132893540079,0.9326549578310299,0.9822583221018393,0.9703444487823236,0.9536559336539363,0.905502114492613,0.840385856161523,0.8472049907781685,0.8956720413349069,0.945597788409263,0.9375665820094303,0.9301017313316717,0.9164975667445314,0.9006779696894336,0.8708054529119096,0.8208877595535391,0.7569512160559158,0.6757448814398614,0.5861152702412111,0.49015490624818936,0.3987061791311901,0.3269062714829989,0.3539274562457675,0.43875941170232213,0.5307168624343395,0.6230252511497278,0.7002030452674646,0.7758609323280425,0.8845477235084189,0.9941991166333115,1.0,0.9039795625729536,0.7853717249142815,0.6535967494002533,0.6267067280798906,0.747417925632309,0.8697351615160418,0.9449212924496764,0.956979336933848,0.9495746055058514,0.9170474630609045,0.8464368591455425,0.8103482662775812,0.8549709315270642,0.9265639430003572,0.9361284050294079,0.9148233016142093,0.8960638310743789,0.8528138013053916,0.7769748279792084,0.6952018062587926,0.612225454463827,0.5148555419176724,0.42675112237348944,0.3835110439655409,0.4401855912627535,0.530995066477475,0.6184167714144033,0.7014702334306722,0.7766900632109754,0.871220906947562,0.9729724020964592,0.9846797711314657,0.8884653152931996,0.7590514394332062,0.6234644404974823,0.5390232493006173,0.6282443958204511,0.7601659081773464,0.878826023827143,0.9381033628049598,0.9398848795451507,0.9139497126796803,0.8482982726152306,0.7825271974491308,0.7937622675446669,0.8624848424902276,0.8932815193275765,0.8795174212088464,0.8640792256465919,0.841899746943811,0.8036827280181758,0.7573960924123897,0.6841781716991298,0.5954150643078289,0.5097785610400809,0.41882791873979075,0.32035423354718784,0.2776165119352232,0.3433956163444827,0.42990430682883574,0.5166659506210762,0.6049482440103553,0.6810356543032197,0.7656909946799351,0.8719855291002951,0.9179118529002004,0.8439567750323422,0.7329179834869008,0.6095816496692659,0.5957112944472045,0.7211658220551906,0.8451882160134625,0.926285462441971,0.934358785750637,0.909234810389973,0.8660481359467065,0.796328283399959,0.7810013174307406,0.7876279671419373,0.7204545994630225,0.7088912280285542,0.7796075270002212,0.8357965549486988,0.8595733900605986,0.8321939925496298,0.7511561070805599,0.6207410674456035,0.4876636390759259,0.3477147289845477,0.2133607479140105,0.08044741577632131,0.06431041639205315,0.18388979958699814,0.3201805084775642,0.45538203522218934,0.5883598766661993,0.7163091381723494,0.8075254595193604,0.7535077108017671,0.6598384037286262,0.587600374049416,0.4999372966940885,0.40811655450255024,0.32458993448217655,0.24413207010310511,0.20950422297823046,0.25971663460481764,0.35278857365929595,0.4429098502315929,0.5322201342204789,0.623928055590826,0.6933469476497627,0.7439146958037863,0.7867432391554696,0.799279991522504,0.8070838182062925,0.8241055883659625,0.7656915139529907,0.7114888307063723,0.7042433312000358,0.764370105222226,0.8392201807329718,0.8681654622132511,0.8681966377576682,0.8275775944408714,0.7058558226159497,0.5715235090427635,0.4334808810557158,0.2949161550934063,0.15684969664273574,0.025482194682153736,0.0,0.1254797002059389,0.2698993073061824,0.4044652763196357,0.546778394982582,0.6788144464388939,0.8042019577244135,0.8792877483897277,0.8148387672000554,0.7239057959189434,0.6464197006886159,0.562857178893962,0.4744625972057097,0.3817484188159055,0.32212222668157375,0.3258275818942362,0.4009040681442033,0.4971112524335397,0.5877273789645932,0.6686153592717514,0.7559600553063235,0.821594146631428,0.845750444057285,0.8659330893383843,0.868878968175546,0.801240759989108,0.7467269243125441,0.7426694286202453,0.8159301317182881,0.8797215704074097,0.8987319583561115,0.8746184373102066,0.769927572871457,0.6396977107320967,0.5062250319623649,0.3666554645943787,0.23114395523953446,0.12372366909436838,0.17621148602033276,0.31023715748928904,0.44464916099938945,0.5813132103540637,0.712784913014203,0.8363449696833993,0.8762258278564476,0.7844977031648224,0.6884657345557215,0.6190382306096582,0.5348276576815594,0.4376057719129758,0.3499864094280598,0.27686545178693756,0.26672761119979205,0.33197824556414446,0.4327469799237784,0.5262647701320136,0.617333213186094,0.7035173887812967,0.7621408717091391,0.8055375541992631,0.8405694546081692,0.8468864776680207,0.8466814196868726,0.8617567531244807,0.8680412794651313,0.8066732520882143,0.7630412329830154,0.7407811447899282,0.7755848762007349,0.8514916369828405,0.9008863268546481,0.8991877095601613,0.844839957034857,0.720288584841827,0.5841110518398311,0.44833046474209937,0.3255620585600365,0.20702486980446722,0.13885012510617134,0.23452397632196043,0.3679256505777655,0.5077855192200822,0.6392858468188471,0.760584975456136,0.8540239371544329,0.8154169750048279,0.7336231222345613,MI
0.582750961084725,0.6776459746150292,0.8023912057073184,0.9199380136905604,0.9575720168367794,0.8640726593011654,0.7402624548917411,0.6190043893161552,0.5257345892535406,0.5924741565507072,0.6529718679104213,0.68782825018766,0.6766532941082422,0.6687886482668817,0.6519079533720871,0.6094303301687787,0.547123942141861,0.4985207116193009,0.4149293835974279,0.42963542810092425,0.45949973934710764,0.527569583896565,0.576580496816574,0.5851554448982772,0.5708052358219011,0.5683395054002607,0.5660913887660226,0.5388555568115891,0.5278457140767521,0.5429566471148486,0.5591861670050036,0.5433939855138576,0.5378160362604576,0.5042286959538855,0.4331797700659723,0.3591301627998136,0.27416265781155724,0.17872948006682732,0.12425898490377874,0.16765436748401763,0.22579464290597295,0.28777964417986857,0.33609434211297673,0.390490520758465,0.4309935760794352,0.44546439742735844,0.41960356365482676,0.4227699146256465,0.5008257799661195,0.624427657821347,0.757196261459621,0.8492678913438954,0.8265048235945982,0.714943116243274,0.5859909403839851,0.4509986968367179,0.40249758618933695,0.488139352704541,0.556816877086542,0.5484560315250211,0.5412804213886235,0.5406820710285412,0.5214977773616458,0.46594671990134584,0.39718076109074696,0.3413493664299998,0.3397080946690898,0.3800236953674916,0.43629649895928546,0.47286344783076606,0.46694450271389654,0.48439087016715865,0.48340077971985584,0.4565301473289325,0.4173768067906445,0.405815807262218,0.39889411600283653,0.36474897795332106,0.33068456182107786,0.31349818505860716,0.3152417610238545,0.31645048346343563,0.24679857250045378,0.1599926460811827,0.1252312429467799,0.17220897682715153,0.24434583939753063,0.3234262816516904,0.40478510965653625,0.4767368168354529,0.5315675982772707,0.5411983301317149,0.5414258169083443,0.559674780353459,0.6416548187641848,0.7572629331815439,0.8789362599710899,0.984306597437206,0.9999999999999996,0.9011238980084717,0.7612483615000492,0.6164652645914122,0.541457228896872,0.6068102357869232,0.6709583301414823,0.7109664804933185,0.7655585438062347,0.796486344435126,0.7649846954720414,0.7232315838374626,0.6595114110937534,0.5904149530138398,0.5126198444710774,0.46088592564916064,0.48481585087563284,0.5556528146735533,0.610742404392353,0.6120394303139522,0.608588669519261,0.6020795992200108,0.621200354406898,0.6225303822011514,0.6200504044452475,0.6115788431706215,0.5994364448682998,0.5800158190103777,0.5156196403970603,0.4853200617207354,0.47478558000329896,0.5020857413729316,0.5136345439037959,0.5436486884707121,0.5176105628639056,0.4924374966749965,0.49583639933077306,0.48849241681215494,0.4846502973091371,0.4164659730879001,0.3529006165712194,0.3583141988984404,0.3753835083937651,0.46411998738034344,0.5438539890685035,0.6159558336023738,0.6477212316193444,0.6817376170902159,0.6514125877449044,0.5995881138404173,0.5389834350172511,0.45841626059623186,0.38183290845031825,0.43033909976377815,0.5485822967038678,0.6765323252716962,0.7666155917199746,0.6855928814960097,0.5719488431502779,0.4893537631875913,0.43718201316629957,0.4320102089593205,0.4284021393563564,0.4175487558364481,0.4228357125145812,0.3654731059249996,0.28914338376556037,0.21016603193124572,0.12809982225626326,0.05862712534843029,0.008478670066230709,0.01746965580376303,0.09099574602370941,0.16548433082304959,0.19804583829091227,0.1863775221525823,0.21356663902716155,0.23725167678971948,0.2813444637103184,0.31230784235313136,0.3028922917321162,0.3105640554805169,0.3413577393108729,0.37573207413468657,0.3736184259361166,0.35351042888806417,0.3517687843387365,0.3329045953139631,0.2582534171855291,0.21786625673680193,0.19199085960572893,0.21744915473152693,0.30005286467006487,0.36085500563562123,0.4020257906746063,0.4334171364816011,0.43037538501636474,0.4332250225291454,0.45412905936271075,0.406396417437922,0.3017815696241244,0.22854273799748404,0.2746812761724775,0.3839804987231168,0.5185612766716683,0.6398358386952112,0.616372488798651,0.49686538614848574,0.3925266194680872,0.32510677631071383,0.2938635518977484,0.3248514041049151,0.3375002924321895,0.29208276020668356,0.23439614310449697,0.19141617247434395,0.1213394172756943,0.06185858307735215,0.0,0.013554704060754208,0.08676256566797269,0.179168417121915,0.2732413678442378,0.35500559633680107,0.42291457675768873,0.4286049532587817,0.44567200825551323,0.44890610131118125,0.43625023969574483,0.4252509808479563,0.44608187308984926,0.46341870917994266,0.4585768149847014,0.4732832282614168,0.4715367904986274,0.41470815264001404,0.3410800311089788,0.2910198374230162,0.2834564568253719,0.3524057988684768,0.4279317683065522,0.4852488385599787,0.5374944521397604,0.5668837786019698,0.5653161631569827,0.5924340157089296,0.5564746311989031,0.4762779566782487,0.38005594635392326,0.33321759732392886,0.423708289284495,0.5523280944276352,0.6765969841527153,0.7298433549897196,0.6397184605007458,0.5246502296795961,0.46068918451993346,MI
0.582750961084725,0.6776459746150292,0.8023912057073184,0.9199380136905604,0.9575720168367794,0.8640726593011654,0.7402624548917411,0.6190043893161552,0.5257345892535406,0.5924741565507072,0.6529718679104213,0.68782825018766,0.6766532941082422,0.6687886482668817,0.6519079533720871,0.6094303301687787,0.547123942141861,0.4985207116193009,0.4149293835974279,0.42963542810092425,0.45949973934710764,0.527569583896565,0.576580496816574,0.5851554448982772,0.5708052358219011,0.5683395054002607,0.5660913887660226,0.5388555568115891,0.5278457140767521,0.5429566471148486,0.5591861670050036,0.5433939855138576,0.5378160362604576,0.5042286959538855,0.4331797700659723,0.3591301627998136,0.27416265781155724,0.17872948006682732,0.12425898490377874,0.16765436748401763,0.22579464290597295,0.28777964417986857,0.33609434211297673,0.390490520758465,0.4309935760794352,0.44546439742735844,0.41960356365482676,0.4227699146256465,0.5008257799661195,0.624427657821347,0.757196261459621,0.8492678913438954,0.8265048235945982,0.714943116243274,0.5859909403839851,0.4509986968367179,0.40249758618933695,0.488139352704541,0.556816877086542,0.5484560315250211,0.5412804213886235,0.5406820710285412,0.5214977773616458,0.46594671990134584,0.39718076109074696,0.3413493664299998,0.3397080946690898,0.3800236953674916,0.43629649895928546,0.47286344783076606,0.46694450271389654,0.48439087016715865,0.48340077971985584,0.4565301473289325,0.4173768067906445,0.405815807262218,0.39889411600283653,0.36474897795332106,0.33068456182107786,0.31349818505860716,0.3152417610238545,0.31645048346343563,0.24679857250045378,0.1599926460811827,0.1252312429467799,0.17220897682715153,0.24434583939753063,0.3234262816516904,0.40478510965653625,0.4767368168354529,0.5315675982772707,0.5411983301317149,0.5414258169083443,0.559674780353459,0.6416548187641848,0.7572629331815439,0.8789362599710899,0.984306597437206,0.9999999999999996,0.9011238980084717,0.7612483615000492,0.6164652645914122,0.541457228896872,0.6068102357869232,0.6709583301414823,0.7109664804933185,0.7655585438062347,0.796486344435126,0.7649846954720414,0.7232315838374626,0.6595114110937534,0.5904149530138398,0.5126198444710774,0.46088592564916064,0.48481585087563284,0.5556528146735533,0.610742404392353,0.6120394303139522,0.608588669519261,0.6020795992200108,0.621200354406898,0.6225303822011514,0.6200504044452475,0.6115788431706215,0.5994364448682998,0.5800158190103777,0.5156196403970603,0.4853200617207354,0.47478558000329896,0.5020857413729316,0.5136345439037959,0.5436486884707121,0.5176105628639056,0.4924374966749965,0.49583639933077306,0.48849241681215494,0.4846502973091371,0.4164659730879001,0.3529006165712194,0.3583141988984404,0.3753835083937651,0.46411998738034344,0.5438539890685035,0.6159558336023738,0.6477212316193444,0.6817376170902159,0.6514125877449044,0.5995881138404173,0.5389834350172511,0.45841626059623186,0.38183290845031825,0.43033909976377815,0.5485822967038678,0.6765323252716962,0.7666155917199746,0.6855928814960097,0.5719488431502779,0.4893537631875913,0.43718201316629957,0.4320102089593205,0.4284021393563564,0.4175487558364481,0.4228357125145812,0.3654731059249996,0.28914338376556037,0.21016603193124572,0.12809982225626326,0.05862712534843029,0.008478670066230709,0.01746965580376303,0.09099574602370941,0.16548433082304959,0.19804583829091227,0.1863775221525823,0.21356663902716155,0.23725167678971948,0.2813444637103184,0.31230784235313136,0.3028922917321162,0.3105640554805169,0.3413577393108729,0.37573207413468657,0.3736184259361166,0.35351042888806417,0.3517687843387365,0.3329045953139631,0.2582534171855291,0.21786625673680193,0.19199085960572893,0.21744915473152693,0.30005286467006487,0.36085500563562123,0.4020257906746063,0.4334171364816011,0.43037538501636474,0.4332250225291454,0.45412905936271075,0.406396417437922,0.3017815696241244,0.22854273799748404,0.2746812761724775,0.3839804987231168,0.5185612766716683,0.6398358386952112,0.616372488798651,0.49686538614848574,0.3925266194680872,0.32510677631071383,0.2938635518977484,0.3248514041049151,0.3375002924321895,0.29208276020668356,0.23439614310449697,0.19141617247434395,0.1213394172756943,0.06185858307735215,0.0,0.013554704060754208,0.08676256566797269,0.179168417121915,0.2732413678442378,0.35500559633680107,0.42291457675768873,0.4286049532587817,0.44567200825551323,0.44890610131118125,0.43625023969574483,0.4252509808479563,0.44608187308984926,0.46341870917994266,0.4585768149847014,0.4732832282614168,0.4715367904986274,0.41470815264001404,0.3410800311089788,0.2910198374230162,0.2834564568253719,0.3524057988684768,0.4279317683065522,0.4852488385599787,0.5374944521397604,0.5668837786019698,0.5653161631569827,0.5924340157089296,0.5564746311989031,0.4762779566782487,0.38005594635392326,0.33321759732392886,0.423708289284495,0.5523280944276352,0.6765969841527153,0.7298433549897196,0.6397184605007458,0.5246502296795961,0.46068918451993346,MI
0.9751290412336824,0.9577664251537323,0.9546995093196802,0.9488105622383125,0.9427667349633879,0.8991617647139527,0.8578509460725099,0.8518125469303519,0.9016005179117748,0.95692185144907,0.9735229367472538,0.9883023066515404,0.9999999999999998,0.9924271338839976,0.9778769462443815,0.9603712244988623,0.9526649715604665,0.9411217081030243,0.9308300748409699,0.91724384089352,0.8902767078971705,0.8588452435171237,0.8528400709288348,0.8495120203641056,0.8289529415349128,0.7866269762198763,0.7366120992992584,0.6911354253672359,0.6476308362041907,0.6317998924811705,0.6615262567105886,0.7045354881883856,0.7336244828252882,0.7627144166259139,0.7905945245792947,0.8132244819823324,0.8235997182156081,0.8077885764363246,0.76005656063233,0.6993136981189059,0.6345875042516234,0.5627453373908564,0.4877237917856798,0.4144686181063757,0.35673992614688177,0.39912798364233715,0.47615593647904264,0.558271309354609,0.6398487004726627,0.713594309794999,0.7926584128146188,0.8636501781145223,0.870964289934075,0.8504109860042526,0.8427678523494058,0.835902440909686,0.8092895637954447,0.7643258887842093,0.7491408502492245,0.7939337156949151,0.8370495923980243,0.8491753474859558,0.8495179831205115,0.8493196220694317,0.842552052371214,0.8340220331596391,0.8258208167979124,0.8208614096788389,0.8079033437898766,0.8013982850977641,0.7999583147166553,0.7953321367030457,0.7894616972972197,0.7918482903962178,0.7883554632306167,0.7750895262364987,0.7500460971238991,0.7134200497973229,0.6706999757417613,0.623347303806749,0.5779104636675296,0.5749403545268497,0.6159162823699222,0.6656425866625773,0.7161278126161961,0.7734906730816884,0.8396624042929908,0.9014746966318075,0.9177752383212006,0.9175517051223909,0.9096622963799164,0.8929568368517471,0.8500436553038295,0.7957670601644768,0.7335736806753406,0.6653032463504627,0.5951294790376551,0.5240200765351424,0.49286572888237856,0.5608515538039147,0.6394997170304273,0.7135858468584024,0.7947528723505579,0.8673479537710509,0.912964039803936,0.8903392893629098,0.8876296794420948,0.894125442887068,0.87362591018066,0.8479896856583293,0.806218024327517,0.7858961758708816,0.8154309242043454,0.8586795313210251,0.8637457747518582,0.8534879046087014,0.8380881156342739,0.8211335501195807,0.7882331882027387,0.7929646096451957,0.8065696628153758,0.8183415479119609,0.8071835183206311,0.7621886280046641,0.7326363349506702,0.7464780781380187,0.7799836867383263,0.8207197765798993,0.8473464670299315,0.8536314788461377,0.8422389286201784,0.8014251546049138,0.725698278578375,0.6467943806000491,0.5729018093022691,0.49127895573283986,0.40912710193737944,0.330480121492424,0.2563556292545086,0.17466789832913943,0.09671754163893209,0.03356320951394132,0.047980556625481396,0.1205724333257514,0.19398202965352684,0.2741166513219335,0.347271848455043,0.42745538050353815,0.502626115357117,0.578582230554866,0.6493215365540352,0.7161369974690772,0.779846308229379,0.8381096782711897,0.8668536642951798,0.8736665710575282,0.8761690475461068,0.847397749957965,0.7786662096188239,0.7175001158984438,0.6640272082777081,0.6168354001964593,0.5712939045828949,0.534035921666183,0.5293655819716316,0.5639808649884066,0.6076814987578225,0.6543227065750927,0.6976249300799391,0.7306844116015916,0.7458607417574377,0.748169418505257,0.7483126481050981,0.7542717760830169,0.7602170453727262,0.7657217757897503,0.7725054164803427,0.7804229828287903,0.7889264109771059,0.7977907388738301,0.8033409378249574,0.8078480245077062,0.808497810831871,0.8072424242017455,0.7789155418797222,0.7252115394113334,0.6962185615962042,0.7131071261380231,0.7458074623412301,0.7866955391533821,0.8021362790306215,0.8083065104028246,0.7999349538656797,0.7428401041941217,0.661894217271082,0.5876584450420494,0.5091358306034455,0.4270275747367096,0.34914545770303795,0.27437351336871196,0.19251037606869148,0.11033760293104855,0.03134607077514495,0.0,0.040638267652475246,0.10743627915340537,0.18514191346962083,0.26343382840666263,0.33779089061151724,0.4162375130345368,0.4891192362599053,0.5615726186557921,0.6344221514661927,0.7022917196191913,0.7620805314057562,0.7809605804457993,0.7659027305991168,0.7402389927752093,0.7158228682722689,0.6836206236315068,0.647597334962583,0.6074185788783681,0.5847284344670214,0.601828640344086,0.6407182610254565,0.6837895087731318,0.733859294015609,0.7827436301010589,0.8068883503673041,0.8093291732265961,0.824346933413947,0.8541481398848108,0.8785265114714014,0.8943274356532134,0.8994374037343718,0.9130192888608029,0.9192386394410208,0.9359609906438229,0.951973557696532,0.952081236154797,0.9419520561411809,0.9258206388617196,0.8803805797779696,0.8213405343461933,0.7915027871311624,0.8115471794112568,0.8511798422475096,0.8914742298022784,0.9138758962217881,0.9208451801249649,0.9133422784883474,0.8666502004269951,0.7928596762074371,0.7110043752766795,0.63538129481295,MI
0.4640658424907387,0.3924150001424558,0.3310867554864445,0.35133030341350624,0.423744142526965,0.5037646426797906,0.5754461573919039,0.6475382577956532,0.7255949217296496,0.7880064999136955,0.8132215578246393,0.8093500446767412,0.7767006325239074,0.6726011961841887,0.5707069063529504,0.5502373029262033,0.6499000834177027,0.7593415578875939,0.8618118179396617,0.9395532873876857,0.9119212167631408,0.8599147792658521,0.833583569971744,0.7955086141320975,0.7625816697279109,0.797117086516228,0.8454060787353868,0.8670836951517242,0.8814497249824162,0.8926233872944365,0.8957584581044946,0.8908921453526761,0.8920271339815469,0.8910779398864004,0.8588947831879268,0.7985453134618203,0.722515535322426,0.6402450041606382,0.5527188069003435,0.46572775506594244,0.40963262647658016,0.4465711966391894,0.5220020118162441,0.5965693786042445,0.6670634483080766,0.7314443488681044,0.7824832899723679,0.818728576106142,0.8396227854892211,0.8213210618787921,0.7244481965708811,0.616921457581594,0.5089577233002225,0.4289687143106331,0.491402113039197,0.5994501540126507,0.7060117801743382,0.8044649041187646,0.8406157691379201,0.7881115644518637,0.765361450250079,0.735659192053792,0.678370526709136,0.6709374882580454,0.7140592987620562,0.733894414171953,0.731556770301081,0.7376970681986177,0.7477539877570805,0.7588466868303407,0.7519260706455109,0.7000921748694879,0.6287317865809396,0.5468305124198038,0.46684404178999594,0.38639155004919346,0.32028536612786485,0.3442160581679894,0.4233899414622493,0.5082751883680667,0.587293257049398,0.6632887777222751,0.7384353979357412,0.802845236328829,0.843841850439071,0.8755694865790908,0.87642058310785,0.790224560821795,0.6810556303957704,0.590570619540113,0.5805175057887193,0.6838079036347016,0.7894219954873303,0.8961252469858496,0.9902621045705082,1.0,0.9339003053086445,0.9044463176153505,0.8610924376809006,0.8069446793824353,0.7940976614552722,0.8406850667021373,0.8675682120135058,0.8578091121348508,0.8378381061031863,0.8350935275531981,0.8350858778264931,0.8341568975351707,0.8129469499014621,0.7586393083145957,0.6798444753397619,0.5954472298484879,0.511567227085512,0.43676077146408243,0.45257074360474103,0.5388369914519946,0.5377363281519627,0.4440556178686661,0.3786847865699341,0.4326786104302691,0.5228221875197177,0.5621903378477247,0.543259743144878,0.4694233381530819,0.36828568642639015,0.3083290448479217,0.30075760156865927,0.3430315779452624,0.41659413683011426,0.4963430746314552,0.5849909963223885,0.6699900707607469,0.7406082718111193,0.783424907259564,0.7904332336980788,0.7997337515543803,0.7944398726082338,0.8037264586806838,0.8200926901034351,0.8045878850987416,0.755524122609974,0.7342781345815017,0.775988138459057,0.8302390056320874,0.8722206854943604,0.8736759810629819,0.8128162338447225,0.7079961067041474,0.5983479506207141,0.49161188611650797,0.3805120264095676,0.26972803215901475,0.18329544347068816,0.21339192037402777,0.3159140040802637,0.4251916443562975,0.5302851312175676,0.6363243410690087,0.7412364340135009,0.7993917638513883,0.7850832528136693,0.7360279209374383,0.6605497162944873,0.5816277412488953,0.5031971440618506,0.42278101683690217,0.34415072257398194,0.27330196576736543,0.26646373983660676,0.3274879858980382,0.4038774770622535,0.48466545578842624,0.5668880028880046,0.6494732476596488,0.7020754113021304,0.709639972398092,0.7000890256529755,0.6898983256629068,0.6846381408221278,0.6788574503581577,0.6417251824058265,0.5936348017747775,0.6228355996212023,0.6850377803460761,0.7266070696465534,0.7301912749526043,0.7017997641873528,0.6013179460655076,0.49601027424383703,0.3831754995163015,0.2798312832646477,0.18946739987293792,0.08309561336275206,0.0,0.03155511774342701,0.13296719508461408,0.24260283274447203,0.3581103230684859,0.47339194709056276,0.5808607773377874,0.6886030035636446,0.7703106744388175,0.7658560176182321,0.7212864085421096,0.6623609999431923,0.591030122337338,0.5174142551809564,0.4425136761642423,0.3776623463919022,0.35706105528995624,0.40822918541225794,0.4910915976453314,0.5760350025418162,0.6591932321501579,0.7399618241923624,0.8107660136558765,0.8494813264915213,0.8537523263376245,0.8515062261591679,0.8560546775256848,0.8404527566189448,0.8288249954048066,0.8120892784794029,0.7725413814861826,0.7207536135311119,0.6969095942636998,0.7438335617125502,0.7915485886538449,0.8113557803339875,0.8023855594799851,0.711664253035142,0.6037028359876908,0.4940112489902506,0.3861296418024447,0.27274350846545126,0.16785819944477454,0.07697705498853447,0.07320366891265606,0.17327430254975384,0.2879274326083534,0.39385646368368765,0.5049121922464206,0.602750568020284,0.6895289428126534,0.7555111185574392,0.7576185064378747,0.7018934759660862,0.6289929595690698,0.5516134203454253,0.47772190874357134,0.40279867578151674,0.3282720796088152,0.2758369066241708,0.290457774003422,0.34657734396222506,MI
0.6995477730089035,0.711427598385816,0.7633360950179182,0.7981881832259048,0.8156872730140527,0.8324929785181485,0.8605256661129772,0.8553915104471441,0.8750557526319356,0.9096330795925467,0.9610407193142496,1.0,0.9947118714707162,0.9179354296281894,0.8184495069943951,0.7147107105391601,0.5976835642836398,0.48776336690420674,0.3776895441013477,0.2623165930589182,0.16284540926349456,0.0924949288654977,0.10355377514688424,0.15960957030962586,0.21990671092177339,0.2773779523914399,0.32921358879849727,0.3776396191310578,0.4023141213847228,0.4361950641643162,0.4806835359814894,0.5313275268161077,0.5727592695291035,0.5266109320238495,0.45776869411184595,0.5270441574325297,0.6188692723699969,0.6642259247557205,0.6472708583935334,0.6510088322045302,0.651773549318801,0.6113969025119665,0.5614939213878003,0.5356840809404075,0.5728181973541284,0.6322223894773393,0.6701366102426114,0.6765344311607087,0.6765677843151723,0.6729404328253015,0.6641035000956386,0.6543867773869048,0.6228734723550424,0.5850606179218745,0.5242975763229514,0.4494974137730603,0.3675504979880784,0.29113716758794617,0.23704942137124885,0.27606841802893234,0.3375935119430551,0.4082754415810066,0.47658178698144393,0.5377959906229721,0.593745772955613,0.6484555858922265,0.6921062855081983,0.7457540194276189,0.7885039725317773,0.8273523216997836,0.8870681468369819,0.8580263091083689,0.7795715275879314,0.7335041411716401,0.8141091374125424,0.9091064229433972,0.9501391034596458,0.9166946328604646,0.8963877127330724,0.8753132169284754,0.8444016629083486,0.7919011299206238,0.7426976291628118,0.7567146453099998,0.8040951082157166,0.8394080307506298,0.836448714151488,0.8196547322524923,0.7756945402860325,0.7531161256034276,0.7410721853189672,0.7150919584935074,0.6957190993273517,0.6575514211533888,0.5929533583802442,0.5106043795158048,0.4250702495556604,0.3484890346139595,0.2750529696646278,0.27422631747988335,0.3281014709400436,0.38558334482926826,0.4488674894638165,0.5000528229293204,0.5517787658799711,0.5728708630745221,0.5888350110250107,0.6231954521431242,0.6710785874048475,0.6993456818462995,0.6353195680119659,0.5776743408823535,0.641172981267284,0.7410592262161595,0.8193175123014917,0.8230489772784724,0.8080004106152772,0.7932505698357675,0.7571969915597276,0.7037311303015419,0.658424031332173,0.649604538434525,0.6963552880667296,0.7368259696717159,0.7376740657998644,0.718523695730982,0.6752946265700746,0.6568084195157278,0.6140992177011042,0.5798601160559582,0.5860193456861422,0.6253936648513112,0.6748304032570056,0.7194788749259571,0.7264132243193893,0.7443032238189806,0.6972619088595127,0.5966844518678966,0.4945624122254473,0.4028640642567769,0.3900729461248549,0.47168007549372604,0.5696210682446665,0.5822592625166916,0.5440192877873433,0.509985566144358,0.4884018313954117,0.4669144102932088,0.42327475630453515,0.3676314316485718,0.3040099032115373,0.24412715731580326,0.19499325294100922,0.1766592571776271,0.2273662741205209,0.3023892531217105,0.3832393823227709,0.47645849304592414,0.5502847441996996,0.5995785330680228,0.629805593429706,0.649541898985019,0.6634072454516788,0.6819132273233648,0.7310831819246291,0.7534199532483856,0.7566797725073804,0.7311631702188004,0.6822691806406098,0.6539506340654007,0.6775405234155825,0.7252274971731052,0.7780250934708,0.8154175590491937,0.8369203691986633,0.8606982815456248,0.8125285369545856,0.714125534846707,0.6032832131012302,0.5666720456684011,0.6378813231530871,0.7374868728238426,0.7725051319869989,0.7244783343766743,0.6943188175870758,0.6487831746320989,0.5987626961498069,0.5529051329924402,0.490011323116037,0.4263777170568055,0.3609696952106818,0.29657844000368927,0.23026782890026531,0.17291481529015762,0.15368306175018498,0.2047847505695377,0.2773836199148185,0.35194459542247136,0.43591968152016625,0.5039044000932034,0.5263112038148647,0.5585583957555849,0.5681866115433998,0.5772796539958245,0.5917073917623519,0.5936235079613854,0.584111033034433,0.5452501445506273,0.4878905000491556,0.4522394574349926,0.4557846933316445,0.5043025318601568,0.5548890617822666,0.5797575630365106,0.5660263601692157,0.5703496638552985,0.5612201103830818,0.46681018997573753,0.36327962562300087,0.2772014428441798,0.29047122630506195,0.38317412227976133,0.4673197875352333,0.4568828617729621,0.4123142594669176,0.3632383928797336,0.3309576019718272,0.3007837105724782,0.25675897779273393,0.20834672349244876,0.14630237335085727,0.08151755752055356,0.02862576211457757,0.0,0.029950393939441433,0.10429488254838182,0.19649875765924651,0.308887280912987,0.4280627118275686,0.5472010639395397,0.6588599761073608,0.7667476797868145,0.8647089096273475,0.9007765222490809,0.8604319243013143,0.8219773996882411,0.7870712854172184,0.7673994552615766,0.7614079928375106,0.7444402316504934,0.7299230981673088,0.72568116273776,0.6807271664426793,0.6335916651592024,0.6158419480534452,MI
0.912382027811387,0.8735245939095964,0.8043076533259568,0.7230422040647337,0.63726963169411,0.5508384337758194,0.4747510565533932,0.5068792353355056,0.5921706603477794,0.6850388299980272,0.772877324199643,0.8610175134199038,0.9417997681499832,0.9930397630420265,0.9683462871481947,0.919130354157712,0.8842304015169675,0.8786827868800193,0.8924366228083047,0.8890048899137848,0.8789332297478296,0.8712585435751903,0.8726943698631209,0.8787606671602322,0.8614561815154884,0.829560803921735,0.8059213270934189,0.8270636879755071,0.8674690176315072,0.9010740297117354,0.9167541327741107,0.9077865117108699,0.8612076366964843,0.7843359439381052,0.6942110692594894,0.609426341169707,0.5236117565395255,0.4411518820519369,0.45084238208209504,0.5401762309727314,0.6301047549973573,0.7183359984045714,0.806493846379529,0.8951125142802205,0.9749951557898184,0.9962489173866664,0.9430341234920097,0.9036132636043253,0.8717132674174359,0.8821493459183023,0.8994546348649821,0.9056271720169566,0.894668477877179,0.8872101129724286,0.8951054199023751,0.8777546510220169,0.8429114931942561,0.8176090936909259,0.8361806387369435,0.878143429862041,0.9093540096207506,0.9247037601257639,0.9315266224883847,0.9013077177844895,0.8368078941760699,0.7580005339633376,0.6737668583583221,0.5890593434591838,0.5020144809826053,0.4320103882249857,0.4706365655422493,0.5632162946606027,0.6545640237996859,0.7418734934579116,0.8352813775786032,0.924559086407075,1.0,0.9982290881658789,0.9421163421736176,0.90500026281027,0.8826184816049383,0.9029902557118843,0.9158451207744087,0.9109357232872834,0.9013618681393385,0.9024545730612574,0.8966408228599474,0.8723059190967657,0.8344874018281798,0.8152699946992918,0.8442346878572367,0.8823837066252369,0.9151332104852863,0.9269119890605237,0.9119262711019229,0.853251083616988,0.7715046553916369,0.6867873309400077,0.6011416071580227,0.5144101941729367,0.4584151435030177,0.5032620401225854,0.5683391501130326,0.6558512265564436,0.7436024001686996,0.8324758285225604,0.9185036327331881,0.9918473769415339,0.98308079012366,0.9299251286056147,0.8905670243289352,0.8711148791210095,0.8559424817761938,0.8326525444884709,0.854378117637151,0.8928218046807277,0.895372335601075,0.8241139795851002,0.7352835910536606,0.6483812886085605,0.5551442080818954,0.46334373604282875,0.37632547755728774,0.28298372666014737,0.18911282582749922,0.10034875459070325,0.016572544266047706,0.0,0.07255152835189727,0.16418671831404497,0.25130057218466306,0.3425720820149243,0.4303363526332604,0.5210558103566059,0.6144076212635081,0.7009876415157534,0.784348140532495,0.8572009393807654,0.8959565553812727,0.8869982255142583,0.8579943888291959,0.8200567157881069,0.7846177119682873,0.7867072937796387,0.819579511497432,0.8574062821893589,0.8724149672277153,0.868690375525834,0.8701952118167497,0.8822087249682273,0.8791609307907273,0.8732894561567077,0.8523924199979662,0.8637516039215773,0.8982647358059259,0.8947840182426534,0.8177134042560408,0.7305731851784167,0.6389061237494111,0.5520842944765618,0.45896959028208073,0.3652942072581322,0.2775581266310687,0.1867866007249227,0.09334737620123323,0.03138384362086333,0.08010312554616483,0.16746358343402645,0.2569206642362045,0.34959487696026903,0.4363007581773559,0.5265741812085158,0.611680869743181,0.6956440373305515,0.7789161027796856,0.8543968698621534,0.8933812868140036,0.8859314231237114,0.8674994017069706,0.833860210460392,0.7968972009397808,0.7731530211910662,0.7986530607970606,0.8335998379981924,0.8621832960787514,0.8594817823428733,0.8600607071396513,0.8761464961611944,0.8748662567069236,0.8504375194039244,0.8299861693349138,0.8409732860949986,0.8797647949850296,0.8972636212329681,0.8368749752816509,0.7504123360418795,0.6602451810465213,0.5735402715987037,0.48097873127348323,0.3869657114459184,0.2957858959211903,0.2083589631376659,0.11486121235095137,0.028047476643003444,0.006807937095816063,0.08066900844351133,0.1676296465000866,0.25895853381866707,0.35297982770927394,0.446878309665375,0.5358525466580217,0.6200114775558438,0.6903826549792271,0.7709261856118239,0.8456331999124496,0.884462501807689,0.8812771734653893,0.851984886110418,0.8128018318048986,0.7797346501743632,0.7806138210858062,0.8134948570493299,0.8431980358171596,0.8481128960464484,0.8443061385362793,0.8509745855024591,0.8584373832800458,0.8583276545729313,0.845485133300133,0.83422772792211,0.856702953551036,0.8933702054270476,0.9174153454104943,0.8599446923584078,0.7713297176073326,0.6839208359069329,0.5928598745790565,0.49934407185850516,0.41197218225068233,0.3207175833313656,0.2268040104763318,0.13735737434652184,0.05005352085764181,0.0037546847029652497,0.06432651828760694,0.15595108275002878,0.24270422683984516,0.33489271641375407,0.4228121470879589,0.5013825695020697,0.579846112003346,0.6660338990636883,0.750389322757808,0.8274433698909665,0.878899334247861,MI
0.8651324514943406,0.9436961280849805,0.936825285610273,0.8400512683948573,0.7401493617180215,0.635478258495977,0.5372732962815765,0.44275466927780416,0.3926368719939606,0.4327056236561009,0.42602450703494865,0.37137865826548877,0.29652762862349613,0.2950375220563455,0.35493718169881383,0.39072541824831175,0.3754932366718262,0.3652160043439405,0.36901951309881964,0.39893212431100844,0.40193871602310116,0.34967634782250334,0.2850300778519408,0.24398509597072704,0.25367078153436795,0.2784288040432301,0.29482407035781,0.3360929125437693,0.4061401637564006,0.49592941416454117,0.5925378341107619,0.6944984249982813,0.799810235805559,0.89807133159489,0.98617171172405,1.0,0.9133478230235985,0.814004200206313,0.7078623096044168,0.6086831715311329,0.5139977614703062,0.46683046518400184,0.4565345658566744,0.4102244416156311,0.348947733115482,0.36233136580451397,0.42193605437426607,0.446335832779722,0.43800051644771454,0.467739735303772,0.5233405402437046,0.5382965691670862,0.5206177426776208,0.464193805524046,0.3937587382752401,0.33234789312023016,0.29358075625732827,0.2818004020461595,0.2944767707335547,0.31370393134372954,0.3628627501968529,0.45071004454270547,0.5545886449588933,0.6536357572719318,0.7346467401369909,0.8253658385478406,0.9159860934772532,0.9426694951550165,0.864220938480631,0.761575644404199,0.6619262685689193,0.5625266561533548,0.45747854363942686,0.40109246468857895,0.4276417218862343,0.4018921188000948,0.34292307624552576,0.2673664239383142,0.27031440878466206,0.3304635540842189,0.35934619505352394,0.33827638376032576,0.3043720011040594,0.2791546411163366,0.2819934376769653,0.2590073202170815,0.19724220319740393,0.12528827101699447,0.05903461644594543,0.04449919220096521,0.07482595892500776,0.11367379886894025,0.15647228311471095,0.2001383114805344,0.2645832892585869,0.3600771174927546,0.45618240842992464,0.5568392406648242,0.6566891388698104,0.7553635045653526,0.850968640969731,0.89678489890504,0.8284952816414521,0.7217387057894795,0.6127556527207649,0.5065685975268934,0.4100758430673972,0.33086399474141537,0.3447630365344989,0.34656867660274804,0.30418104065629503,0.2576297226739641,0.2957238263682682,0.3635207372960032,0.39263766196162786,0.37131545343279093,0.3539899065928691,0.3725423681774078,0.405099123329951,0.4223594287409531,0.3834046814742784,0.3226279230188567,0.2931171490515223,0.3006279038216486,0.2554733358701984,0.16428715388226633,0.06140011904798959,0.0198082977380607,0.072095628430912,0.17533852649864623,0.2260603097314129,0.15344725692296257,0.053430316845203496,0.018977587835295573,0.07053056490915988,0.17399307532177333,0.25083887764709756,0.31255969774679393,0.3663834262171437,0.36726992478651965,0.3327984668472972,0.320123929618751,0.3241834285503007,0.3483675614031787,0.3327635770558621,0.26525188841134084,0.20389135277402737,0.17041303084986636,0.22782215536798844,0.2938879573733484,0.29048714943166054,0.21194608211047417,0.18272573342079412,0.2596286047743759,0.3618105250017032,0.4577370963422962,0.5532661824831613,0.5558386745109907,0.4651209107194667,0.3690304277029228,0.2753413773963269,0.19531222662344017,0.1434310453822134,0.10477242084801563,0.06036190227382909,0.02465695751888508,0.0,0.010071720502315973,0.06580557410233712,0.1381158535101994,0.21026559586880533,0.24324325356147036,0.24156258087829885,0.2591195659786194,0.2939993284798823,0.304867144165212,0.265452619084094,0.21046080061515227,0.19616134320363732,0.25870089443946775,0.33714792423738027,0.3746559421134221,0.317956458213144,0.2583672862230233,0.3105195716680855,0.40478203115252764,0.5016351999115014,0.5993777578668511,0.6902506070542551,0.6744584760913979,0.5765517329951271,0.48136539947802026,0.3901503106133033,0.30941064177958166,0.2680236245781329,0.2455454724118331,0.24101739539793865,0.25104276080324417,0.2863375450837955,0.3427918560361558,0.41527288802995743,0.4780758565509666,0.48901288648842156,0.4486805106256986,0.3949178595598437,0.3921552336726606,0.402395050722399,0.38186230324032033,0.3243652105720378,0.27232772669775973,0.2946744829943868,0.3641200342064512,0.4149962328561867,0.37260603546016924,0.29482765789396614,0.3104422044946933,0.3917058406264342,0.47627653241519186,0.5712565717111491,0.6693773760807598,0.7508611340341926,0.7022211346651317,0.6039256076462789,0.5065078456046619,0.41015380792780975,0.32800635577946213,0.27840441990314213,0.24550485576804437,0.22938877285842696,0.2032415446435074,0.2015766522466369,0.2358373875317532,0.30158012630341213,0.3579421132102709,0.3567340236654326,0.32773564971407154,0.32466535144654607,0.3327207567411965,0.34188848235971925,0.3120534863758313,0.2541152071556527,0.21849504742806203,0.2619478050693438,0.33730361673950693,0.3836240732254539,0.34025658291832794,0.2660256366797562,0.2794124688894093,0.36715874398599935,0.46283635919748756,0.5663095017064004,0.6664327802342016,0.6681966180644028,0.5768987985729104,0.48700304261917315,MI
0.4169803766015976,0.38548829406593255,0.42667246653168434,0.49572750952114086,0.5688653352225237,0.6298821824768921,0.6946299909323197,0.743902557622468,0.8259572863488702,0.920168613478761,0.8857532290449988,0.7923855413390455,0.6688136955252548,0.5313132132170115,0.3748002490132194,0.33076981510822234,0.4646652442111283,0.6152583056607805,0.7424621095087027,0.855486458466411,0.8323502684993049,0.7545637211076213,0.7559507278164035,0.703816120619503,0.63357418817623,0.6476856514257876,0.7263212022038537,0.800152103744042,0.7866795709941594,0.7516422660828392,0.7515998149051142,0.764538945549655,0.773821279742553,0.7745839474320202,0.7825456623745146,0.7627209828880157,0.708046688054687,0.6574618714849643,0.5776714841142172,0.5359766279148235,0.5641624489056878,0.6199842494056838,0.6411104831053662,0.693903792814011,0.7498929220233257,0.7982006026208599,0.8647631916656855,0.9241190193714517,0.8562903028045974,0.7628912823900191,0.6447987304328975,0.4835185348030433,0.3301786062652958,0.2561090652733027,0.39802842029561214,0.5588736297532626,0.7065433226584417,0.8398905307672622,0.9685832533701215,1.0000000000000004,0.962950531142464,0.9189355039402147,0.8203957922686365,0.7413982886829413,0.6983789356491052,0.7299555306520626,0.7966957313459537,0.8091521559602639,0.7853539435349002,0.786376069622611,0.8382070667199115,0.8454257905785796,0.8333212624915043,0.7546743711900299,0.6842638818801219,0.6330233417895106,0.5864237085370649,0.5497945850639288,0.5676161809686735,0.6370063792334935,0.7000967231235333,0.7619717551837506,0.8008484524434221,0.8131028242256497,0.8106864753946659,0.8637147821240716,0.9192080655659525,0.8296178179693761,0.7203834661097184,0.6115871490594817,0.4702985239659516,0.32288340584334563,0.29662265846423796,0.43560034544178006,0.5866578138428111,0.7222103233060984,0.847749277112134,0.9240249718067131,0.9148134705289608,0.9370376752269922,0.8682758468652048,0.7798035934945573,0.7224865278107049,0.7500151150620531,0.82962587510448,0.8650331810932594,0.8545690777014294,0.8264469574533524,0.791299693379306,0.7611512777742164,0.7397914786670658,0.745878210479257,0.7289369913534558,0.6707837050260905,0.6038650971024926,0.5293676812703532,0.47102388847251797,0.5061314106747647,0.5858023537445685,0.6460710205884799,0.6672008908602218,0.5833519935829341,0.5026499132022537,0.39008266900814714,0.22057500074985503,0.059846502531393675,0.015202077715079199,0.11542325585369051,0.2860371601374112,0.4173546361528726,0.37661676655909604,0.21849854806881952,0.06033664984596987,0.007523520123784877,0.0549990289028055,0.20962037680775403,0.312923862037505,0.31037118535612596,0.37019751660061884,0.44815426325570185,0.5063763195515363,0.5708215515761483,0.5898920805267376,0.5906590479172649,0.5959618832038847,0.6408977191276501,0.6734016594469519,0.7119960677088062,0.7271673169360162,0.6696272479909982,0.5981385725156261,0.5612938828619369,0.5882726212340583,0.6857242432174684,0.7704091453129194,0.7837613618502544,0.7549345924409585,0.6680943349493362,0.5255196225471122,0.3704756567730847,0.2201501216487416,0.08219793060532599,0.023045870048894468,0.12069976053688602,0.28957058283691994,0.45876034841569835,0.5881964952126171,0.67500629760637,0.6957803416999035,0.6571849451295679,0.6672614842912519,0.6374431721592768,0.5881405468844059,0.5220459750097652,0.4463516810689412,0.38773466563640735,0.39541537204651167,0.4313447437788973,0.4702073919734553,0.5231498990750638,0.5800087338588109,0.6580157475258201,0.7008616113418262,0.6761417255835158,0.6336777882599578,0.6406889209597968,0.6476357157994843,0.5984823053313586,0.5315005157299537,0.5519110790621817,0.6151912526650709,0.71009837827259,0.7870179121006529,0.825989488572803,0.7869608293529216,0.6612108155129817,0.5097299713046595,0.35460310603581346,0.20402934173210197,0.06950321522302083,0.04022047873987633,0.16175167216605146,0.3203590858411127,0.4785003358930138,0.6325055162068209,0.7317089198597952,0.7282698177852382,0.6623191969785887,0.6148037157105999,0.5532328375410587,0.4903351649413348,0.46233452990089097,0.4129561799664745,0.3725002837717799,0.40404287519734705,0.4807297305658973,0.5486502001217723,0.5727672476368251,0.6212473612235967,0.6372017465308519,0.6226137927928481,0.5950873468232643,0.609582759994225,0.6224179195332886,0.6371733853881163,0.6420357450404794,0.5751879313668158,0.48214215850279407,0.4760481988843295,0.5255138005149358,0.574168147393523,0.6007694393313305,0.5646687466150007,0.617441608847193,0.5647917587059159,0.4157428783380439,0.26540506500787586,0.1242653880390443,0.0017319090043601548,0.0,0.13747165113897664,0.29119193241478225,0.4501934194453434,0.6022252399092429,0.7161185426773211,0.7208067106732865,0.6359920261393532,0.5680442945073447,0.5117532074319215,0.4467127007211702,0.3830247059766614,0.31170092604042,0.24668382889643858,0.2249342130744698,0.27412954140164425,MI
0.39346922492190783,0.3615172975826981,0.38359033510192875,0.4048233654150648,0.41833600696975104,0.4399395210300501,0.4665820775012741,0.5247902773086932,0.630741134489893,0.7438636994278842,0.8253973767496396,0.7937812685859829,0.6900578029145819,0.6264082818167505,0.5865559144465631,0.5708118255853614,0.5123651267342391,0.42314239605054826,0.40391100566488314,0.4771918865910565,0.5380728050561374,0.5570628867602561,0.5581980328361822,0.5540188606624543,0.506166148915062,0.43615285691971417,0.38714403031654143,0.41050035693881126,0.45220099987352036,0.48891897359413816,0.5088264857661997,0.543457026889973,0.5916578256491785,0.680720560184024,0.7824263637020907,0.9027560380835746,1.0000000000000004,0.9730490673693111,0.8526528039881263,0.7498530970499684,0.6848536781474492,0.6851338154311595,0.6668123946089151,0.6063165932928585,0.5120392437564987,0.45876194471844656,0.5101513578823984,0.5804503831457999,0.5973976889833197,0.5711555025116763,0.5316846160486177,0.47339924423665547,0.41630880429387895,0.39839528018452697,0.4123042327719886,0.4414091510922762,0.46891701663352814,0.49739158032326225,0.5285849747213733,0.5873364983274323,0.6831480447237612,0.7983722772149227,0.843180941909496,0.7497207947655982,0.6551769451322591,0.6473137620746381,0.6371774815550233,0.6303999971396324,0.5819354850960625,0.5022597488447329,0.43604492570802433,0.4884435206304856,0.5563020948386384,0.6051097052888266,0.626812417714119,0.6010647643120635,0.5521815878938394,0.49161366195777356,0.4391415008952775,0.4431850609920436,0.47828937636292546,0.4956796213069232,0.532642293289634,0.5707515644244188,0.6154419161438627,0.7099048988890972,0.7953830107084943,0.8242631449608298,0.7513152870879032,0.6814719143740575,0.6558852875144519,0.6371472160595584,0.5786885230191281,0.49655613161730283,0.5122882156258708,0.5761918629839746,0.6284862744127211,0.6293458699507761,0.6263378039289131,0.6089766891759827,0.5564951701211687,0.49159238021225926,0.4535308241421414,0.46933539027802373,0.5131269933139633,0.5259831310226986,0.5436558227782431,0.5618281355246819,0.606813567546979,0.6951830663309075,0.808056213586962,0.9078823090727965,0.8895384427493171,0.780784509633969,0.6837488280008532,0.6459017137288425,0.635386502732052,0.607442139624887,0.520916788390013,0.4400015243036641,0.4248439541127076,0.49680041158276333,0.5571690859325771,0.5775074834210439,0.5512993565316457,0.45616408313281687,0.39087429931984463,0.38472238975083206,0.3276634022232252,0.2273651605642848,0.09932248651340947,0.0001392655659384623,0.0,0.0963077870690614,0.19629593885543972,0.2702813514304183,0.37325242351284604,0.4303066492320755,0.45620234884968225,0.47603070549080906,0.47173715337638944,0.4544178544590469,0.5369234210548743,0.5156560719449024,0.4217478786877207,0.3714342116704774,0.3544871728454999,0.32713483157501155,0.2982274536123106,0.2634856100777707,0.25196064526994233,0.28287950797654693,0.35318853597771405,0.4110764475434885,0.44673460382364727,0.4415631877944328,0.4258339297801075,0.3691021436040063,0.28899958149622984,0.24669515779553297,0.32263591794758195,0.4034032427569243,0.45932960043416715,0.4799054975427026,0.4506449119305871,0.45363094895320266,0.5572236795509609,0.6521884405090637,0.5937260725627791,0.4895837176710147,0.416544415294378,0.35535846394224757,0.32159736502005876,0.29128616400678764,0.28314990327377565,0.25289477387166137,0.24102526575043726,0.24985646494396674,0.29814533347398253,0.3645299411751024,0.4064719101879639,0.4199462933663316,0.42980528321145384,0.386498454541488,0.3193236190891473,0.2578945249513951,0.29236360792920557,0.3754437856109307,0.4371941731869118,0.44576189954717327,0.44946763671776147,0.5062208624704407,0.5720701779323849,0.5275388597197801,0.44292456659578283,0.3650450256258799,0.32722181160590136,0.2944251929657775,0.277871906802476,0.25044321225556443,0.22031690850862207,0.20997502217730224,0.22703157849746525,0.2988129345625481,0.35394567546156264,0.391588605221338,0.4032792961620624,0.39642613513354785,0.32764847473326064,0.27909570397665506,0.3137861065715408,0.40974342774903594,0.4793240106830172,0.5028863830697734,0.5083682595454957,0.5112085502191848,0.5177434155539165,0.608112093090083,0.5731592936974668,0.46422268335440586,0.3846927900901105,0.3369112061935402,0.32148284365110724,0.2864897222635685,0.24371728730321873,0.21431385442619533,0.18541308936846823,0.222719051115285,0.2888684749620185,0.3509989750507607,0.3776985179189971,0.3738741995352388,0.3488355392990594,0.27967571314465545,0.2075182722860771,0.2339892509766055,0.3147303923872369,0.3858221472936356,0.40749465412825137,0.42984999934029533,0.44391873502349277,0.5234230053324413,0.6391316620196217,0.7007057346948358,0.6106576832453161,0.4907490771180507,0.38801092820132066,0.30780693404931947,0.2563691211900778,0.23099223700165217,0.21251511444472948,0.19495986961555944,0.17932240253160092,0.17247105460454604,0.21909115442356075,MI
0.7968266255266356,0.8638926779382534,0.8748918464565834,0.8617869609909388,0.8625344865000799,0.8743403537716086,0.8711152440631915,0.8545349555948536,0.8743596251062002,0.8627857783651254,0.8843514080684662,0.8558189463617834,0.7944358047748574,0.7091258209393092,0.6145600998460057,0.5357416846520175,0.509473355415424,0.5562709137807702,0.5967937131045469,0.6627413515996659,0.6709079503836555,0.6959191764448356,0.7083348250759331,0.7164974970552742,0.7255293907106268,0.7174788193908723,0.6530305843845374,0.5466115864106609,0.4202570914395145,0.310272936137999,0.36325241024304766,0.4882123440855044,0.6180829798302887,0.7444980465843849,0.8696069816002208,0.9693103818634579,0.9683008860677256,0.8870079594271805,0.8204297639648983,0.7404915513540966,0.6985633525631063,0.750092042816767,0.7956706684622605,0.8037352942698752,0.8129734805552964,0.8110931106525325,0.8349971518358914,0.8494411800989874,0.8247161508227281,0.8190466778282448,0.8035499011770426,0.8010208665953469,0.800459780743644,0.7883506818769277,0.7906782218731854,0.7353152499993612,0.6449309134586634,0.5560877414743248,0.4737065232762827,0.46109252451756566,0.5195854304375231,0.5903886690445139,0.635527159864651,0.6665293394898066,0.6870836050960967,0.7220777759011816,0.7583631970203855,0.7579581086778582,0.7548908473832681,0.6994441641188054,0.5998757901727201,0.4810254437465238,0.47900955778069054,0.5961837120758524,0.7295856480911342,0.8502354983967555,0.9607642529531595,1.0,0.9276965237519859,0.8495148133068096,0.7803805241360027,0.7136703053167848,0.7399896011062741,0.7942106394217214,0.8177838265060062,0.8192091154759402,0.8088760557369947,0.8028629793458033,0.8003324635916895,0.7756232111885035,0.7846713348349166,0.7768962735963614,0.7943580442333218,0.7734117749372227,0.8013787284450253,0.8273499936723958,0.8508151673169042,0.8230095397546173,0.7821592843848362,0.7044171120955691,0.6080800154502417,0.6076647198659524,0.6669778563346993,0.7083954484685084,0.7227483256480243,0.7480002705043263,0.7646683772255947,0.7828131993603002,0.7795629713263525,0.75649004773955,0.7223064604631966,0.6287279572419289,0.5751689553287727,0.67487502884086,0.804699787457583,0.9100587372574451,0.9273671256706626,0.8680856536237775,0.803928012789676,0.8422296187681404,0.7863480914861634,0.6629070612226804,0.5633438016079313,0.49540730926176835,0.36304569800888986,0.2348123006914844,0.20447193105074213,0.2952540683721523,0.43110754371492765,0.47566596743309075,0.372964313609391,0.2456329941131683,0.11942948958578192,0.0021558180298755225,0.0,0.12132819487033242,0.22180613326846066,0.3423834059803399,0.460930678661851,0.5748736000477832,0.628508653272871,0.6195916253838893,0.6638557380927055,0.6414253226252491,0.6125464943025016,0.6222831008777678,0.5839106705455648,0.5474923829003244,0.4994799313044931,0.4762514384547818,0.5377285524530797,0.6266028419742691,0.695473997361673,0.725597618749267,0.72847600818513,0.7110017681007168,0.6587684252683261,0.6452442743843356,0.6581704544398277,0.6660777466168932,0.6274385476520914,0.6615699523311305,0.7019444710208154,0.693604277375091,0.7152036166521669,0.7145856847783105,0.7074586913945891,0.6716370233251348,0.6011965622972055,0.5904892977591532,0.6086216761420005,0.6913809660978791,0.7586956932687143,0.8005984889995466,0.7381040769803051,0.6132530484138194,0.48573643260542276,0.36256692425770076,0.2318327525154107,0.10945337539211142,0.06830262386298536,0.165928810206053,0.28122665925609924,0.4013716810750476,0.5263495655164698,0.62483629652731,0.6301741137137733,0.6145792860254047,0.5811137532154445,0.5561027221612327,0.5335966237220684,0.5056756412465431,0.4652685489018231,0.39401936385882896,0.3297148512469814,0.35938403717833545,0.4179774331733759,0.514592023920712,0.5961527630420655,0.6445350879081229,0.6606256523224556,0.686973128541934,0.7000698687985905,0.6879335309703287,0.687582920313353,0.697017275094395,0.7025062294527777,0.7161471988908579,0.7070746408570225,0.6946045948729713,0.6772972951920271,0.6309626214559034,0.5913682699203759,0.6209021923753233,0.7095506212614109,0.7768704653028067,0.8233236486343976,0.7533987302649114,0.6225958183059581,0.49626893672309125,0.366787309459804,0.2370181138063523,0.11129295055745514,0.00016774037657318885,0.006920801733548032,0.11576403722970596,0.24060853134171545,0.363758022835281,0.4903012876030135,0.5856137713914316,0.6021445044865623,0.5957576608207789,0.5812315849571892,0.5495839756193086,0.5176109248638556,0.49991153678355627,0.4400791285836272,0.3971528895829515,0.4431387838981813,0.5144706319947878,0.6062895211635375,0.6895774095196505,0.7561398362529563,0.7682431161475987,0.7414229547096682,0.7729293421715733,0.7321868728172061,0.72685477425506,0.7176001160206593,0.7220546165687116,0.7601189986762558,0.7475514480122136,0.7352173466542684,0.7538615349888396,0.6966448953304161,MI
0.7960765263863778,0.7232324567075334,0.6220530271586528,0.5291082953649031,0.4419606016211297,0.40145215242633325,0.4651383211375504,0.5442556409500772,0.6312103375146991,0.7217656604379559,0.7950521602309362,0.860264933655345,0.9226095843729061,0.9714213347328942,0.9907963008959308,0.9947438114611007,0.9991684447048672,0.9790692085830406,0.9197731190809195,0.8333747371664875,0.7212849443318854,0.6137999317137632,0.4878179448391058,0.36719197344545984,0.37036101426511303,0.5016756013676096,0.6325737641889191,0.7642153882164409,0.8793253504920733,0.9834450004048141,1.0,0.9733381986689715,0.9692156655521593,0.9509916717614608,0.9296752685283294,0.8300055280488161,0.8039476155273411,0.8620830997307039,0.9111963872245359,0.9187506454417864,0.9198844413043235,0.9339351973618695,0.9324637820243171,0.9292935685839372,0.9458811698707357,0.9458141664278652,0.9075043425597014,0.912739649793052,0.9165933320374702,0.8992039803188749,0.8939985108370885,0.8820242988995268,0.8826976377245193,0.8470730057913523,0.771332869702992,0.6779200904614,0.5891220671628088,0.49261691526289075,0.40536342317380214,0.39304577673931274,0.4643190132889363,0.5401332354939226,0.6375715683976946,0.7325082823354556,0.8013246658648172,0.8655418581484873,0.9227282071958531,0.9526713053883045,0.9708720974380065,0.9840352358639426,0.9670109309719201,0.9334917087319705,0.8415553610083122,0.7342442871876056,0.63965111534075,0.5307707976738083,0.41567724020281904,0.45684474081962145,0.5911494149731387,0.7184105687734372,0.8410158644692474,0.9505556276970788,0.981227520327967,0.9687985466488351,0.9575639845005237,0.9267136807501517,0.8600565133485878,0.8250642784727615,0.8696853051901292,0.9121467007054687,0.9187631600788886,0.9227948909273067,0.9331923006356297,0.9504678491222407,0.9449256167638302,0.9289752096614547,0.9081248472546983,0.916282879654029,0.9033231142709375,0.9146783676130967,0.9016377547381484,0.8956786546994389,0.895628351274866,0.8905853065057587,0.8476960290646054,0.782525093452203,0.6963419246606741,0.6089527151877472,0.5034171402685703,0.4109996907361295,0.3842262580617515,0.44956956187496155,0.5408654245164786,0.6239889742911631,0.7141387258003231,0.7882231471098491,0.860429600198708,0.8981588911515939,0.9416487602744819,0.9802784397557502,0.988087640737032,0.9818254663360397,0.9525449811250515,0.8884828284877107,0.832249944726279,0.8558536015446196,0.8705950806337723,0.8708505765215682,0.844658489430032,0.8085229298957044,0.7581349794879619,0.6905675169046175,0.6011550853158769,0.5141500831127432,0.4304419888445583,0.3475312933044181,0.2741900575818277,0.26012451493758837,0.3135028088551115,0.4228950248109018,0.5151623374197483,0.6100757427164258,0.693692529894403,0.7611474308666386,0.790763399510257,0.7803549060073638,0.7910724202450123,0.7938655276927289,0.7976281357027615,0.8040590966506,0.8109181226931508,0.8113014430359633,0.8259247407729857,0.8292646592735995,0.8362387965777192,0.8315740974315977,0.8199515277091471,0.8090786118624815,0.821092764022211,0.8089138836144327,0.7545966248603895,0.7078812712394673,0.7471897784570967,0.82316386421512,0.8490296164245001,0.8577874883660925,0.8489890281939059,0.7982129697470719,0.6734152263191917,0.5283500320523666,0.38418987274472327,0.2554783380176118,0.11873276733396132,0.014866093529731117,0.024540988983630996,0.1409507327726156,0.26990100521522464,0.4080460199866143,0.53188885781538,0.6374064733669744,0.7529318757517585,0.8281162406688676,0.8623193796702067,0.861019201842232,0.8420642041085902,0.8286716464330723,0.7829881497451465,0.7212009015698158,0.658699679222023,0.5735648900403976,0.4700959417949351,0.39191109371287025,0.31306787486714116,0.2589970083267361,0.2779282319533478,0.3620449239278227,0.46100208464280046,0.5560577011397823,0.6505994414381053,0.7297896657866381,0.7692346886160553,0.7829571354142879,0.7823244020897886,0.7931212778855157,0.8072524012806936,0.8102227921499154,0.8171894237973616,0.8287730394578876,0.8190292261709233,0.8296145985406373,0.8201264369863019,0.8090975400718547,0.8154250211068192,0.8143883037004187,0.8023949917597011,0.7598393269389123,0.7004628894554825,0.702754085062554,0.7758131464209059,0.8323673517302081,0.8622485535770945,0.8766012828474303,0.8466016773793434,0.719858776736177,0.5906544048446554,0.455811323483847,0.3225929655692812,0.18559049199081867,0.05932119906307687,0.0,0.08175403747157528,0.21540508568725203,0.34327722348992173,0.47117611860766484,0.6014973416436882,0.6956873445951777,0.8039273810857837,0.8611224206906418,0.878389598489635,0.8719291734038501,0.860742152725738,0.8456431547491836,0.7986852353962655,0.731611071974513,0.6615442218815559,0.5765950403238702,0.4865940430356459,0.40722349152378134,0.32657090860578597,0.27044432145576414,0.2989231268843855,0.3850947510649516,0.47443489543978634,0.581250208923747,0.6732400677934707,MI
0.9751290412336824,0.9577664251537323,0.9546995093196802,0.9488105622383125,0.9427667349633879,0.8991617647139527,0.8578509460725099,0.8518125469303519,0.9016005179117748,0.95692185144907,0.9735229367472538,0.9883023066515404,0.9999999999999998,0.9924271338839976,0.9778769462443815,0.9603712244988623,0.9526649715604665,0.9411217081030243,0.9308300748409699,0.91724384089352,0.8902767078971705,0.8588452435171237,0.8528400709288348,0.8495120203641056,0.8289529415349128,0.7866269762198763,0.7366120992992584,0.6911354253672359,0.6476308362041907,0.6317998924811705,0.6615262567105886,0.7045354881883856,0.7336244828252882,0.7627144166259139,0.7905945245792947,0.8132244819823324,0.8235997182156081,0.8077885764363246,0.76005656063233,0.6993136981189059,0.6345875042516234,0.5627453373908564,0.4877237917856798,0.4144686181063757,0.35673992614688177,0.39912798364233715,0.47615593647904264,0.558271309354609,0.6398487004726627,0.713594309794999,0.7926584128146188,0.8636501781145223,0.870964289934075,0.8504109860042526,0.8427678523494058,0.835902440909686,0.8092895637954447,0.7643258887842093,0.7491408502492245,0.7939337156949151,0.8370495923980243,0.8491753474859558,0.8495179831205115,0.8493196220694317,0.842552052371214,0.8340220331596391,0.8258208167979124,0.8208614096788389,0.8079033437898766,0.8013982850977641,0.7999583147166553,0.7953321367030457,0.7894616972972197,0.7918482903962178,0.7883554632306167,0.7750895262364987,0.7500460971238991,0.7134200497973229,0.6706999757417613,0.623347303806749,0.5779104636675296,0.5749403545268497,0.6159162823699222,0.6656425866625773,0.7161278126161961,0.7734906730816884,0.8396624042929908,0.9014746966318075,0.9177752383212006,0.9175517051223909,0.9096622963799164,0.8929568368517471,0.8500436553038295,0.7957670601644768,0.7335736806753406,0.6653032463504627,0.5951294790376551,0.5240200765351424,0.49286572888237856,0.5608515538039147,0.6394997170304273,0.7135858468584024,0.7947528723505579,0.8673479537710509,0.912964039803936,0.8903392893629098,0.8876296794420948,0.894125442887068,0.87362591018066,0.8479896856583293,0.806218024327517,0.7858961758708816,0.8154309242043454,0.8586795313210251,0.8637457747518582,0.8534879046087014,0.8380881156342739,0.8211335501195807,0.7882331882027387,0.7929646096451957,0.8065696628153758,0.8183415479119609,0.8071835183206311,0.7621886280046641,0.7326363349506702,0.7464780781380187,0.7799836867383263,0.8207197765798993,0.8473464670299315,0.8536314788461377,0.8422389286201784,0.8014251546049138,0.725698278578375,0.6467943806000491,0.5729018093022691,0.49127895573283986,0.40912710193737944,0.330480121492424,0.2563556292545086,0.17466789832913943,0.09671754163893209,0.03356320951394132,0.047980556625481396,0.1205724333257514,0.19398202965352684,0.2741166513219335,0.347271848455043,0.42745538050353815,0.502626115357117,0.578582230554866,0.6493215365540352,0.7161369974690772,0.779846308229379,0.8381096782711897,0.8668536642951798,0.8736665710575282,0.8761690475461068,0.847397749957965,0.7786662096188239,0.7175001158984438,0.6640272082777081,0.6168354001964593,0.5712939045828949,0.534035921666183,0.5293655819716316,0.5639808649884066,0.6076814987578225,0.6543227065750927,0.6976249300799391,0.7306844116015916,0.7458607417574377,0.748169418505257,0.7483126481050981,0.7542717760830169,0.7602170453727262,0.7657217757897503,0.7725054164803427,0.7804229828287903,0.7889264109771059,0.7977907388738301,0.8033409378249574,0.8078480245077062,0.808497810831871,0.8072424242017455,0.7789155418797222,0.7252115394113334,0.6962185615962042,0.7131071261380231,0.7458074623412301,0.7866955391533821,0.8021362790306215,0.8083065104028246,0.7999349538656797,0.7428401041941217,0.661894217271082,0.5876584450420494,0.5091358306034455,0.4270275747367096,0.34914545770303795,0.27437351336871196,0.19251037606869148,0.11033760293104855,0.03134607077514495,0.0,0.040638267652475246,0.10743627915340537,0.18514191346962083,0.26343382840666263,0.33779089061151724,0.4162375130345368,0.4891192362599053,0.5615726186557921,0.6344221514661927,0.7022917196191913,0.7620805314057562,0.7809605804457993,0.7659027305991168,0.7402389927752093,0.7158228682722689,0.6836206236315068,0.647597334962583,0.6074185788783681,0.5847284344670214,0.601828640344086,0.6407182610254565,0.6837895087731318,0.733859294015609,0.7827436301010589,0.8068883503673041,0.8093291732265961,0.824346933413947,0.8541481398848108,0.8785265114714014,0.8943274356532134,0.8994374037343718,0.9130192888608029,0.9192386394410208,0.9359609906438229,0.951973557696532,0.952081236154797,0.9419520561411809,0.9258206388617196,0.8803805797779696,0.8213405343461933,0.7915027871311624,0.8115471794112568,0.8511798422475096,0.8914742298022784,0.9138758962217881,0.9208451801249649,0.9133422784883474,0.8666502004269951,0.7928596762074371,0.7110043752766795,0.63538129481295,MI
0.9332823196155606,0.9044468393856901,0.8819240621050697,0.8951411565234753,0.9062601328648106,0.9039463138986312,0.9048225260718752,0.9038501849465506,0.9021977504905347,0.9017241890517864,0.9043631256400999,0.8957940633956338,0.8765769520855451,0.8466104423578995,0.8197395997015167,0.837218579436765,0.8797254988639649,0.9205003414168886,0.9574926368593506,0.977592398698728,0.9919825560605469,0.9940360193009834,0.9661545124444448,0.9171468224065169,0.8518702414867239,0.784777400650853,0.7205963480224093,0.6567468982046467,0.5913694221226505,0.5263431427933862,0.4577286408450595,0.39439588238949896,0.36290152459163216,0.41721076296141923,0.4837058254701718,0.5490024770185091,0.6180835851054368,0.6825822283120024,0.7500619766184078,0.8161511231120033,0.8801503217322435,0.9372677169789523,0.9479874030984736,0.9244729851615023,0.901013306009733,0.9152920515542278,0.9187093841839056,0.9171360049626225,0.9141304452554317,0.9042540940216113,0.9036817235833412,0.9056330423174639,0.9004688406537562,0.881564826272925,0.8546579122054259,0.8277350228480467,0.8354540985038521,0.8750572613787417,0.9177418539241262,0.9537769106505034,0.9749548067229348,0.9802901225260605,0.9795091106216447,0.944163319396834,0.8911353659472385,0.8300549032389044,0.7666486047758019,0.7019056066323373,0.6377323070630809,0.5718040478733676,0.5063789407684552,0.4373509148864231,0.3810914928842557,0.3998804382944443,0.46768131852208306,0.5373207980195303,0.6068655460337492,0.6728355604119889,0.7386933694186066,0.8057344280821848,0.8695357869154607,0.9259828907602605,0.9328292525111748,0.9038550351991188,0.8798137666955539,0.8945791657806517,0.9035294244844911,0.9041121311891316,0.9020132543913852,0.8998016124150934,0.9019427941739417,0.9054943162520332,0.9045226913825752,0.8892365452105964,0.8633038741811556,0.8305386859506272,0.8240070311017249,0.8598462920007504,0.9018724123440374,0.9431047797170216,0.974897466101414,0.9871984011963568,1.0,0.9965025895846478,0.9643624776919661,0.910834445564146,0.8507380634217614,0.7969912735766611,0.7336834263262495,0.6715847208570038,0.6115884697272651,0.547176857641835,0.48032247648420423,0.41553335041719763,0.3464297202352409,0.28148116027050574,0.21449268438680336,0.14539587262167897,0.08462927368390305,0.07032241590864691,0.12723902838651036,0.1967417012785504,0.2663818325121168,0.3360180099108079,0.4045080430763459,0.4685542441986015,0.5367578259527548,0.6008815494015165,0.6590288452803075,0.7033882861091985,0.7679415007852695,0.8220993214513073,0.8813206670475988,0.937624418619641,0.9699196028068395,0.9651821170054184,0.9502769723913753,0.9204781499135246,0.8763776721875884,0.8356372530318912,0.7999166898136223,0.7945777514055419,0.821193012692657,0.8528964957679721,0.8724376388109645,0.881215997602131,0.8767083876275621,0.8760157551025616,0.8777988450393746,0.8808559427141742,0.8750506713160275,0.8580595572396246,0.8527017300877262,0.8779979637451483,0.8825056013398438,0.8291705664780158,0.7652633008340806,0.6978307104547683,0.6331568660776734,0.5658715544320098,0.49882463492558404,0.43394564959296966,0.3645748259505347,0.29655500751183683,0.23232566245079433,0.16326600537922453,0.09398560910408182,0.030416886813614874,0.0,0.04910559840058687,0.11079463798308459,0.16666877634136956,0.23483611780990166,0.30241702280731375,0.366901844043081,0.4361440042067851,0.5045681667541818,0.5686297741869349,0.6360959814901359,0.6998047473569986,0.7634237170343141,0.8267950423102028,0.8891885311305618,0.9414261258888121,0.9563857955283714,0.9490055144887166,0.9290575894032382,0.8923125420077092,0.8511736929954312,0.8099002116747516,0.7914008494515177,0.8102399685993513,0.8398609974480737,0.8657186611446275,0.877857681717976,0.8791004670548337,0.8768625347018695,0.8849050381878489,0.8892245784289856,0.8914359701697441,0.894036251143786,0.8810195437520014,0.8683686415679757,0.88831939561655,0.9053135465521203,0.8601695566173773,0.7932305293749653,0.7286831061008376,0.6606351391468686,0.5965668579496032,0.5279682966460656,0.46290075787663354,0.3960575982075766,0.32654145644584376,0.26043735457822603,0.19468192215456825,0.12516108425280958,0.0566648264492467,0.012220316512278562,0.04350289054958073,0.10968915343304553,0.17552119666091848,0.24151695688413355,0.31041472663467484,0.3745737271237284,0.4427310169905003,0.5123639269551402,0.5819918097148008,0.6498342977830063,0.7132377599853883,0.7767193259468588,0.8418628557540371,0.90363683321417,0.9510945744174892,0.9669649685667889,0.9580703976218872,0.9388955821194944,0.9040391038701021,0.8609269548172729,0.819364270982847,0.7907959464675924,0.8003681577530986,0.8341315081444842,0.8619873322497722,0.8784992146451127,0.878992919394644,0.876053397680395,0.8763398216058729,0.8776816754712724,0.8790860898362534,0.8796062695284141,0.855450051560656,0.8552508756624357,0.8799675134071308,0.8828631936726696,MI
0.9181104501141122,0.9732755142648615,1.0,0.9699055204697102,0.8956202946559824,0.8262898971186368,0.7400269258916818,0.644670062570492,0.5459506891278232,0.4860348071985472,0.53125047539758,0.6073191356182672,0.6732377109809695,0.7269168795797847,0.7658779572395953,0.7138309796188405,0.6430554718979393,0.6830261279362437,0.8023188352878998,0.9180715760009477,0.9264856688604137,0.8650663127101863,0.8411017651386583,0.8929160063634964,0.9584043401087605,0.9555820065003497,0.9161945712726904,0.8660222700304425,0.810847485746431,0.7400958005577571,0.6398384664215269,0.538190901039878,0.4614114697905656,0.4681394153485794,0.5247238146109616,0.6073509760754119,0.6975750957579492,0.7543660448627802,0.7080949506983001,0.6284427342022885,0.6686097419234507,0.7851973760955846,0.8855843846211546,0.8911083868692917,0.904586658088427,0.895973867639114,0.8984997540308655,0.8747586085857009,0.8498314479988314,0.8975742802068787,0.9246186835640935,0.9291665478567994,0.9103301058573883,0.8674947388692935,0.8671110292130746,0.8042873662173045,0.7317044904564765,0.6405890336462168,0.5382692860314937,0.4617932959803328,0.4918728301034965,0.5793822633714005,0.6565212582461317,0.7269979424444983,0.7540962991776032,0.687780228028966,0.6112863116038287,0.6507019835421866,0.7697317497064731,0.8768466674597883,0.8889678291327816,0.8721917371827663,0.8458430678056739,0.8733357865562561,0.9057530275509387,0.9269025368724386,0.9425082753764906,0.9292769733254373,0.9024820982227362,0.8546785519671642,0.7482299585847763,0.6450958490985306,0.5532583031836049,0.534995211069714,0.5993505077060894,0.6747280054591993,0.7271603589369522,0.712735233712241,0.6230917613051408,0.49318185253865776,0.375116093455766,0.40692050140764824,0.545483419233777,0.6806837584271923,0.8147548858972837,0.941564834716552,0.9911763120081529,0.9800796058820991,0.9801555671973041,0.9273168007260484,0.850237485532463,0.7601536125056909,0.6598784661041113,0.5572364927626476,0.4846601426302666,0.5195341452054971,0.5856131915663387,0.6537033478725247,0.7163336741543951,0.7520277701165932,0.6985177751010334,0.6235607779644461,0.6617425867692623,0.7854821978132187,0.87123440162947,0.8803429565995637,0.857110745349678,0.8047272478113046,0.7937257650376139,0.777039344246373,0.6691442602972737,0.5599455189687115,0.4472511157956669,0.298358266316082,0.1984069456840616,0.17005393719362694,0.19672668527161896,0.3228216931223842,0.4582437193029718,0.5851980309173199,0.6669334452026257,0.651440261094224,0.583433080714594,0.5110581205946616,0.44351169413671876,0.3925405036516336,0.41287131433568414,0.5065327610643404,0.6163354415251661,0.7136043856989422,0.8008972873913041,0.8773534745492437,0.9123938531331128,0.8815781419683346,0.7703661915611804,0.6352722917803022,0.4989766146240493,0.3569509895191576,0.2200123441771451,0.0791370862360794,0.0,0.08480058029895732,0.22738442460537556,0.3604907645898239,0.48783666079905386,0.6028780451495312,0.6399451705813428,0.5759730321483674,0.506204837476576,0.4506375379422547,0.4691969808571197,0.556485412961425,0.6618377875435564,0.7687464880013843,0.8348424919606128,0.8675520800962548,0.8738840707063775,0.8699461957979144,0.8384422789354185,0.8019826689369007,0.7863517684010146,0.7933753939801451,0.7971275191752798,0.7219581077151211,0.6040570869250872,0.4764733294340586,0.34072549201307467,0.21188659009180943,0.225104726053047,0.3528004465089829,0.4917525574738639,0.5984924433674932,0.6670266284667399,0.635377287042656,0.5608409526781872,0.4825221623310152,0.4037876515909522,0.3873425192940583,0.44676511902606375,0.551564037323466,0.6449407696818623,0.7235861532280832,0.7749007656833116,0.7753679326457834,0.8317751783266751,0.8595619004161894,0.8512064866681848,0.7963430961857427,0.7700155871373702,0.8154582488137194,0.8376173522453105,0.8318168351029538,0.8393744940851264,0.8062387334296539,0.7114986181932648,0.5865205179412101,0.44966214190818654,0.3043355038807465,0.18703164546207018,0.19639553578290014,0.3235679240815186,0.46417504588289127,0.5936513809052566,0.6525936415151121,0.6038304553968663,0.5137320775578855,0.4389922160412483,0.3874296760581557,0.3522543901048967,0.4018448636404477,0.4898438685823172,0.5918870741014937,0.6857554018078895,0.7599671341498362,0.8195611913606635,0.8622272925703647,0.8751937112992256,0.8264314975872353,0.7782717036929605,0.7745234506374499,0.8300033837562855,0.7998407121169753,0.6796050144181125,0.5562357802396853,0.41024538385341813,0.2646818406469045,0.21310511113863884,0.3183059936216548,0.45473459715841047,0.5860985486366066,0.6671642197921677,0.6426317969786957,0.5945249420113177,0.5213863156837668,0.4495444634692429,0.40635371852069513,0.44981917535147886,0.5409655007634857,0.64027187214276,0.7367759485305578,0.8134488084455014,0.8835634944609869,0.9236980924513616,0.8935760322537796,0.8393877123718649,MI
0.40464981599116556,0.40272959502812244,0.3804067334369672,0.3390354779488096,0.3079512988573405,0.3301670182659906,0.38797552462593,0.44834079251248027,0.49666487131745085,0.5289536722137937,0.5335867943677706,0.5616503089270137,0.5828989144571566,0.6644873494887207,0.762921590294608,0.8651984009300275,0.9605206453545725,0.9999999999999998,0.9277466635799054,0.8270750385654739,0.7257247647683072,0.6201112713377841,0.5205503626232304,0.41242792352020197,0.32004524744335616,0.3455242414970503,0.39004699195251225,0.3743222478468031,0.3143825402003617,0.26656122849815733,0.3028203446072266,0.3544239734919532,0.39506548164457533,0.40989568820071764,0.3989974218716734,0.4050494844379202,0.40692641271518215,0.39394267556945883,0.3614981328415443,0.32298020174253383,0.31786589443465174,0.36394428281669344,0.4329397516933089,0.49376097205784064,0.5302027688337227,0.5509834920578316,0.5428731756555358,0.5504754752482521,0.6018707235952794,0.6862445143531952,0.783841381448134,0.8836388282540739,0.9680356591398056,0.9424458022293851,0.844342301107645,0.7445704410539646,0.6363952348698441,0.5345155610757482,0.4465538718369657,0.36254419111195113,0.29732006335970973,0.32258255164106076,0.3854564859919265,0.3880357041931022,0.3316992090160993,0.26662742262063444,0.26657694487810546,0.3223673065032575,0.3728742073553988,0.4100772919254705,0.43483865743044237,0.4142479880772585,0.39974925003587836,0.399593728753614,0.3715393150232378,0.33374081149420554,0.29773029198921086,0.3229830963657714,0.38039703577916106,0.4410800396488177,0.48817597391148815,0.5339070354598776,0.544221776685107,0.5394858587484974,0.5665755824429961,0.6253622971945083,0.714318484435083,0.8125674761913448,0.9148264082165791,0.9772089337615217,0.9174203278013888,0.8167407818875823,0.7102675384215729,0.6111330136875834,0.5034957829148323,0.40096002345038717,0.30624985016703365,0.3082308441047841,0.3815609605391679,0.41620814398063666,0.38229055112662835,0.31545788303039335,0.2616497337563508,0.29093060856919295,0.35643367622457034,0.39394703931028485,0.4004472088329327,0.4046045191971299,0.39314233878420235,0.38061675530983696,0.36608155930921815,0.33686272097335457,0.2938637460116251,0.3026829923122276,0.361180625247725,0.41884838295330806,0.47830015315631047,0.518042787302843,0.5208680216863779,0.5286340091262061,0.5172105704710959,0.5580537525700942,0.6290983753360082,0.7263072222896778,0.8247678381005243,0.9180155014155924,0.9379588051543164,0.850269316733465,0.7658686634477221,0.6938632014212429,0.5921161237073276,0.513707402919614,0.46559970329033784,0.45985760217654126,0.4627258423280056,0.46341187521729466,0.435292200497327,0.37574880258060994,0.3134390132745646,0.25482027454233314,0.22647761909635578,0.2412072203938116,0.2878873004409066,0.3166884539871295,0.33447764002776315,0.3315098732145698,0.31565427637640453,0.35056822655101194,0.3419016993093267,0.30509589549000027,0.24236860876937905,0.19195660741331122,0.22001213156354438,0.28712515212767475,0.3445961016756909,0.3335336492374139,0.24665741144055464,0.14968042924258085,0.0582289479590008,0.02888057067178429,0.10441948692711689,0.20870030076879487,0.3152342491836875,0.41443154855570685,0.5221210517377906,0.6242242586931719,0.6952826627527011,0.6391131103742917,0.5591964850540936,0.5120018545032805,0.48875945516244523,0.48541799820908627,0.45610070310615947,0.40833525191187037,0.34889990818240535,0.2849617921668395,0.24529896024823228,0.256552545295585,0.3012236154207215,0.33855039221316496,0.35204014077009327,0.3586053265544835,0.38434148295601767,0.3757517284533243,0.337484737870432,0.2931646150627991,0.23690875046311288,0.20061340284640017,0.23338889458286327,0.30188254727464137,0.34276293064695973,0.2956406058901464,0.19706628355626887,0.10014262697978915,0.027927312691122363,0.061688191946357884,0.16182866799921847,0.26152891699347136,0.36699717485936234,0.4700727542819447,0.5718948884036632,0.6743739827234474,0.678258198553962,0.590955217963671,0.5263608949200285,0.4877685151264275,0.49188156991225784,0.49020094194466224,0.46206131852924304,0.42011967839134523,0.3502603037030798,0.2920894686401827,0.2512452890651422,0.253839130861502,0.2973038864860833,0.33662601781247203,0.3360502237962961,0.331267643154854,0.3418780166816304,0.3493068158344974,0.3217676904076294,0.2723704397310043,0.20381476827963252,0.19380921320732658,0.23282832104315898,0.298708711495834,0.32850962246897475,0.26657733936122274,0.17042735545867416,0.07363939389429608,0.0,0.039138454190874805,0.1419957633659119,0.2411586118132354,0.3402616460669552,0.4321229170127403,0.5331436763011455,0.6357066687789634,0.7108227909302574,0.653561149251692,0.566123716621348,0.5072173323654339,0.5030899743942399,0.4831007876210356,0.4741386384217938,0.4480994251150514,0.4048737319848492,0.34639195180016835,0.2846702563439505,0.24197243445722072,0.24886306374770828,0.28485221270043515,0.3320493637194437,0.3452382735273305,0.35513888469907173,MI
0.8736411101251624,0.8755009370007676,0.8802983174378392,0.883379767772881,0.8842525370709138,0.8859191242672928,0.8930653300942653,0.8980208657877522,0.8732423583487539,0.8309065181717941,0.7789430136337052,0.7245677261926549,0.663059665974304,0.6057318537974671,0.5500856367970661,0.4986347209885702,0.4786285197489044,0.5217325015393883,0.573469225028866,0.6254140247253726,0.6764420728091711,0.7280172155580833,0.7750804278149626,0.8144388449170261,0.8426038540440957,0.8380125179315909,0.7952746722479476,0.7394648364516325,0.6797152300589668,0.6165215774485785,0.5531118817544901,0.48801614579782104,0.4252098310439789,0.36325601473767744,0.3101544408827477,0.26274573237709953,0.24506280451652418,0.3024144635688104,0.3649998374528969,0.4309775741087899,0.49526069529944994,0.5592941403915691,0.626748813149029,0.694308841528906,0.7618398067575238,0.8270688674146289,0.8889810267548681,0.9430791528173974,0.9482680927691618,0.9177581880611674,0.8959407526884349,0.8631572550960931,0.8556888219932142,0.8713466955123679,0.8762062633987182,0.8749757468050221,0.8639843307781134,0.8595133632255412,0.8590538141941639,0.8564169658544543,0.8565765659734712,0.8543740331756087,0.8560029518348002,0.8595547705098736,0.8596742626710034,0.8610040351164674,0.8621668361516464,0.8628910026504366,0.8644317113552293,0.8686777794860736,0.8731003875462278,0.8746498254357606,0.8758371152174687,0.8792979554031393,0.8903070573724516,0.9120062332278991,0.9247252178323775,0.9046220934038451,0.861169167113601,0.8073082786629682,0.7524468433109559,0.6944774133605247,0.6332077987582906,0.5777474407648089,0.5394134320845747,0.563386884684719,0.6149881362748642,0.6686643953477729,0.7185698286947069,0.7669418760132662,0.8137381277886726,0.8503347801756955,0.8723961310584989,0.8538324334600644,0.8069719726772113,0.7476919855899862,0.6862716416922681,0.6199041873772323,0.5534105228539943,0.49094850082829855,0.42476595387623794,0.36218017092087595,0.2965422225605363,0.25841757681353816,0.3062710582319179,0.3734245094714833,0.4367455683032925,0.5018190433565032,0.5689783017396556,0.6318570745472541,0.6974768292803157,0.7628151193808814,0.8258914060135953,0.8913143825052001,0.9530517605072137,1.0,0.9951748608713133,0.9720572522649922,0.9462990387326506,0.935602039058677,0.9607222912156721,0.9730338176455406,0.945741488911217,0.9162010669037639,0.9075013686208988,0.9323807539262505,0.9586076293906696,0.963271432065576,0.9125660956268147,0.8453110583304093,0.7789372079843053,0.7164449415580909,0.6496070461245731,0.5828878074441106,0.520427467613554,0.4539268513752408,0.3885539112024331,0.3254790239672929,0.25863113734292553,0.19587826227343863,0.13011542445552055,0.06558424898000992,0.008296681668315709,0.008073356404536491,0.06577128542458294,0.13034657475694583,0.19784665567094484,0.2653984825869201,0.3315142864202424,0.39409855628041524,0.4594901824040716,0.5221598082669707,0.5879190484616182,0.6502409846386716,0.7126443169064662,0.7724473951973283,0.8250233077380142,0.8370315897334921,0.8066156897770511,0.7620627991857847,0.711320283010275,0.6607872721407216,0.609072994232945,0.559192432460011,0.515770007209517,0.49711331877896014,0.5267856009573554,0.5817189873811724,0.6384203390680381,0.6954870576434666,0.7519022210363819,0.8064528033431542,0.8594869354951036,0.8961240263927663,0.8916922142505463,0.8693647385492136,0.8523848300992196,0.8484930645649682,0.8474441502409507,0.8462805685449981,0.8433503142719772,0.839145292774018,0.835935039047824,0.8343904651380527,0.8356299112629884,0.835296091454413,0.8331052412731865,0.8294068435665338,0.8292931598526954,0.8306988944041713,0.8325111385094268,0.8352249356315053,0.8397365593969293,0.8455869965141221,0.8492500490745614,0.8426188866574442,0.8259136744793603,0.8404112606355643,0.8716532269788473,0.8934403862759148,0.8949257665606034,0.8396511357873331,0.7769297105508373,0.7112639557300799,0.6459757180286826,0.5828430488744047,0.5160063292615308,0.45329432832510064,0.3874197727888189,0.3217944394941712,0.25891359590198304,0.191714534230921,0.12415510481719455,0.057018894089895356,0.0,0.0008492925247992056,0.05967636848967667,0.12257647143324862,0.18922188848070864,0.25179679621214857,0.3175086515810783,0.38023013242017856,0.4440331553329774,0.5068190126732631,0.5700911866801782,0.6343337462177155,0.6968906572627456,0.76015690539909,0.8092050041312475,0.8147700101523925,0.7810665423570362,0.7382639491440002,0.6909604876596334,0.6362660494931178,0.5835117937671269,0.5321877773427125,0.48288095729473235,0.4466359310269725,0.46313026545627145,0.5116770691444937,0.5674317174443798,0.6271665366124335,0.6838642647803024,0.7400279612957592,0.7927598470014003,0.841580771630156,0.872242865316037,0.8682035682970417,0.8644215923222853,0.8594899140808978,0.8598663547343484,0.8583921419272795,0.8548076627122299,0.8489395196845537,0.8489290248424712,MI
0.8562471638209097,0.7662987862642814,0.7022075782678943,0.6246273965797957,0.5259432199919656,0.5008665911122512,0.5740466362023791,0.616509541985083,0.6466910759830677,0.7344283419809507,0.8209337700094086,0.8342817542187204,0.7857522003803787,0.7732702388774408,0.8560859810359214,0.9614169235180621,0.9999999999999998,0.9025859349774576,0.7731684924998519,0.6427115388850793,0.5124448271583633,0.38720042410471045,0.31545607979136214,0.38464898205898423,0.4943228520139782,0.6223206760289488,0.748041331571937,0.864180316782442,0.8972469835281702,0.8156792221387954,0.7220602349576251,0.651163783253655,0.5538373857181818,0.48186719999736227,0.516348519747827,0.5434463336374786,0.4973457173179392,0.5403949866126421,0.6248099389933464,0.646869412554661,0.6287566816885615,0.6567687119493535,0.7538124109962305,0.8629729935710129,0.8685395546587673,0.7559213710861459,0.624213974087678,0.49147664526561496,0.363314626566007,0.2450163849080762,0.2174514763597788,0.33217944981867764,0.46185089775193466,0.588903150866732,0.7140181430223536,0.8199066599638918,0.8193146828696996,0.7311059598025673,0.6590807883737722,0.5901468440256983,0.49417513122000023,0.44395251312637374,0.4963188544631423,0.5368264376124607,0.5882137919211503,0.6827442996174977,0.7582937224700494,0.7631638523000743,0.7328553203729034,0.7629840359667635,0.869208737587192,0.9503072599495119,0.8857888845567345,0.7584372616048827,0.6261290264694181,0.49428291799415724,0.36878267239110096,0.2618738194899377,0.2962376454322395,0.42576535899639234,0.5592760547956968,0.6871387000545244,0.8082087306471915,0.8759865925987238,0.8153352427102625,0.7212324680917603,0.6503041478165528,0.5699479963919878,0.47798290868155346,0.44981314437380693,0.5192138694339177,0.5664095988470146,0.5744141361237609,0.6581453334411014,0.7279584519116671,0.7130886460416523,0.665273453138769,0.6758733760781774,0.7736487651448398,0.8703142408890561,0.8345730309283412,0.7057762581055174,0.5729400540515666,0.4415825769345385,0.3149428407065229,0.19356002957609997,0.14354347734555373,0.24828164984553225,0.378231360417034,0.5086831453147267,0.6419719887823219,0.7635630115149648,0.8141349314403008,0.741805271068597,0.6569326481416173,0.5837455643943439,0.49336651366445095,0.4190875501833149,0.4585833204916039,0.47986097804736527,0.4877918983548286,0.47966344596672994,0.4177295379532333,0.30691179492502907,0.276275752311929,0.37103864762225935,0.38417426914285,0.29046562573364065,0.2783212508245434,0.3480895050020487,0.42502974831393225,0.5251350146110305,0.6057795647503756,0.6904361459524158,0.729077578771627,0.631255771515778,0.5055328538708015,0.37478488858557957,0.23951575031895045,0.10631979636719024,0.0,0.014495124889938094,0.1349691039879033,0.26334938448365075,0.3945805678760228,0.527414950122753,0.658435510615804,0.7381673954784784,0.6700638421407132,0.6147306216032218,0.6295252873486568,0.6749835580154631,0.6569162477905255,0.5675705912318574,0.4731033826251363,0.3727724186907091,0.415656225587848,0.49751433361095976,0.4483656115388388,0.39024247863572414,0.4281694121905635,0.5179917475202502,0.6049709497064011,0.6856954953964636,0.7772601744117689,0.7647293527943055,0.6444553548392811,0.5180354292837233,0.3903331522328435,0.2611336285911341,0.13679903201567,0.08059590511181058,0.17347315826453658,0.2975684447045437,0.4211217276476016,0.5525930554954239,0.6920373905659527,0.8106658137322491,0.7929109064517526,0.7097184131882852,0.6951659794680911,0.7227008538995838,0.6941167595714506,0.6021401381628622,0.5060628908926639,0.38626521925494406,0.3300385058903348,0.42553932840022957,0.4595946975933942,0.400653959127391,0.4048416957599932,0.48927845010693516,0.5818010654579011,0.6556884614742569,0.7399191818438113,0.7448344578193036,0.6321509150107041,0.5148819055940235,0.398797143289799,0.2701417252863325,0.1451839544256346,0.047079521109497424,0.08554476645671949,0.20961732488254525,0.33298619455224165,0.4587121302571455,0.5908834984653379,0.7223322379484449,0.7783092086081072,0.6852736687054202,0.60630384407687,0.5838921804770207,0.6055853771749373,0.5737444165944299,0.48469712939976084,0.4002344640413782,0.34180500516707757,0.43456455092131896,0.48995671012870656,0.445158868243269,0.453465495775607,0.5393755936472739,0.6316812855463796,0.7056892456274497,0.7960706501840475,0.8202381200190672,0.7058603414255493,0.5785925312721607,0.45023298213055596,0.32206059170538603,0.20376511697026523,0.1630538348495596,0.2630762023703783,0.3883766895572114,0.5091945219361851,0.6392676473677119,0.7711226066401025,0.8796735994256764,0.842663978063362,0.7432335417723965,0.7178541692832685,0.7622752742312329,0.7883643989368416,0.7202129774170294,0.6212905724816815,0.5223741801171491,0.4297833027399851,0.4912656622702154,0.5523984085661369,0.4889166123456048,0.44821022593680904,0.5152520028969862,0.6111809402760764,0.686550917961523,0.7656768522639654,MI
0.8893458027251069,0.918457151460391,0.9383374920657204,0.9315493094838656,0.8740665582669851,0.7813083971484192,0.6809891811936097,0.5803451049912591,0.4782630543064976,0.42469342818727274,0.5108492712312693,0.6201745020498461,0.7260820542007722,0.824280818472801,0.9226206212715051,0.9974227936529192,1.0,0.9743522521308128,0.9450198165547592,0.9230702786380709,0.9465656392502617,0.9569286335010316,0.95704068505139,0.956502788638919,0.946510367171852,0.9416944614643614,0.9416541072451565,0.9416309593456202,0.9377607293820343,0.9270623366297515,0.9258214275598711,0.9199298489452321,0.9254903756068162,0.9262698687136526,0.927960253307643,0.9386779130264529,0.9160606245736016,0.8572614919030981,0.7917740223478344,0.7164463752489203,0.6409873888838211,0.576204166636785,0.5899071800235198,0.6452775550121919,0.7055145257886233,0.7606315671961781,0.8122213133904421,0.8527109554989716,0.8774897843149398,0.8949997872447288,0.9096350524393353,0.8934567900441777,0.8133427497800971,0.7175454832588595,0.6166159039309123,0.5554898730563824,0.6227606806100652,0.7290796637387129,0.827085539643321,0.9316025724746422,0.9931427028633841,0.9733254775524451,0.9464890059426341,0.9198727131316593,0.9128273415809889,0.9375325803418755,0.9334326004077784,0.9264016075950292,0.9262972045833973,0.9304538588833959,0.934111623815713,0.9349571696952879,0.9360255134867259,0.9336798288674535,0.9414272274114026,0.9416545315587754,0.9424708481182753,0.9512408748336365,0.9434702915395694,0.9409056283182409,0.9194528731589311,0.8640933885645543,0.7962256389741835,0.7193754425173635,0.6419407185140829,0.5731426072633856,0.5557619750667078,0.603852899551248,0.6665345045579709,0.7157664268375377,0.7650822176405989,0.800115780865307,0.8359748664827986,0.8515517858831312,0.8570093974523556,0.8147005373020515,0.7320970923369217,0.6347346960092963,0.5351534176157009,0.43492333897039126,0.3957637310619364,0.4854156137050918,0.5947176721825946,0.6983064823266552,0.7899659328435589,0.8587524996544729,0.8861234065180814,0.8612021984149592,0.8252272924050024,0.7925635632453938,0.786591161228352,0.7912554505932432,0.7504140641101023,0.6760441712002967,0.569153473029687,0.47870791426777126,0.4655534939078101,0.5305544380034122,0.6378064639424252,0.71845924588599,0.6870296735083921,0.5874790924820505,0.48993342032029075,0.4613901191901495,0.5017733036226955,0.6042464101175207,0.7061399863203972,0.7634967910846564,0.8015023792414806,0.8181077549600091,0.7538149600686825,0.6570507291041707,0.5530433140533444,0.4520439536690595,0.34921850736462234,0.24115894486098655,0.1430254067605432,0.04182398402001164,0.0,0.07441228110220144,0.17186050297922972,0.2776746973900075,0.37658084372416223,0.4815031725351555,0.5814607106748224,0.6824865226177619,0.7704333856465997,0.8088900980822373,0.794796980853913,0.7614894548420716,0.7265599556948543,0.6768942812397789,0.6276572589943754,0.56646654094788,0.5130294352548357,0.494828688966952,0.5358450004279693,0.600075028503289,0.6757961241970203,0.752340911149783,0.8266500592170454,0.8840439689849391,0.9039188009993167,0.9047257840869594,0.9047260778425414,0.9047254832358318,0.9037917697656495,0.8927701500006462,0.8916243520616196,0.8942861112343046,0.8801439477548829,0.8886196756808373,0.8893391221985123,0.8893393989247853,0.8893290516556669,0.8859628664271644,0.8603824141859922,0.8558436847171449,0.887733863560539,0.9162315956665914,0.912922620867533,0.8337881299734211,0.7347341647810137,0.6327071138497447,0.5238885583007304,0.42433278340965463,0.319835651367693,0.2104311021104699,0.10455067974162979,0.05751128317986498,0.12188182033443495,0.2242000456660087,0.32250060893370947,0.4305959049556951,0.5310641024378553,0.6337248174183041,0.7322191979000028,0.8237834679906584,0.8566242044597256,0.8412671521824211,0.8166452546825806,0.7765890492715228,0.7252069497348104,0.6704339983667231,0.6110005462159864,0.5530936496336212,0.5236255610388949,0.5511299004004742,0.6169979160181334,0.6918102455552795,0.7666852157969095,0.836805883972457,0.8884229301050302,0.8910340667717818,0.8893432935653758,0.8886103283617328,0.8781163883484395,0.8787023743477693,0.8879057931398311,0.8815801651085367,0.899231621562878,0.8974518498140434,0.9022728725094664,0.9047212507562898,0.9064619650497998,0.9177707902683276,0.912405660897107,0.9114883147624333,0.9052041965463054,0.8656429308249107,0.8647632656913027,0.9039651319702067,0.9327296335597315,0.9360462426446543,0.8606212875463064,0.7576427503511964,0.6578491218062545,0.5537181908688233,0.4474095879927189,0.3491368603543408,0.24293647941331797,0.14595947114015484,0.07851925695827378,0.12832085444035868,0.20958409192875815,0.30329082340453084,0.40149893298906036,0.5076474962316211,0.6055560215974443,0.7076435320625287,0.8048785477135758,0.8830800725586201,0.8902392273907096,0.8616901285439278,0.8313902573248471,MI
0.6346575329614932,0.6787390037011886,0.7230249981246042,0.7514715643474975,0.7483704327845,0.7202290549593658,0.6729998148210274,0.6116402276790183,0.547391447531803,0.4827484763638181,0.4143003984180902,0.3510092380829093,0.358227355873469,0.42425495394842483,0.4935002544192213,0.5608480313195789,0.6264758139657639,0.6955113478650086,0.7629972584496685,0.8202757677901095,0.8858160780638625,0.9523325665915806,0.9999999999999999,0.9737196203539801,0.9265273259719095,0.906046253710645,0.8794216041464579,0.8345380384372455,0.8051533500926782,0.8389696482543153,0.8760804555618377,0.8854259144146209,0.8780253821075218,0.8715813574358099,0.867428638176832,0.8777138257088365,0.882865938676081,0.8815076945228969,0.8705579211699427,0.8340195961658402,0.7814910021214045,0.7256408590419202,0.6680486942322283,0.6100180707256819,0.5491822935325894,0.4931000419834597,0.4606074625154928,0.4925165422146649,0.5456349362332372,0.59667829103046,0.6460579251534213,0.6862013007417936,0.7139899644556735,0.722675775874852,0.7029993879448568,0.6563777915689997,0.5982116478882343,0.5334949897461064,0.4666007284355256,0.4042261025483008,0.39820055053395775,0.46170472982424116,0.5301286658753823,0.595180649975683,0.6636875863727606,0.7329156309180215,0.7998789716544602,0.8658269489285287,0.933794599893451,0.9787929762209456,0.9479106756362893,0.9012426950364943,0.8708996902146308,0.8286902295646305,0.7912348524914735,0.8172768786916152,0.8580194645016043,0.8749638666151175,0.8743184047351117,0.8763636231370963,0.8708258068727847,0.8630554922821402,0.8645876329711989,0.8769525011641802,0.8792664217001948,0.8801727975109545,0.8548337182560976,0.8058323732585667,0.7505763123350974,0.6919201594513837,0.6303453068653044,0.5724276219498795,0.5155687873479984,0.46922120492790886,0.4833392600990024,0.5326992902097807,0.5839318972499232,0.6349655776105073,0.679857414850411,0.7145809146076623,0.7358052288262775,0.7337064933792018,0.702714152202803,0.6530389656779788,0.6498144235960578,0.7056059049115465,0.7467601930814891,0.8102897221327524,0.8794805715330488,0.9408238389761198,0.9372538850859201,0.8763004009207557,0.8110346940368195,0.7421765269812707,0.6753762989623728,0.6092771506037628,0.5401474291824199,0.4724383937582357,0.4070748142095213,0.33814117066567584,0.26886492618261537,0.1995882520748439,0.13031157796707368,0.061101025905447665,0.0,0.004759182176260035,0.065493242431823,0.13403345407694447,0.19511546629833607,0.25571950179082104,0.32462963196912575,0.3935993753490534,0.45903814552061106,0.5260702321155472,0.5880657000488909,0.6296930577785819,0.6830209437601078,0.7167141501899953,0.7064953256670886,0.6746400668609156,0.6316645769634072,0.5829820168436063,0.5294708140298442,0.47861128550790344,0.44196628997774545,0.4542840650424961,0.5047138089938884,0.5621226418622881,0.615721928567176,0.6724117436864208,0.7302270348295843,0.7860470070983666,0.837429124336582,0.8625300251337181,0.8593638011090204,0.8568505866616091,0.8448345676384738,0.8437297218693914,0.8524735200400203,0.85919481696361,0.8584381358601788,0.8577899116562427,0.8462449690793142,0.8044241682797221,0.7648992566183375,0.7789022535941915,0.8258108420035687,0.8646639089266402,0.876075892761408,0.8275443702647965,0.7604587933880925,0.6949147700760702,0.6259028268234341,0.5576670199203935,0.4925713562034395,0.4239055783644896,0.3546970084901514,0.28803369441579174,0.22180694162078865,0.15264190679909748,0.0839619517838954,0.02325530804096096,0.0183118386997852,0.07796535615595704,0.14626656693290244,0.21131773763781145,0.2797465741804842,0.34891669648305146,0.4141741857469129,0.47048433221420294,0.5223866645103186,0.5805503283010653,0.6437486756215091,0.6894402455429788,0.7060087793717861,0.6928288052168798,0.6614227032948137,0.616593618658348,0.5644868877294118,0.5130409009726927,0.46295260748449285,0.4332702601730435,0.46179221386353764,0.516768890260712,0.5738375845449474,0.6319679162505564,0.6897612248571484,0.7474836600122933,0.80431196646611,0.8471170898254713,0.864733298883496,0.8686326561596961,0.8616517536621994,0.8523977866441771,0.8547706591597207,0.8603763600058157,0.8684633225982327,0.8578858380708659,0.8192693437407393,0.7805122577472735,0.7956210370931269,0.8459600576616996,0.8812414678754835,0.9018730193111016,0.9127262650398936,0.8665625352836178,0.7980345047041186,0.7327247750042147,0.6649309144057951,0.5956692206847459,0.5270027235920436,0.4619116247231012,0.3936717310541773,0.32441593096817267,0.25668621706900197,0.1913369954691225,0.12244568476420478,0.05632617259088424,0.026632174150737625,0.07445903914860166,0.14302302943703296,0.21229851790288293,0.2815751920106545,0.350851864276691,0.42002079175114637,0.4862664876679712,0.5520067615697635,0.6148541242918828,0.6714769184907012,0.7152608993014564,0.7332148928948873,0.7116249714804677,0.6681839891469409,0.6210731989659817,0.5736832743563639,MI
0.9356548102924078,0.8968716970310373,0.8164418927169064,0.6954553434869988,0.5780307904933362,0.5792606508266838,0.6677290144096717,0.7592788103870096,0.8084575342195075,0.7797915931654655,0.7488512147011503,0.736572667197879,0.7570806914556165,0.8178192935465609,0.8613267418260833,0.8674346180731694,0.8405635781798977,0.7780541672630976,0.6585257032929643,0.5167167203667105,0.3780437097416942,0.2759844679323895,0.3511796439543913,0.4983277046441401,0.6475074419412166,0.7942306374649672,0.934480421753797,0.9828523369841835,0.9544164908372337,0.8829437177151314,0.7904184148534164,0.6671079853254205,0.6024404802861754,0.6739351359454471,0.777742589271448,0.8492150912457022,0.8506870062239291,0.8043991921714508,0.774360142352112,0.7726163017866083,0.795985350590771,0.8582978043805247,0.882562035841358,0.8901166086082912,0.874698117604396,0.8024908019882249,0.6910507251146045,0.5499130178851082,0.412468037730926,0.2739243772054576,0.20967210752800813,0.33098502237836946,0.4834230088365481,0.6367403944472376,0.7843595041231151,0.9077777810985985,0.9638463191984039,0.9437041684988063,0.8813425487005713,0.7738941099153798,0.6635973256001337,0.6229043456210324,0.7179234566632875,0.8126612471147752,0.8465102873867223,0.8206859553889823,0.7933726608555651,0.7943943415523611,0.8080429041858133,0.8560278572201714,0.8991912816074366,0.924724084109076,0.9337310060939612,0.8768509875814017,0.7645525065936156,0.6321519096787753,0.49773942288175643,0.36589647796590796,0.3587302308475393,0.49434630607172947,0.6495786757983972,0.7974382507694364,0.946309891578125,1.0,0.9846673166924496,0.9010617324747292,0.8028463828554275,0.6835074419662748,0.640206058621811,0.72600463693851,0.8343179783579586,0.8856801808385537,0.8610174136617781,0.8605614662906826,0.8205597051456639,0.8074822566277553,0.8198971502658567,0.8716146401126084,0.8976287803353165,0.9281706203158855,0.9141617338803973,0.8642649770441304,0.7796664414497543,0.6543778937521747,0.5049526042201173,0.3718694480000684,0.3131020197135159,0.41154119456837,0.5643512558537993,0.7118176703471026,0.8616164719207848,0.9526088559212353,0.9591172327643944,0.9129193832708893,0.8032706920239168,0.7003371306258783,0.6654010447799172,0.7558480140317294,0.8309030426469688,0.8904571795879797,0.9022805082397354,0.8987755356290892,0.8249402975322919,0.7368133981562228,0.7435085010817035,0.7712794814895028,0.7163283848454092,0.6159606105075461,0.539324956077464,0.5821434106699179,0.689052793231332,0.7946242396409744,0.8815903789432307,0.8682759404970852,0.7490607451268838,0.5957526286317254,0.4478722289216672,0.30207328646184006,0.16088480032289532,0.02557040407507749,0.0,0.12480259653627579,0.2841188284528662,0.42611165568799514,0.5563743263441809,0.6725390316683137,0.7717418481233356,0.8112727077654274,0.829882320772787,0.8235153631279966,0.7930625769001107,0.7264953018923315,0.6947261642886402,0.7233996599320442,0.7266473291314339,0.7747642837441369,0.7526268930315863,0.7844393698402192,0.7154806306030448,0.6001505261810021,0.5229529343313541,0.5638356256046637,0.6658832813508426,0.7794671440669392,0.8722344065617467,0.9367994775411734,0.8903879941961268,0.7594915565144515,0.6068989756007701,0.45677373836317203,0.30931461349283795,0.16834777035935966,0.13531849353540482,0.2440720543228201,0.378858397159604,0.5141934153649577,0.6572121183321817,0.786810337115126,0.8616002619473471,0.8595768719480654,0.8212932267713438,0.7690949620021832,0.7294079080816385,0.7139593331222951,0.7167430102037091,0.7596816363214103,0.7623340820703906,0.6945745619877175,0.5891787779440292,0.5073279374881463,0.5449662551539536,0.6454472402139468,0.7620126892519061,0.8478941988047355,0.8620360967249554,0.8269040100311691,0.7213423445749427,0.6001322308607273,0.45887114369671034,0.3010528124430851,0.15781775643886453,0.08408113004549289,0.1641171955831906,0.29644943215154695,0.4317505928400309,0.5737742766599263,0.7078248416234829,0.7936123480802206,0.805781320332839,0.7794790032150831,0.7311804585773216,0.6861124845449789,0.663509825933807,0.6767478215452831,0.7178435417200464,0.7350250185250462,0.7280584523331908,0.6456493684757127,0.5472951434379567,0.5149753395347649,0.5815116186011067,0.7119320597278498,0.8190152981310637,0.8627478017191472,0.8658112820379009,0.747568413353846,0.5865133660495387,0.4346447717278714,0.28815711804425126,0.14228641285817645,0.01348383659689123,0.007415190563581309,0.13243200589526127,0.27375032455105064,0.42128074626290557,0.5614806094749154,0.6919892305217306,0.7655623989600464,0.7684467958213976,0.7440910635014673,0.7107880523373402,0.6601902833611879,0.6021635469464983,0.6412555746593966,0.6748583547619456,0.7060536344503707,0.7089355638005963,0.6395225470978385,0.5409404361888561,0.4657629470827658,0.49735984653630494,0.6039090444037978,0.7274826479065948,0.8093115609795425,0.8549925079400471,MI
0.5436669058077954,0.6209365633060049,0.6556845963427014,0.6053900091093176,0.5246216792275153,0.4359267406727465,0.4008219826878281,0.47680620841613885,0.5392469272394864,0.6080992916192742,0.6802405844811754,0.7544635433785665,0.8326518983725619,0.8555526506559321,0.7697632699745691,0.6690961219213647,0.5506851380523679,0.430462781772881,0.4310147746284083,0.5551674174350532,0.6851971596910476,0.814868412392483,0.941549121758448,1.0,0.9261145130634922,0.8563091120975814,0.7740649263486667,0.6786618473505444,0.5844462933449899,0.5482834089176438,0.593411303667243,0.6069093123767457,0.5575422051007526,0.4749083203999591,0.3840364260028384,0.28671316304539785,0.19107195611414607,0.12634746346641368,0.16825607797577913,0.25496357311572115,0.33753289458256397,0.42270875208603,0.5058573954290195,0.5685223530682526,0.5221188996106063,0.43032499169033267,0.32669310258587547,0.20966513924151453,0.1743221025738957,0.2911428921650465,0.4265227702967356,0.5569171066615097,0.6831270358972947,0.8089706851785596,0.8768615347521029,0.8098635193969934,0.7550126851231029,0.6806932579678553,0.5899852600486413,0.5614591027742861,0.637415513636244,0.7148857667821904,0.7573113426490736,0.7686993387956003,0.7299632862275938,0.6484156330535344,0.5530917527309454,0.4656148661340107,0.38986140979122075,0.396469112348262,0.4792682870917937,0.5620415135185528,0.639423641622801,0.7237502179133029,0.7684356539046666,0.6975176008328572,0.5919683863513372,0.4806075685051323,0.3582446062497575,0.27203493889341646,0.3474774321243226,0.48054410871648745,0.6096977692011003,0.7378460527999775,0.8664434586908936,0.9513397175475209,0.8939334371139753,0.821087239312086,0.7523943636989077,0.66831989176044,0.5930721088583524,0.6184395086274534,0.6928716213154309,0.723264783230515,0.7101752983686991,0.6618108671975822,0.5821815309758436,0.48965847328148415,0.3955342690328809,0.29997436459312743,0.20864903461339956,0.1707891848251517,0.23232437704896647,0.3128934021321448,0.39595144575206254,0.47979374434998734,0.5473883044287597,0.5193042516329638,0.43765395284614783,0.35482823013455134,0.25581243343926463,0.19042289838384985,0.28913163060703173,0.42132139085165665,0.5519365485902368,0.6782099254142095,0.7931559063727374,0.7960945989159569,0.7203051932869178,0.6662954999387649,0.5825759049080879,0.5093759087610312,0.5437270893781756,0.6210837323282181,0.6614615508596962,0.6542217520250531,0.5948338544750604,0.5411913472054901,0.5848190715353025,0.6218808286524342,0.5860187849230867,0.5110526675141029,0.4289433246344072,0.4280868752937219,0.5145468517134755,0.6061562999808356,0.6663292983737801,0.660545566744533,0.5513671289418673,0.42210257881930424,0.29105554832852754,0.1586076391744511,0.03587292216243254,0.0,0.09412577989591231,0.21334303385785214,0.3260262722923697,0.42560096946367576,0.4678387034360063,0.4028051825687524,0.315476727037459,0.23198352422235313,0.157589651574912,0.11746896561537357,0.16506458923008616,0.25213791484008485,0.34489844352321564,0.44244457468106635,0.5395690330535845,0.6193607758393402,0.6666244182973333,0.6667442888932587,0.5977013705287382,0.5250008390972671,0.5164355214454388,0.6003820336898942,0.6901677993628108,0.7660632409742361,0.802510592947395,0.7217361245824843,0.5873230605651534,0.45381833201685273,0.31840193136944706,0.19161568197460843,0.12796450463874987,0.2048846172726999,0.327104136535719,0.45578085665358437,0.571011933123029,0.659998828693277,0.6517275810701597,0.5677039674579913,0.4934270471787592,0.40618448639950033,0.3366414008693206,0.32930355615476836,0.3892586384986161,0.474833165373548,0.5707943944999636,0.6587191148243092,0.7114369144930741,0.707303955363054,0.6646789888142828,0.586205206936071,0.502923224517001,0.47766394528174816,0.5598651651993225,0.6583572360603602,0.7225310634721751,0.7142464505385466,0.6010495354668661,0.4715852818735926,0.3387853823957414,0.20464788568217074,0.07850167043104683,0.02494694828369015,0.10949859506212345,0.22939226312782246,0.34534129564966776,0.43697473730511005,0.4933453033827888,0.4355433232599353,0.3541661473242481,0.26576233549791617,0.1812193117254144,0.10094998181493908,0.07536549230384093,0.1372061603932524,0.2263665908361987,0.3212912136705426,0.4171527243909017,0.5045776736685745,0.5591614800429832,0.535596091437228,0.48085733072279124,0.4679252372023339,0.5516259963364476,0.6507365245450139,0.7525120147471727,0.8255341818684965,0.836016157489869,0.7305675325682932,0.602557240772601,0.47077336113947865,0.3376359186548492,0.21829771199952042,0.20916784402597832,0.3237038430098562,0.4482508478218037,0.5683830539712456,0.6759374644216076,0.7600890900597417,0.7345167078690116,0.6638125289057446,0.5881373206566196,0.519016847288563,0.45446488639356186,0.36903211555795945,0.32949483387494327,0.3930858757006517,0.47838387420745665,0.5625865333368432,0.6035098324833785,0.5413287582435844,0.46770989103514093,MI
0.7673654764928677,0.7316932311505959,0.6896909550933441,0.6710677646324172,0.68787455129381,0.7199158417288807,0.7351696401115144,0.7314757788098505,0.72703632266226,0.7230595901016397,0.7247891924179002,0.7379074974292212,0.7449168031314413,0.7501651359009553,0.7475333131806732,0.7388955167130171,0.7451279928193739,0.7402620964264868,0.7483953695437058,0.7388517096195462,0.7331978879010141,0.7262500800167171,0.7201232378776772,0.7012212764663084,0.6614919280660265,0.6010482399450141,0.534436323272919,0.4666884444366506,0.40540914162686326,0.34250529180556377,0.27696350742472897,0.21580844636096774,0.15282819933861735,0.09491405211030601,0.05025077522493526,0.0665776685861792,0.11700295417251527,0.17590735435056026,0.22546963241053497,0.27334532632491193,0.3220947480129823,0.36833830444131355,0.4133256496472386,0.4514581447000019,0.4873629462151805,0.5173026866275516,0.5360876667358099,0.5537697433481177,0.5879286452984704,0.6435699940272714,0.6555830643880274,0.6238066146775201,0.6662688231282798,0.741541048533723,0.8011161962574023,0.8011952103917999,0.7503348351709969,0.7292277704115948,0.7051065140027597,0.6649388028540075,0.6295552554222899,0.6106227512502604,0.6163354783685433,0.6499892664639852,0.6675092450080689,0.6653481597706703,0.6544976581862043,0.6436149494267833,0.635458575447879,0.6216398965415095,0.6058085555320378,0.6017475912474342,0.6131587604923712,0.6269997062549151,0.6396517947618818,0.6398539721146821,0.6244982563347885,0.6041395837694719,0.5864038567713092,0.5815180500114328,0.5776984417684621,0.570812315717026,0.5499936947216248,0.5105020349866645,0.4648923684323112,0.40671947229442384,0.3412572413040884,0.28350793652470596,0.23951618330529834,0.21549908454423972,0.24752638036987196,0.2963623574256291,0.3489293660797217,0.40003373663473507,0.4563561875895292,0.5044890470905266,0.5477128423662267,0.5879230929191861,0.6276001422645838,0.6546191122911598,0.6833357723940736,0.7148466514878757,0.7382899599505168,0.7506960728410963,0.7836763290400004,0.7749363069792055,0.804084832775303,0.8768399794498434,0.9500961575579279,1.0,0.9792045460307168,0.9270955542528445,0.9045603088166514,0.8821728253754149,0.8365863554385262,0.7800512978842749,0.7580194522802937,0.7675271900896012,0.7992722738625488,0.8135400657149403,0.8065356421502932,0.8045192657856273,0.7844330509181359,0.7599831215566288,0.7619670760757771,0.7634521968510848,0.7685491168198055,0.7428293211397605,0.7064069218864684,0.7005702479201257,0.7202696320086739,0.7604503837869552,0.8148651823617747,0.852137513708993,0.871778314268767,0.8835901543335547,0.8732097727605157,0.8051539734080624,0.726282920053007,0.652291124614675,0.5702682864666202,0.49741306997534673,0.4442856934233972,0.4808245071997095,0.553506707320444,0.6323469948342715,0.6949079294347569,0.693325225405311,0.6837513700954152,0.657524150935576,0.6263580837861995,0.5978642069708062,0.5636389256702579,0.5201646793082486,0.47773808872666423,0.4304521569762656,0.3795270497191816,0.3223031876295097,0.2686395506499708,0.21730882981661792,0.18135228048298124,0.174435329668005,0.2040074734849111,0.2462687298277857,0.31051520341156125,0.3688761445032145,0.427538690866732,0.47305654297872124,0.513160425301673,0.5383171587649538,0.5395009767494661,0.5432200346374643,0.5586304700310181,0.5761938321786415,0.5984269081441291,0.6020717913476403,0.5881010057558638,0.568475219584978,0.5665587951496907,0.5602440653053726,0.5678924143166131,0.5834403466260865,0.5999459892561085,0.610486516628606,0.6221257940704765,0.6272410821283474,0.6286846875975707,0.6014864521580408,0.568027836662429,0.5602345737110759,0.5850122606371331,0.6019373446009331,0.6467194902951929,0.6826321665526902,0.6957418710501422,0.7109670491000335,0.682787420487331,0.6096035480697166,0.532363828531619,0.45905316803479623,0.38113141916140236,0.34294746183466396,0.3858792755535463,0.46420269421658267,0.5346466041552467,0.5521820499352672,0.5224026256918499,0.5026302812647065,0.4863150139394019,0.4573740609175494,0.42157386016524345,0.38398768207349265,0.34200084006062736,0.29360345227498197,0.24208949589707696,0.1954081677348125,0.14487858939735676,0.09207881807140428,0.03734117853114571,0.0,0.0012387978164762892,0.0450115904563837,0.09816802548545689,0.15763681459504708,0.2204580061991417,0.28337364509272756,0.34892978128497587,0.4198288073837202,0.48459147385492685,0.5450414195183151,0.6072733577305369,0.6561694314439439,0.6800234678202619,0.6787709626080098,0.6812972574950233,0.6948838255734615,0.6974774985756582,0.6935503392296241,0.6953595320430179,0.6968423354956825,0.6960774919776958,0.7034512320854476,0.6930370922068572,0.6855050501666042,0.6829181019937973,0.6872978458056824,0.6901369444260239,0.6901478657426621,0.6888307572062939,0.6639788798366886,0.6363241916432325,0.6273546369885694,0.6371029692655439,0.6707108211729449,0.7169372357627037,MI
0.4640658424907387,0.3924150001424558,0.3310867554864445,0.35133030341350624,0.423744142526965,0.5037646426797906,0.5754461573919039,0.6475382577956532,0.7255949217296496,0.7880064999136955,0.8132215578246393,0.8093500446767412,0.7767006325239074,0.6726011961841887,0.5707069063529504,0.5502373029262033,0.6499000834177027,0.7593415578875939,0.8618118179396617,0.9395532873876857,0.9119212167631408,0.8599147792658521,0.833583569971744,0.7955086141320975,0.7625816697279109,0.797117086516228,0.8454060787353868,0.8670836951517242,0.8814497249824162,0.8926233872944365,0.8957584581044946,0.8908921453526761,0.8920271339815469,0.8910779398864004,0.8588947831879268,0.7985453134618203,0.722515535322426,0.6402450041606382,0.5527188069003435,0.46572775506594244,0.40963262647658016,0.4465711966391894,0.5220020118162441,0.5965693786042445,0.6670634483080766,0.7314443488681044,0.7824832899723679,0.818728576106142,0.8396227854892211,0.8213210618787921,0.7244481965708811,0.616921457581594,0.5089577233002225,0.4289687143106331,0.491402113039197,0.5994501540126507,0.7060117801743382,0.8044649041187646,0.8406157691379201,0.7881115644518637,0.765361450250079,0.735659192053792,0.678370526709136,0.6709374882580454,0.7140592987620562,0.733894414171953,0.731556770301081,0.7376970681986177,0.7477539877570805,0.7588466868303407,0.7519260706455109,0.7000921748694879,0.6287317865809396,0.5468305124198038,0.46684404178999594,0.38639155004919346,0.32028536612786485,0.3442160581679894,0.4233899414622493,0.5082751883680667,0.587293257049398,0.6632887777222751,0.7384353979357412,0.802845236328829,0.843841850439071,0.8755694865790908,0.87642058310785,0.790224560821795,0.6810556303957704,0.590570619540113,0.5805175057887193,0.6838079036347016,0.7894219954873303,0.8961252469858496,0.9902621045705082,1.0,0.9339003053086445,0.9044463176153505,0.8610924376809006,0.8069446793824353,0.7940976614552722,0.8406850667021373,0.8675682120135058,0.8578091121348508,0.8378381061031863,0.8350935275531981,0.8350858778264931,0.8341568975351707,0.8129469499014621,0.7586393083145957,0.6798444753397619,0.5954472298484879,0.511567227085512,0.43676077146408243,0.45257074360474103,0.5388369914519946,0.5377363281519627,0.4440556178686661,0.3786847865699341,0.4326786104302691,0.5228221875197177,0.5621903378477247,0.543259743144878,0.4694233381530819,0.36828568642639015,0.3083290448479217,0.30075760156865927,0.3430315779452624,0.41659413683011426,0.4963430746314552,0.5849909963223885,0.6699900707607469,0.7406082718111193,0.783424907259564,0.7904332336980788,0.7997337515543803,0.7944398726082338,0.8037264586806838,0.8200926901034351,0.8045878850987416,0.755524122609974,0.7342781345815017,0.775988138459057,0.8302390056320874,0.8722206854943604,0.8736759810629819,0.8128162338447225,0.7079961067041474,0.5983479506207141,0.49161188611650797,0.3805120264095676,0.26972803215901475,0.18329544347068816,0.21339192037402777,0.3159140040802637,0.4251916443562975,0.5302851312175676,0.6363243410690087,0.7412364340135009,0.7993917638513883,0.7850832528136693,0.7360279209374383,0.6605497162944873,0.5816277412488953,0.5031971440618506,0.42278101683690217,0.34415072257398194,0.27330196576736543,0.26646373983660676,0.3274879858980382,0.4038774770622535,0.48466545578842624,0.5668880028880046,0.6494732476596488,0.7020754113021304,0.709639972398092,0.7000890256529755,0.6898983256629068,0.6846381408221278,0.6788574503581577,0.6417251824058265,0.5936348017747775,0.6228355996212023,0.6850377803460761,0.7266070696465534,0.7301912749526043,0.7017997641873528,0.6013179460655076,0.49601027424383703,0.3831754995163015,0.2798312832646477,0.18946739987293792,0.08309561336275206,0.0,0.03155511774342701,0.13296719508461408,0.24260283274447203,0.3581103230684859,0.47339194709056276,0.5808607773377874,0.6886030035636446,0.7703106744388175,0.7658560176182321,0.7212864085421096,0.6623609999431923,0.591030122337338,0.5174142551809564,0.4425136761642423,0.3776623463919022,0.35706105528995624,0.40822918541225794,0.4910915976453314,0.5760350025418162,0.6591932321501579,0.7399618241923624,0.8107660136558765,0.8494813264915213,0.8537523263376245,0.8515062261591679,0.8560546775256848,0.8404527566189448,0.8288249954048066,0.8120892784794029,0.7725413814861826,0.7207536135311119,0.6969095942636998,0.7438335617125502,0.7915485886538449,0.8113557803339875,0.8023855594799851,0.711664253035142,0.6037028359876908,0.4940112489902506,0.3861296418024447,0.27274350846545126,0.16785819944477454,0.07697705498853447,0.07320366891265606,0.17327430254975384,0.2879274326083534,0.39385646368368765,0.5049121922464206,0.602750568020284,0.6895289428126534,0.7555111185574392,0.7576185064378747,0.7018934759660862,0.6289929595690698,0.5516134203454253,0.47772190874357134,0.40279867578151674,0.3282720796088152,0.2758369066241708,0.290457774003422,0.34657734396222506,MI
