0,1,2,3,4,5,6,7,8,9,10,11,12,13,14,15,16,17,18,19,20,21,22,23,24,25,26,27,28,29,30,31,32,33,34,35,36,37,38,39,40,41,42,43,44,45,46,47,48,49,50,51,52,53,54,55,56,57,58,59,60,61,62,63,64,65,66,67,68,69,70,71,72,73,74,75,76,77,78,79,80,81,82,83,84,85,86,87,88,89,90,91,92,93,94,95,96,97,98,99,100,101,102,103,104,105,106,107,108,109,110,111,112,113,114,115,116,117,118,119,120,121,122,123,124,125,126,127,128,129,130,131,132,133,134,135,136,137,138,139,140,141,142,143,144,145,146,147,148,149,150,151,152,153,154,155,156,157,158,159,160,161,162,163,164,165,166,167,168,169,170,171,172,173,174,175,176,177,178,179,180,181,182,183,184,185,186,187,188,189,190,191,192,193,194,195,196,197,198,199,200,201,202,203,204,205,206,207,208,209,210,211,212,213,214,215,216,217,218,219,220,221,222,223,224,225,226,227,228,229,230,231,232,233,234,235,236,237,238,239,240,241,242,243,244,245,246,247,248,249,250,251,252,253,254,Target
0.37648627695581116,0.4528625922964501,0.524828577829129,0.5761868916191585,0.6355624127020033,0.6746391557928607,0.6799175661562925,0.630117248515894,0.6510822182582224,0.7255380579072556,0.8053313027039516,0.880564626422038,0.9240160291746288,0.8827469931173898,0.8423604359346207,0.8072980435811973,0.7655351077989639,0.7162229234367211,0.6904006271399726,0.7109272600919662,0.7488157918821444,0.7868622126885724,0.8221050193273979,0.8425364690146745,0.8431978721776251,0.8500928453836712,0.8535146006680835,0.8395525222402346,0.8143879381043247,0.8082404765171619,0.8317135855785499,0.8357472688381792,0.8185437174996816,0.7728397419155234,0.7065446972786124,0.6281357615811346,0.5494925202283351,0.4670452878000696,0.38986369676527965,0.3084473961192665,0.2251977718375392,0.14478437671216027,0.11621815902946386,0.17564024126101063,0.2565918781562748,0.33525656906389867,0.41475001271339573,0.49777169577022395,0.5764253689947608,0.655610277895693,0.7332907608805191,0.8105611145275254,0.8850012591185915,0.9128112004011021,0.8627076816031966,0.8210213881005587,0.7856371925262488,0.7407188096048322,0.6955852175025022,0.6686233168471282,0.6809411781804894,0.7149158259419474,0.7435464696119102,0.7699415436365143,0.7666233760812099,0.7583045881494478,0.7688268898239737,0.7694605301100298,0.7440967496898409,0.7367870667037296,0.761571257933867,0.7715176266542317,0.754421425866895,0.6953408524239985,0.6192213395228693,0.5386468049946008,0.47007832258198545,0.4041141872612629,0.3331970882777969,0.2554059930246486,0.1728438122379522,0.095359775157427,0.018585558348032993,0.0,0.06528737902837844,0.1355916904356178,0.2059657298898775,0.2770356250795798,0.35866049045500936,0.4388750507898108,0.5168948519738895,0.5984631116739244,0.6754315027693499,0.7549154109504977,0.8296516670586492,0.874848931116042,0.8343065887217375,0.7893803680414161,0.7615711878962542,0.7204135448582686,0.6755036083245839,0.6474905456966421,0.6679890457564864,0.6989811179100934,0.7334724455642104,0.7599443811314196,0.7621374891451399,0.7697123148274453,0.7811915803093917,0.7734269132755202,0.7850900824235169,0.820347398939672,0.8284465994705571,0.807598467969168,0.7422120564560827,0.6648728059198318,0.5870474137065477,0.5070442832428145,0.4270696886749493,0.3488791181372096,0.2658992411265204,0.18635661421288363,0.11841823494688919,0.060094699760755654,0.06857727034440642,0.1388191484084763,0.21881599769740112,0.2964631863058058,0.3771105888635463,0.460164020933877,0.5357311795973686,0.6099056425222972,0.6889621937552691,0.7675546641032381,0.8455404117277984,0.914396362415333,0.9155227256684727,0.8671452424034801,0.8385473696697342,0.8009589210551119,0.7568466430502755,0.7163240749248333,0.7135749276180386,0.7430445401499247,0.7405215343762265,0.7671412567886006,0.8104443958322681,0.8523656551662248,0.8818261097781174,0.9250712237004316,0.9780256096335388,0.9999999999999999,0.9459492712464682,0.8674012668799115,0.7903020730272888,0.7134112529952851,0.6322903789737492,0.5536237177122755,0.4794510119384999,0.4780536757595816,0.5550857810525992,0.6335442482035584,0.7126521262683273,0.7888038302084205,0.8452639718068616,0.8502583845881343,0.8545319404570847,0.8321498316083921,0.8034192372213061,0.8065609933682053,0.808291470418738,0.7942642684556528,0.7895422770264479,0.7759207885772027,0.7438424001891389,0.7104176200734637,0.6832696269885427,0.6981027020162688,0.743435773911934,0.7836129267037247,0.8129969784955869,0.8569883657591083,0.923129733722866,0.9496315717367932,0.8981820391405911,0.8341722837868163,0.7656086900639442,0.6834937471859551,0.6002483164749172,0.5192496597412976,0.441819624513336,0.3617581576877483,0.3436328230880469,0.41271899245732435,0.49528370254014054,0.5730995311447095,0.6526292789860678,0.7280809818218222,0.7850359039168794,0.7963764780465951,0.7989731271832404,0.7809918341838592,0.7678361899618583,0.7918631677574391,0.8007983599141538,0.793776276682476,0.7881749975985676,0.7995306692990086,0.7896340553545619,0.764501827345185,0.7336828846420297,0.7042967879528451,0.7123926497846228,0.7537072081264945,0.8004891159840185,0.8360406140984472,0.8774275863940088,0.9384443787282942,0.984318940670211,0.951416811574821,0.8790833246293083,0.8029153636180647,0.7256755062558654,0.6462364915178945,0.5692669492863199,0.49776405701425663,0.5145319667861284,0.5934609029054269,0.6722940806144927,0.7515074341512397,0.8280223222672886,0.8632063848180441,0.8601202009510319,0.8667207098249364,0.854659943920082,0.8350113035935657,0.8519582912196021,0.8737769340986844,0.8816737805743794,0.8778475906699535,0.8713941096974359,0.8705884776755125,0.852080750872047,0.8182515202941539,0.77987739258964,0.7434187774203246,0.7240128443447135,0.7591990176244608,0.8058705191042258,0.8443735695601328,0.8797097170377485,0.9345503428218843,0.9888116280247751,0.9707279669357051,0.908500699568508,MI
0.30532703246954407,0.3628274063076389,0.4136333971488364,0.42432072402338994,0.42481593726114353,0.4223271391600263,0.40208873259636224,0.41014758210829116,0.41855380466356573,0.4161601944631199,0.4312344240331556,0.4445179357478777,0.45381330199791936,0.45391998325490235,0.45329396940848365,0.4307872027866937,0.39345420398445974,0.3731028811046695,0.3757567152212973,0.4322104993755591,0.4798710022709334,0.5050605347613524,0.5021602999912398,0.5142554667081187,0.5082881827678669,0.5297604392580233,0.48473382749556126,0.3924031044339169,0.30533374107500677,0.30420681430376595,0.39347465372220114,0.4965999146497735,0.6023952229409946,0.7145767476691036,0.8077783693437017,0.7862839101145682,0.6838188869759074,0.5825712940547039,0.4789976317317306,0.38496652266318776,0.323553853206378,0.29435843262429584,0.25871944181784245,0.230353923647296,0.19876762698877481,0.17258779911321653,0.13147520881617814,0.07944162561633439,0.026518345204983973,0.0,0.01330787782308418,0.0646995898943401,0.13721439955841763,0.2165682938289959,0.29714754822163725,0.37236978443022517,0.4402576258576838,0.4863477272833978,0.49498326915106805,0.478228522753283,0.47579518607242166,0.4651879729056758,0.454116682515477,0.4536126489448358,0.44128129673010497,0.43200142925135143,0.43214867404549784,0.44400063152160785,0.44161028096254507,0.3890438981135307,0.34475746887437264,0.32724713346269807,0.365784465484027,0.4185160789364568,0.4546667180651087,0.4640623644507236,0.4668703966416432,0.45961529145240165,0.471041701111103,0.45806109606323187,0.3687348565984583,0.27171100891022926,0.2437763977913825,0.31397357875770426,0.4170991822508885,0.5288997710595318,0.6302448924462944,0.7195213643626475,0.6760577709354814,0.5704253721595172,0.47191064025388174,0.384967884975036,0.31115911618798187,0.26581194306442324,0.24702019736785852,0.22918657771819229,0.19581376970072473,0.16434149042558444,0.1198065752969133,0.06796327469679442,0.02620011007494405,0.015899871853963354,0.037004281105257775,0.08309468868390368,0.15311218306067342,0.22978560044216323,0.3059951390854052,0.3669360759171778,0.4189844709079993,0.44726590154133383,0.4534496618516708,0.43980693250586445,0.43194135028622416,0.4318813738472098,0.4318813738472098,0.4318902270609293,0.43535915529417535,0.45210173808889254,0.453910459922406,0.44793343651535666,0.3975357679888827,0.3624443938856112,0.3332200700890935,0.3654493074297527,0.42403027779088953,0.44847235280008224,0.47472301404923956,0.482416984214213,0.5319854980360064,0.5506681535515567,0.5440360075137987,0.5141439492122255,0.4927907572179864,0.44159026668548185,0.4422274224113458,0.4825846888156953,0.5244520976346716,0.520752678362959,0.5175722146972741,0.507089233955079,0.5066001311738453,0.495157362276907,0.48743746358281737,0.5042443859511145,0.5068416166025838,0.5132371145853547,0.5185864212219604,0.5160001673626624,0.501332404169859,0.46075615335843256,0.41058698071318434,0.3500488406908997,0.274979679600734,0.1945102307848403,0.13137165471945833,0.08842979726832212,0.08451731948295294,0.1298052228461648,0.17637299935410278,0.2230012176072811,0.25085942748212053,0.2827078872643489,0.30591888570406534,0.32941209044541697,0.37478291248168727,0.45824616039464505,0.5504845716003866,0.6489408801275642,0.7569976638602625,0.8572304766448133,0.915650536912048,0.8672861681246444,0.7708094330040791,0.6680953328996915,0.5618573935040354,0.4604602307166763,0.4725651396176196,0.5373538696133107,0.534102622501023,0.5288738229397341,0.5288510218413149,0.5278285163390581,0.5106541939953235,0.48160390846910506,0.4267067055210787,0.41540511196456453,0.45156306935405555,0.5054906727681621,0.5114337243751677,0.5067155067331499,0.49744243770485586,0.49133624802417186,0.5060491945378098,0.5084719998378531,0.525065349019807,0.5304949607002643,0.5470920166513262,0.550879674903856,0.5508350383567078,0.54295399285501,0.5066098700206076,0.4396451366450189,0.35631156644828765,0.2760953958453727,0.2063264738183217,0.1316425071331242,0.0746447606699312,0.09872866681188919,0.1416162213364629,0.19271643095800783,0.2333289893598387,0.26486162099473276,0.29242374406217797,0.319416296999707,0.36084934644951216,0.3880186228986351,0.43339942082728733,0.5226369200834409,0.615723916428704,0.7202988237264072,0.8288959932956517,0.9349145022881387,0.9999999999999996,0.965918219815221,0.8810998127954641,0.7801020626140969,0.6700958391564598,0.5622775898276475,0.4987594615178397,0.5695860443981742,0.6089392368869087,0.5916285856932832,0.5743380824395565,0.5693117071422011,0.5673139442584825,0.564659596508621,0.5280392281586241,0.4787604223890294,0.4527914281183931,0.4581359234116267,0.4975022899322479,0.512687657066929,0.5274467275496213,0.5142530997985024,0.506867421796545,0.5067855935481935,0.501237876642004,0.48571012189397544,0.4847750782976177,0.48627475922590113,0.5021778467633164,0.4922558795804428,0.4842812456106107,0.465127293125021,0.4181427231575383,MI
0.30532703246954407,0.3628274063076389,0.4136333971488364,0.42432072402338994,0.42481593726114353,0.4223271391600263,0.40208873259636224,0.41014758210829116,0.41855380466356573,0.4161601944631199,0.4312344240331556,0.4445179357478777,0.45381330199791936,0.45391998325490235,0.45329396940848365,0.4307872027866937,0.39345420398445974,0.3731028811046695,0.3757567152212973,0.4322104993755591,0.4798710022709334,0.5050605347613524,0.5021602999912398,0.5142554667081187,0.5082881827678669,0.5297604392580233,0.48473382749556126,0.3924031044339169,0.30533374107500677,0.30420681430376595,0.39347465372220114,0.4965999146497735,0.6023952229409946,0.7145767476691036,0.8077783693437017,0.7862839101145682,0.6838188869759074,0.5825712940547039,0.4789976317317306,0.38496652266318776,0.323553853206378,0.29435843262429584,0.25871944181784245,0.230353923647296,0.19876762698877481,0.17258779911321653,0.13147520881617814,0.07944162561633439,0.026518345204983973,0.0,0.01330787782308418,0.0646995898943401,0.13721439955841763,0.2165682938289959,0.29714754822163725,0.37236978443022517,0.4402576258576838,0.4863477272833978,0.49498326915106805,0.478228522753283,0.47579518607242166,0.4651879729056758,0.454116682515477,0.4536126489448358,0.44128129673010497,0.43200142925135143,0.43214867404549784,0.44400063152160785,0.44161028096254507,0.3890438981135307,0.34475746887437264,0.32724713346269807,0.365784465484027,0.4185160789364568,0.4546667180651087,0.4640623644507236,0.4668703966416432,0.45961529145240165,0.471041701111103,0.45806109606323187,0.3687348565984583,0.27171100891022926,0.2437763977913825,0.31397357875770426,0.4170991822508885,0.5288997710595318,0.6302448924462944,0.7195213643626475,0.6760577709354814,0.5704253721595172,0.47191064025388174,0.384967884975036,0.31115911618798187,0.26581194306442324,0.24702019736785852,0.22918657771819229,0.19581376970072473,0.16434149042558444,0.1198065752969133,0.06796327469679442,0.02620011007494405,0.015899871853963354,0.037004281105257775,0.08309468868390368,0.15311218306067342,0.22978560044216323,0.3059951390854052,0.3669360759171778,0.4189844709079993,0.44726590154133383,0.4534496618516708,0.43980693250586445,0.43194135028622416,0.4318813738472098,0.4318813738472098,0.4318902270609293,0.43535915529417535,0.45210173808889254,0.453910459922406,0.44793343651535666,0.3975357679888827,0.3624443938856112,0.3332200700890935,0.3654493074297527,0.42403027779088953,0.44847235280008224,0.47472301404923956,0.482416984214213,0.5319854980360064,0.5506681535515567,0.5440360075137987,0.5141439492122255,0.4927907572179864,0.44159026668548185,0.4422274224113458,0.4825846888156953,0.5244520976346716,0.520752678362959,0.5175722146972741,0.507089233955079,0.5066001311738453,0.495157362276907,0.48743746358281737,0.5042443859511145,0.5068416166025838,0.5132371145853547,0.5185864212219604,0.5160001673626624,0.501332404169859,0.46075615335843256,0.41058698071318434,0.3500488406908997,0.274979679600734,0.1945102307848403,0.13137165471945833,0.08842979726832212,0.08451731948295294,0.1298052228461648,0.17637299935410278,0.2230012176072811,0.25085942748212053,0.2827078872643489,0.30591888570406534,0.32941209044541697,0.37478291248168727,0.45824616039464505,0.5504845716003866,0.6489408801275642,0.7569976638602625,0.8572304766448133,0.915650536912048,0.8672861681246444,0.7708094330040791,0.6680953328996915,0.5618573935040354,0.4604602307166763,0.4725651396176196,0.5373538696133107,0.534102622501023,0.5288738229397341,0.5288510218413149,0.5278285163390581,0.5106541939953235,0.48160390846910506,0.4267067055210787,0.41540511196456453,0.45156306935405555,0.5054906727681621,0.5114337243751677,0.5067155067331499,0.49744243770485586,0.49133624802417186,0.5060491945378098,0.5084719998378531,0.525065349019807,0.5304949607002643,0.5470920166513262,0.550879674903856,0.5508350383567078,0.54295399285501,0.5066098700206076,0.4396451366450189,0.35631156644828765,0.2760953958453727,0.2063264738183217,0.1316425071331242,0.0746447606699312,0.09872866681188919,0.1416162213364629,0.19271643095800783,0.2333289893598387,0.26486162099473276,0.29242374406217797,0.319416296999707,0.36084934644951216,0.3880186228986351,0.43339942082728733,0.5226369200834409,0.615723916428704,0.7202988237264072,0.8288959932956517,0.9349145022881387,0.9999999999999996,0.965918219815221,0.8810998127954641,0.7801020626140969,0.6700958391564598,0.5622775898276475,0.4987594615178397,0.5695860443981742,0.6089392368869087,0.5916285856932832,0.5743380824395565,0.5693117071422011,0.5673139442584825,0.564659596508621,0.5280392281586241,0.4787604223890294,0.4527914281183931,0.4581359234116267,0.4975022899322479,0.512687657066929,0.5274467275496213,0.5142530997985024,0.506867421796545,0.5067855935481935,0.501237876642004,0.48571012189397544,0.4847750782976177,0.48627475922590113,0.5021778467633164,0.4922558795804428,0.4842812456106107,0.465127293125021,0.4181427231575383,MI
0.8170739967854741,0.8561284527580699,0.8797180512654494,0.8871149475266511,0.8736336893187178,0.8102734307150798,0.7266872316411963,0.6501754055978124,0.6000820305204086,0.6240560641548669,0.6535852069507302,0.5751528606326823,0.48107113763982534,0.3938742292247668,0.29764668423524787,0.200778787368723,0.11154070153235929,0.025514357947311384,0.0,0.0715437501693219,0.15809917447661115,0.254044081016372,0.3511773517541634,0.44828226543313754,0.54147968274409,0.6293262838931841,0.7242925954400448,0.8093801640039324,0.8843930578615058,0.9270173947571954,0.9349479200302884,0.9231251026952385,0.9078604522501885,0.884873476954658,0.8483188851799148,0.8062643265261771,0.795583826524634,0.8037444202417328,0.8226300170211733,0.8597758967593829,0.8585108106998576,0.8429823343447616,0.8430508199864739,0.8521124479900009,0.8689003809008684,0.8615949154416171,0.8664247086075958,0.8613015843824188,0.8293315504465422,0.7909615008620243,0.7561764056577023,0.7434634811293226,0.7646732821410567,0.7601734124711197,0.7511195867277236,0.7443462535596364,0.7159633417507345,0.721658159043008,0.7626290433598675,0.8222087418899238,0.869338092311873,0.9020825003098774,0.9471331352502277,0.9489505941162315,0.8788439332065157,0.7919666404538133,0.6959342053898598,0.6069846297748398,0.5151188178113584,0.42032615408678353,0.34341284592201515,0.2600723689315616,0.16809453354451542,0.07557155255402881,0.02360127543334034,0.06800964264676268,0.16081982181390475,0.2488736544510739,0.341774936565846,0.43887524959950075,0.5360100269903476,0.6330405204973413,0.7240033685629956,0.8106815178891045,0.8894431098404103,0.9264083839391131,0.9198054782726006,0.9108031553993021,0.8930842815564233,0.8711843815496942,0.8520090329088659,0.8221873955739432,0.8017355716587076,0.8054561740286827,0.8253520451755552,0.8653108023677929,0.9002110058500878,0.9080710508173759,0.9116896028440615,0.9219734463559857,0.9281469935579543,0.9115911569432431,0.9061772212980828,0.8982001104322686,0.9021684873398879,0.8946958064444168,0.8951006292903079,0.9036793258597224,0.8935926095625899,0.8577300505509491,0.831079840437505,0.8457327682165119,0.8783379446226693,0.9067550260690649,0.9163581883854375,0.9021392240402439,0.867614189353201,0.784632172277701,0.6924755266319786,0.5955603912543033,0.5054285567721672,0.41482678487642244,0.31783100786180674,0.2231624692322942,0.13627990356058706,0.04755055557641508,0.03365970526153084,0.10961584568201044,0.20478939226895787,0.29171033122579626,0.38632983670895094,0.48285488794941145,0.570567772941301,0.6632946392969246,0.7506345397356504,0.8350702592672079,0.9074356640826144,0.9456097353657584,0.9397396356530023,0.9254946276803497,0.8982767970659731,0.8752100872817452,0.8525704869199047,0.8922910941280857,0.9221177971423413,0.9474423741020781,0.9693210335693869,0.9815624704063575,0.98814647974318,0.9654528555437023,0.9088205919148125,0.830807396599232,0.7442035545253713,0.6555541713365003,0.6281453222212361,0.7125645479303733,0.8061456207691642,0.891180408324246,0.9560100237725411,0.9622602833595348,0.9576756001591848,0.9505724057529059,0.9268144947375732,0.8868425530537032,0.8855441864307447,0.9255642901848808,0.9477576523058409,0.9442169330724572,0.9311188929740906,0.9437589289647421,0.9427051012565408,0.9421487915034612,0.9491361781339014,0.9505849371598474,0.9658957610438879,0.9668800182157578,0.9542584355242341,0.9568680294796288,0.954082559220488,0.9353439454453885,0.9036556077992268,0.8681306885246884,0.8516963205491133,0.8631568792456548,0.8895298571706827,0.9124567014322771,0.9283938072404518,0.9505353526454228,0.9603405938063465,0.9661400043096238,0.9545466804787919,0.8928519711489888,0.807656189557896,0.7214510852450509,0.6271646157944855,0.5455268652115488,0.5509674426370574,0.6429068084961356,0.7317265813995635,0.823033588315617,0.9097148524740113,0.9831218298172952,1.0000000000000002,0.9865450469853594,0.9442727219947431,0.9102736791926482,0.8663062792158425,0.8038687421640176,0.771564261244871,0.7859620923627906,0.7979816160055437,0.8028705099221998,0.8345641262852437,0.8095568377536069,0.7959701681210294,0.8137196525026005,0.8459346434823873,0.8853011320548763,0.9114069352247929,0.9218435057002596,0.9093530461677195,0.9243822103308126,0.9198535952850502,0.8923772411656856,0.9015084122476698,0.8984161595740423,0.9063752935448257,0.9094952773846947,0.8839809957505851,0.8523073593804262,0.8370730266132786,0.8575939589642807,0.8981004068798539,0.92787998073309,0.9472158970099727,0.9617254540878324,0.9750433660022757,0.9725078033113148,0.9487833683608258,0.8949594674465005,0.8106800976351509,0.7218598720643563,0.6338856480334278,0.5417780128648453,0.48683339424493144,0.5496148024968013,0.6453258841595002,0.738757505774635,0.825643571684006,0.906973158635717,0.9340474379295303,0.9266492426665736,0.9161817847489753,0.9026015218292402,0.8600983033453999,MI
0.73559523729211,0.7383000193915628,0.7403854262817133,0.7535138960237955,0.7626214227263826,0.7732025563029121,0.7742184372757541,0.775414702710294,0.7624957282410163,0.7330744940846716,0.7491829053136754,0.782870867152746,0.7930879736056542,0.7925341275529485,0.7319727558963467,0.6398091938611632,0.5459526679712026,0.44663504982586866,0.35600667952947207,0.25918227198485044,0.15901428408424634,0.060077007940892546,0.0,0.04732313164814128,0.13625125348970335,0.23549088844729393,0.3261064585005464,0.40337196418248755,0.49507304287093445,0.5868594726015228,0.6778557158621825,0.7634391794938504,0.8096605708442892,0.8100776085964188,0.7734971390748906,0.7326413893959232,0.6775642913359263,0.6209332793684901,0.5678274371149321,0.5189084075189769,0.5131465577051149,0.559470988788513,0.619145020658161,0.6807294515819349,0.7384256479172664,0.7711740422499367,0.7636330764743451,0.7544470619753332,0.7659387520054715,0.7782443108945958,0.7793933610699679,0.7780177569005264,0.75750422579305,0.733040492520995,0.7441756133951771,0.7817314557377246,0.8113199453269426,0.8382964725539104,0.8651620157978508,0.8138607240016151,0.7238114640502831,0.6249348048046941,0.5342830229854205,0.4374946072995849,0.338620763598769,0.24857450657313307,0.15508036696464678,0.11248265827193271,0.1696442609842872,0.2629381902617116,0.3577760161266148,0.44990384784871384,0.5497829105088834,0.6499707019601031,0.7491443487676288,0.8379623145719552,0.9069730291563189,0.9342970872580425,0.9361542519926043,0.9065949661556738,0.8578375738317443,0.8233713969640846,0.7700454186235182,0.7206403595558633,0.7199507575975281,0.7636722572398424,0.8237305839583065,0.8848591298220922,0.9264501451240799,0.9207141331032531,0.9063244751160289,0.8834500579657911,0.8657441668838914,0.8564788574595785,0.8351038321579214,0.8160726180004847,0.7806060908745187,0.745037385239617,0.7323042538275222,0.7525820829231207,0.7483779748401824,0.7533644990299555,0.7245098996850747,0.6331443488524378,0.5330310451617102,0.4330129704629122,0.33972533783939207,0.24602755783636376,0.14811354515430986,0.05974970670620383,0.011285569220468306,0.07123534932931874,0.16269806525773634,0.26134119962258784,0.35139837588489176,0.44825188090093904,0.5381398770420138,0.6266310803604722,0.6875687198126892,0.6889190336020117,0.6642711467167155,0.624524173497008,0.5626108022538592,0.49807248462968845,0.4405294004379028,0.3852161918579955,0.3488419921268926,0.37123638920092183,0.42957096967078967,0.49870006427738467,0.5635923583085258,0.630146062098393,0.692735043667219,0.7385967271569824,0.7646951915102709,0.7714453881980967,0.7909885879159977,0.8114438146036842,0.8038776244700836,0.7808572427888851,0.7402476847016133,0.6823163381716602,0.6195058259444317,0.5524328841729829,0.47974932301202067,0.4191356994133253,0.40759946792064583,0.459364272198606,0.5199309059815107,0.577891268250343,0.6417051540213881,0.6939940326708274,0.7280405493576318,0.7505443110524777,0.7530502373750054,0.7480432219666491,0.6770176004369937,0.589660402777004,0.506975132217236,0.43970277052628126,0.45867163634151464,0.5531939474718683,0.6452549003509391,0.7362339432900846,0.8200150367414465,0.8442873910725428,0.8061157451878223,0.8101345695530275,0.7974696891148474,0.7789312221258178,0.8000192274538116,0.8379158579258208,0.8641613050702177,0.8863778201131409,0.9029749780451879,0.907936789865039,0.9301519564442344,0.9550322729682752,0.9662171992260027,0.9715427649094464,0.9344789040699162,0.8774729257269862,0.8192791016244625,0.7673453608152125,0.7704325918815469,0.8267659944601324,0.8736441803021968,0.9115796966564802,0.95326905895427,0.9818828377691502,0.9813013513076219,0.9627525098013092,0.9205311765983875,0.8374970617161654,0.7468591618894305,0.6566424714704997,0.5587952594970247,0.5208486346458296,0.6032048216637738,0.6930883759051354,0.7891825989534107,0.8782962979914419,0.964051954022874,1.0,0.9396187893531045,0.8867761869685564,0.8637017381661911,0.846620216143128,0.8032420994029881,0.7764718540824389,0.8009841798810249,0.8122293023254734,0.8187218780532683,0.8213624018039498,0.8105163840542104,0.7999300372888349,0.8023090765056615,0.8107461806351108,0.7891385469228451,0.7397268016818512,0.6808906011099762,0.6157950633624152,0.5602044885521815,0.5607450680342478,0.6169280658888621,0.6738991003264312,0.7255213936791578,0.7779190870531236,0.8192579006496938,0.8475994413173815,0.8507640848199678,0.8413801799969391,0.7826795972572751,0.6952982709368487,0.6046407037854626,0.5210515815636345,0.5404778152448642,0.6368786226926693,0.7276234642267885,0.8240933654113625,0.9041655954107823,0.8873150802001155,0.8343357114882153,0.8253435967473681,0.8070948302651697,0.7808156863638311,0.8008777801348272,0.8120266715765019,0.8122533214267391,0.8108436235271599,0.8006235835016811,0.7923428621469455,0.7808357566780537,0.7832077565325615,0.7761383632818237,MI
0.6334686113329218,0.5894444354788226,0.5347083935823318,0.4475707794265924,0.32482610110370036,0.22723727359885437,0.1640389029968503,0.14842913078151954,0.1249144792108079,0.18766659185088486,0.2924732973235056,0.40007911322401446,0.510656411980269,0.6255676169600082,0.7248035478529391,0.7833253509261526,0.7964157016250413,0.7908913081587943,0.8144520418485892,0.8137048024822229,0.8201467467175028,0.7983748908815493,0.7454233346257224,0.7303123982445356,0.7848111294416729,0.8426623915951619,0.8805725494119918,0.8871697038070954,0.8490423850867632,0.729047096032093,0.5872940751545586,0.4412535536687807,0.3050203782953038,0.16289392285927562,0.07624998238035108,0.1462530779647606,0.2810293561742876,0.4213870421599051,0.5577715650725961,0.7015637233752838,0.831994334942872,0.8560558377942926,0.7655129257896718,0.6949096112254489,0.6355097229745503,0.5884123847068516,0.5175874923508896,0.4445168636066885,0.3669451564563211,0.2761675669647494,0.19072178688720864,0.12786204587318828,0.1560558395787921,0.24728407255376794,0.35140436245716433,0.46891787397315987,0.5904559376746685,0.6917571829279456,0.7554697912883319,0.7604762094123374,0.7588458280424022,0.7650493976949653,0.7832754766044339,0.789788134471364,0.7416927353416396,0.6939583237856937,0.7139831177434193,0.7808067175746736,0.8338757901157319,0.8574178205897391,0.855503145147051,0.7562455021926313,0.6214093746461558,0.47294817021757307,0.336364935066809,0.19175002435647137,0.059270736440009575,0.0,0.0942567398273697,0.22841009941492363,0.3759049721935641,0.5127821758729989,0.6535370782170187,0.7760705705776139,0.7760504834262139,0.7043936295780848,0.6512459277438816,0.6008749573820453,0.5442649213895847,0.47447769121533456,0.39447596570992793,0.3046198852116082,0.21417399626398304,0.15389056807321744,0.1668938678058023,0.25473728946951724,0.3610972804326531,0.47211943582943494,0.5948197742361079,0.6978477857376122,0.7665666577426302,0.7736421794310369,0.7773048585513238,0.7856915721827291,0.7984146130467926,0.797186590432371,0.7602086150333167,0.698854511461712,0.6988647926240512,0.7533427616774806,0.8095662019244534,0.8392403125538306,0.852740420271334,0.7745252525953856,0.6487748293359559,0.5192502061879445,0.377987739642474,0.24220613960687087,0.09887630003390413,0.015387414038522618,0.09029548041594948,0.22890896893971346,0.36440781560718305,0.5125797846893301,0.6628445480969773,0.7795034531033624,0.7495584442025316,0.6869769835767601,0.643024132240793,0.5905893677091987,0.5334387024136169,0.4686114041148026,0.47904376370105295,0.5626934188105293,0.6222793545185996,0.6729126526577809,0.7173251694605773,0.7701321554045593,0.8629988944541744,0.9626237262724247,0.9666653069682791,0.8764517636540186,0.7479043398678278,0.6118887751223054,0.47765925268214904,0.4891742102425418,0.6166214131894168,0.7469049680544639,0.8711863552059822,0.9345203803032507,0.9098722055968791,0.8959808975667367,0.8611023412281802,0.8058552473401357,0.7636333560273569,0.8074139530625462,0.8525795871454824,0.8668757910763305,0.8637047584840958,0.8529012112017327,0.8474247033086257,0.8462645582639898,0.819923244162803,0.7495804184822816,0.6386445618772689,0.5272959375249955,0.4149893835596492,0.30726748611330024,0.22830737581448712,0.26552544923533095,0.3550838392766327,0.4436224508698059,0.5233163764780318,0.5926547336058747,0.6537815468909653,0.6989331942881738,0.7578207821571699,0.8312723948515868,0.9361051794545654,0.9859082344605334,0.8932175298379836,0.7576579007395883,0.621161788134601,0.5117042776714515,0.5789886389006416,0.71013920722402,0.8373934483327519,0.9283927747810301,0.9236674725756098,0.9067965266589013,0.8749282346784515,0.8156345145225794,0.7830532896578108,0.8210907592881558,0.8465896799657271,0.8460797486481857,0.8320931270197738,0.8351666381941634,0.8327395382574014,0.8251423580321879,0.7761072429504732,0.6823624770368526,0.5729192082503674,0.45921558125883344,0.3472702488651218,0.24802405566873365,0.21735686647876884,0.28599770485872433,0.3705431371795571,0.45990249728279853,0.5337216629196857,0.6055911439221484,0.6700519893940284,0.7201318903418401,0.7845585816410852,0.8697562306014781,0.9773344651136537,1.0,0.8970599628653635,0.7637098311965187,0.6206838967387833,0.5325047563145833,0.6221346455216517,0.7537031103583551,0.8795568395600064,0.9668882532909642,0.9595785426170331,0.95063615651268,0.9192130098055178,0.8593510986830095,0.8093436125417615,0.8294747210689053,0.8746226563187869,0.8825555918166512,0.8856361681684728,0.8744893219701542,0.8675267957590806,0.861009583525632,0.8274414287012233,0.7602835566838739,0.6665224109327905,0.5576167367017626,0.4447194262733425,0.3335414009341502,0.2253779084851537,0.2261613414543726,0.30911273601161815,0.4204694466089913,0.4386331202588134,0.4340091209398982,0.5090583093295042,0.5447868828022111,0.6109857334162268,0.6632573341092067,0.7054654420909579,MI
0.482010220471651,0.5267249109709284,0.5708257740244074,0.5593252862034037,0.5806031148571171,0.6439269974874022,0.710813447219963,0.7721279532216876,0.8255996200410545,0.8578144755335844,0.8577138509729583,0.8564508239488275,0.8564449341051397,0.8563944500464853,0.8519518154617589,0.8327336200694075,0.8345504072593488,0.8551020518047687,0.8686872783320925,0.8288199207614597,0.7552475536600409,0.6761820093570998,0.5970965425996098,0.5222210392096456,0.4423192500951687,0.36190533940983394,0.2859500987997958,0.20840836598815848,0.12820391272141396,0.053410776660182235,0.004736551069475681,0.05063932165204432,0.12593709867744474,0.2033006347766857,0.2838566037174345,0.3628941894273856,0.43779794765100477,0.5177287610564949,0.5983123781141824,0.6754747261626197,0.7357231022961137,0.7603414904306645,0.7341350351155362,0.6901132192198289,0.6342066253002039,0.5781712819241067,0.5231879717621712,0.4730165037127234,0.4669555529943883,0.5153655380164643,0.5756432234551685,0.6367063309944685,0.6974739339252498,0.7605176698525578,0.8138328216940103,0.8442045642547364,0.8479153374920549,0.8424790145067051,0.840424861470831,0.8405308751058786,0.840989045754946,0.8261490419766417,0.8294733777388867,0.8532102283826124,0.8816686742895219,0.8689462006008792,0.7970080717388055,0.7199973670179396,0.6400857551247796,0.5652211237758744,0.49210726387028125,0.4270598288763612,0.3624591665092901,0.29193338292612214,0.21182394764537316,0.13168509433036868,0.0569969861036933,0.005040964411552218,0.04636679155136059,0.12013445747474638,0.19987641822569202,0.28034102399121275,0.3566072956062101,0.43380628742586014,0.5141859707901859,0.5903255896010986,0.6648476702086246,0.7321805486291948,0.7602050636277191,0.7320934528915575,0.6854489908221955,0.6313794176616201,0.5740426645753349,0.5201544015594624,0.47637907106997535,0.4846334013378295,0.5351947245895812,0.5986453661265834,0.6596348370472085,0.7203996865316318,0.7802698906315029,0.8327847587950103,0.8551263829575233,0.8564430142405237,0.856500587604305,0.8589127821024947,0.8632994266261305,0.8656566662672969,0.8495715816774354,0.8485776500605133,0.8668153930018507,0.8884349305253498,0.896776656716294,0.8285798286202384,0.7535238596026441,0.6749454165332542,0.5977137888051502,0.5214911200482824,0.4410313850708194,0.3604811886214432,0.2833772462805684,0.20701962598706947,0.12658985500469822,0.04933493439319747,0.0,0.044185025660182786,0.12048910251857425,0.19668474530535163,0.2771260912552458,0.3560850448351701,0.4310239202067423,0.5109877704409158,0.5898641041872106,0.664190716094418,0.7341632243172949,0.7671085932825517,0.7428062832867666,0.6982838685756223,0.6450081297203489,0.5861380952779509,0.5266182300037614,0.47505094705478745,0.44973261010714394,0.48261123853361676,0.532652724628639,0.5895116295055394,0.651457545143276,0.7056300053435409,0.750759688963559,0.785448533116085,0.7956590693211516,0.7583273902450618,0.6899973773328223,0.6169788243249716,0.5748572370104181,0.6297535300053436,0.7065001671475439,0.7847558202779705,0.8600610859059701,0.9388362624088171,1.0,0.9859700317531301,0.9272504862371094,0.8915861370459433,0.8732554669090766,0.8879347249066896,0.8903240297451707,0.88301384277426,0.8770072437825547,0.8756953252653725,0.8756608355368352,0.8710396597834105,0.8359057845683449,0.7824108010896575,0.7231741643157625,0.6605309317666133,0.596030639544699,0.5375289783247728,0.5064485455660188,0.5452136547379414,0.5995361062228981,0.6536912027724466,0.7088907863595975,0.7539246492771203,0.7850279549958488,0.7824938060517941,0.7353990887165196,0.6656713466447697,0.591691297602706,0.5141471512800286,0.45269298730558094,0.4902917425633242,0.5698503500322551,0.6469491730872032,0.7233000135516834,0.8019983216942632,0.8769888741100147,0.9548298467691034,0.9875072184686473,0.9379336115564063,0.8874527308049931,0.8604581192879708,0.8516202346623392,0.8646255139692556,0.8606191187486434,0.8623569119012933,0.8673749756566309,0.8676682691697748,0.8663263446869867,0.8464299699933229,0.7979149623588024,0.7396933058363107,0.6787178415271671,0.6176059664054412,0.5542523979151746,0.49992813266817193,0.5013024057090825,0.5559360263269739,0.6124788825543044,0.6664777510809974,0.7196217416387245,0.7619932929059756,0.7878752047745852,0.7753522981119669,0.7169838792665097,0.6435920795956471,0.5690377317943063,0.49024407948981796,0.4205381232844867,0.422586632521341,0.49845782174170994,0.5788284964665495,0.6546181888513263,0.7318627978143679,0.801175698837288,0.8701247032157238,0.9460566903679342,0.9877150022893264,0.9446689097726269,0.8948140845947397,0.8672038562117543,0.8579427652637981,0.872228300747107,0.8756707900911249,0.8756897084898341,0.8757097401502192,0.8779222396962105,0.8827033076514843,0.8684307665370221,0.824531019286036,0.7646201107342498,0.7066492094289885,0.6859805785215622,0.6461397839890872,0.5920260403752258,MI
0.2074536629892454,0.1886476320244439,0.18322839889382303,0.20402714716877313,0.24098196705414665,0.28266870030517177,0.3306999204729322,0.3618239367015703,0.3398915677114016,0.311271953004693,0.28037693678140796,0.2658965985564672,0.25808708023815363,0.22843250099160306,0.1722134146960923,0.13176572680614518,0.14529457402143775,0.20355227026228828,0.22066709896518466,0.1602812151242592,0.10291099289834182,0.14868287631555033,0.24037159628336724,0.33625546656600447,0.4320577075459817,0.5179054725827594,0.4967465207060928,0.3976781063846233,0.2976976443218975,0.1971850640762196,0.1149696351746794,0.05472629970235188,0.028447189421884733,0.010315616909560177,0.0,0.010210360697982868,0.0508252761735184,0.0988896947947473,0.15403776468552177,0.20877715278401876,0.25599786535989066,0.2756634595384888,0.29081429460253494,0.3140584974747309,0.32877375020094046,0.3456642409250361,0.3548283101550429,0.3155410294522909,0.2818965626550165,0.3068425762767619,0.3696138131203477,0.422576028182299,0.41333690465208184,0.3423929828046792,0.32494757143612807,0.401944217309699,0.5075267302874864,0.6086815794098586,0.7016391530311257,0.7454614646228315,0.6687934628666823,0.5722887194319011,0.4758645113860016,0.3819364881534759,0.2986333698209793,0.2434859937777687,0.20870925415761787,0.16035466423881095,0.11787617094757818,0.09629048323518541,0.0954269313716325,0.12846087017552454,0.16870088130231276,0.21639731772522364,0.2519994684669178,0.2304562096386169,0.20107960547543113,0.17472718724445402,0.13659805629970423,0.13338956416054604,0.1182928112745012,0.07072715125409701,0.03360105324489959,0.03047674954333779,0.0957125714578253,0.15067796993629612,0.16418325653515708,0.10951487934017479,0.1190940176117885,0.2045144488999866,0.30188993583802315,0.39786149357473866,0.48414848166291113,0.4645045514579249,0.3689722706405787,0.27329973817872855,0.18415155945106987,0.11170371441392968,0.07010094203406103,0.05436940442032823,0.042426813282838705,0.05560655517907698,0.09591482960935416,0.1495682052225802,0.20711813713269445,0.27410464242307375,0.3394745046654397,0.4055639886058904,0.4450028720025361,0.448558198801555,0.45575693766010916,0.4873300883057019,0.5256505763757762,0.5648675288919613,0.5804800511634589,0.5458213582728781,0.5067447173508741,0.5365576078346006,0.5991372206357788,0.6247721260920973,0.5720595703391615,0.5043160671981064,0.538264007127891,0.6274943666067156,0.6804678186425566,0.6731276920210196,0.6329486751263378,0.5837514240908979,0.6028996371347208,0.6363560636266956,0.6242580986626791,0.5863131880343815,0.5473899354002807,0.5130161910674635,0.5021881264426957,0.5011525584060599,0.47767710170321154,0.42045097310279544,0.3524946491082348,0.28130759089630697,0.22163269555953358,0.1665494731741073,0.11448639095255331,0.0963613148740774,0.10131192284783141,0.11603271972685736,0.14525263868064764,0.2212313870889937,0.30313446608632777,0.3802007828056473,0.4759480653069814,0.5754072988368675,0.6751179468726307,0.7696832346261737,0.8500665430564389,0.8354655767170067,0.7452156238657368,0.6376025923834514,0.5374657848195188,0.43946963520318993,0.34526449873969955,0.25797952272391367,0.2415956551790206,0.21622149148405256,0.17764922524457116,0.12033229993191297,0.1036250045377094,0.14860984550679213,0.17066935027548524,0.1727338073519844,0.2026160801817425,0.2359071280438485,0.2633639042131284,0.29358092059037677,0.28795132686980773,0.24781688563887627,0.2025531415077082,0.16220268751974576,0.14375822849833408,0.16445117659095443,0.20237752362149086,0.2504992338898875,0.28388984218712876,0.34695252091933826,0.44364272474428956,0.5397187272032675,0.6356667495375339,0.7325612728684483,0.8287340500857052,0.9231515606195431,1.0,0.9814753983572637,0.8813109395874217,0.7748736013526898,0.6786580874431745,0.5838919685233823,0.4975586269815788,0.4832464485310375,0.48489200593039206,0.44719050723482656,0.38849753701846357,0.33417451414060295,0.3608363132334307,0.4072564565722918,0.41029663599581045,0.3974017219579986,0.37557899748126067,0.3504091003450216,0.3276245623197278,0.3223230522961882,0.3030368239478496,0.25520974252545026,0.2011430037160209,0.14849341613246647,0.10120357812259684,0.06766796667123165,0.04861829381593097,0.05677271981629328,0.0784788852005538,0.1255116107195735,0.2038595973731674,0.2943869020361274,0.3930593582844035,0.4904370845042276,0.5911836968912616,0.6921943532907506,0.7958364538336675,0.8625345950262413,0.8228585724401003,0.7250506328693902,0.623694243490371,0.5178976868382525,0.42315085821841647,0.3293267874091792,0.2453957808776983,0.26204584446152346,0.2802575752346175,0.2567824212191776,0.20178758025244603,0.20080630297430702,0.25654305695105517,0.293690411963619,0.3023449035144017,0.3225061014011601,0.33830397410481217,0.3679999329933876,0.3970143580749004,0.404381323986867,0.37761011065359007,0.33105579010098785,0.28974410580598065,0.25000333634820837,0.2255390074016379,0.24162227392658808,0.2663665303337446,MI
0.2556619388296184,0.31087851203720396,0.40309365621870574,0.46731602489013424,0.5265165332275146,0.5402153472354749,0.4619335350802012,0.3592997184931628,0.27052623757629,0.16468450832180848,0.07566845145581147,0.0853027245565432,0.1861690382833565,0.29662857349952,0.4103779711656652,0.5228764152467322,0.6359890017237184,0.713390295405834,0.6767097145293977,0.6046520747759536,0.567404845193769,0.6165002113774491,0.682925231985613,0.7534321246023556,0.8030467339229297,0.7863965598437521,0.7661682439859709,0.7983550723334978,0.8642715784239288,0.915956590037859,0.9067841848664071,0.8623529768281171,0.8147266961899202,0.7791571404729543,0.7487784964127822,0.7266072273327366,0.7212608120281918,0.7017667305094486,0.6706872366439809,0.6454216964911077,0.6937735974843728,0.7439395480357991,0.7379542811783586,0.7042176766908512,0.598060919161687,0.486101345141297,0.3762299375685467,0.26724044904908384,0.16394161197876223,0.12465251612267769,0.21000283033806744,0.3236732604050645,0.4319619509988222,0.5266371610070162,0.6396447982099285,0.7491779179266786,0.8137501508594891,0.7677897714271911,0.6911469810239073,0.6463026741800393,0.6161195359543199,0.580780894353194,0.536558014216229,0.5034554528910982,0.5185976498018054,0.5835683830866678,0.6651032006545479,0.7346368816655326,0.7849383771860494,0.8139994932328021,0.8261312279713628,0.817113345241792,0.7900221599160795,0.7626443340567284,0.7279874163497224,0.6773885979756589,0.6231198236331355,0.571824191358099,0.5729082717944056,0.6097971997146296,0.6148142667144527,0.581536078484417,0.4668322314094686,0.35361124280673595,0.2429043415531731,0.13268146540067738,0.02976144098555844,0.0,0.0781567938985015,0.16996152937250741,0.276955357038672,0.3979132268596639,0.5198763210243906,0.6104217495783457,0.5807544972120628,0.49405821601902744,0.40094723319000636,0.3313666229273471,0.3009675278263373,0.28593195694412943,0.25871970584655424,0.24580752103692216,0.285872635013535,0.35531828374259566,0.4342009313789683,0.5079024261789882,0.5626461107383776,0.6013891351195326,0.6471708366915752,0.710322049955388,0.7781708210794758,0.8454718195643678,0.9001453945786007,0.930899162754665,0.932499981602172,0.898519927422802,0.8556646757502802,0.8304178975121275,0.8621194428881709,0.8576922265544988,0.835751172279791,0.744310454277124,0.6251690660392941,0.5054905286260465,0.3960952108987632,0.29090447334574465,0.24181051554785737,0.3133998425694151,0.42770737980057305,0.5385881974220603,0.6559539540611543,0.7673602485959385,0.8879797722639959,0.9924066467441457,1.0,0.9018542327035894,0.7891944321205835,0.6785507100150143,0.5621248073548806,0.4563220797009757,0.44921866736948646,0.5530043980261921,0.6652823925294244,0.7755209139100052,0.8804110431766299,0.9304476722150756,0.9281583358186145,0.9282946791383977,0.8927587496056208,0.9179376815063813,0.960208901876463,0.9891807533361123,0.9878716310114131,0.9628581697973195,0.9173535870397327,0.8517267730351596,0.7832094495755357,0.7165510612228139,0.6638199796629864,0.626052689874351,0.5771195561027529,0.5079294430301231,0.4320883128260795,0.3600720603525902,0.3071478557174654,0.3249540006288467,0.34978413958926247,0.36647109735213945,0.40142624928505644,0.48007850702167776,0.5744361116196708,0.653630031160727,0.7159698659422284,0.7328114203808971,0.6435204211310159,0.5314409579438681,0.41882861210068745,0.3063492346003267,0.29700722717039074,0.4011177220977644,0.5129034892110069,0.6180219205694519,0.6767306259623909,0.6825079539201857,0.6744646949498256,0.6292234042131248,0.647586599013954,0.705009766562537,0.7600508648654092,0.8007042967079858,0.8318261578476203,0.8614842196565733,0.8806199459229558,0.8805109215799063,0.8618086990330434,0.8267273729696805,0.7736745361518791,0.6952911866337868,0.6182909420403169,0.5716100183243893,0.5936998184768272,0.6335268221745731,0.6710140823001476,0.7103986677421563,0.7508075427164274,0.82593022061539,0.886753462063135,0.9265011336379656,0.8977274632917411,0.7969810416650032,0.6766155466284856,0.5569935481254382,0.4460460132041626,0.341552583846648,0.37123124799431295,0.4794634483033686,0.5947912067152723,0.7052462159040478,0.7964324145726112,0.8107843997520443,0.7969153666321036,0.7456227999244454,0.7287574152200027,0.7557336285434437,0.7780055275624327,0.7821321186510493,0.7891274166554969,0.8207518034881542,0.850649854364057,0.8892706126620209,0.9390004638082932,0.982428210240434,0.9716629122297871,0.9148933403255941,0.8496278578246468,0.8352236119538814,0.8677132377655274,0.8648521019382134,0.8070140420978249,0.7358069066523463,0.666235910647337,0.6516841538277163,0.7205013590738174,0.7744942217582316,0.7876201405991039,0.7081014504092327,0.5970943893184235,0.4882695954924685,0.4397464792779777,0.5235101811667136,0.6167085877283367,0.6301171269467227,0.6105345633107233,0.5787638504377131,0.5133762099713115,MI
0.3823153223562249,0.4210091915989126,0.47009277382388304,0.4931359598924635,0.48069372217022643,0.4312879050880708,0.39375875067716903,0.3782208917086821,0.39866792169149157,0.435770031527292,0.47277439955754874,0.5173260260850255,0.5478049596650229,0.5827133565134855,0.5913008011084891,0.579530611208774,0.5548279953699747,0.5463363792192865,0.579061194719768,0.6058528178993877,0.6291477833322935,0.666368584277857,0.7166073208088094,0.7200007645234131,0.6635098655196959,0.6034020578158267,0.5540305981273072,0.5132389267344487,0.48987723251280724,0.47008528302075503,0.4569516479041692,0.4643977128193787,0.49126777527186116,0.5310059554205707,0.5728455438422425,0.5918560105473304,0.5869925675856248,0.5589397164444868,0.5327724827019739,0.5481885072103684,0.5665289682581948,0.5705901444506892,0.6091130972810005,0.6575410519578729,0.680709870654553,0.6327871120899095,0.57587183184371,0.5254633043208156,0.4876566386835851,0.4705113579216492,0.4661038749662044,0.46176287407727334,0.471923425968383,0.5053203154570501,0.5467731496304736,0.5776027093250372,0.5856334686154826,0.5892987418560974,0.583844161903441,0.6113555074451117,0.6383170718301135,0.640868526356467,0.6721877892054701,0.718873537887717,0.7285657636905044,0.6789428731995587,0.6240866316352162,0.5979641101125927,0.617174229856439,0.6209478662455049,0.6108547509729968,0.6046989809916,0.621035350135284,0.6552111325223396,0.6802809954241614,0.6653634924738062,0.6308149847157468,0.598032421692719,0.5667377454832584,0.5462509906830458,0.5709393957133234,0.6179714032236069,0.668285674496134,0.7156618995630509,0.7554508097365661,0.7890568415093965,0.8378144235781181,0.8881696600648378,0.9211170428883247,0.8890742595273505,0.8289622525997066,0.7776823348977507,0.749002537510204,0.7371053340171075,0.7060699688639024,0.6629102612630714,0.6156260932779863,0.5640124468963624,0.5175068726215687,0.4704495335970461,0.4156900121966661,0.36523071260857864,0.35437213362465025,0.38586001097262723,0.3861090742005956,0.3310053555796971,0.2700632242839188,0.2128710417094739,0.15811774705836057,0.10159966808987486,0.046644023521751676,0.0,0.01856945323573045,0.07358806282092856,0.11142405474193517,0.15624111515574846,0.2056840451727342,0.2618041407904582,0.3202973894026161,0.37424156459105007,0.42849846389737734,0.47687192939983725,0.5223772555094558,0.5629199505519603,0.6122534029441818,0.6448434047700472,0.6154075927492114,0.5756470830824131,0.6122337680475575,0.6744647316153477,0.7404757765382447,0.7696297972184846,0.7283806559098799,0.681256083455067,0.6318141853067679,0.5854811830344148,0.5442865653583217,0.4992038525080319,0.448024297358773,0.39514106808820026,0.3434574371448288,0.2863990937868953,0.22878856759941268,0.17769129519016225,0.1361176128528485,0.10470571158774356,0.11496689864934873,0.1750714374668123,0.23061169922752922,0.2888406769847319,0.3493649590535918,0.4074263110186537,0.4384704018444866,0.4232454897451302,0.41079938435314756,0.45811743277653594,0.5117977957574006,0.5562397917667653,0.6012535652433743,0.6526815141846601,0.7010353107133461,0.7437286920263068,0.7761777797427597,0.7909705050196182,0.8287020661142518,0.8926785819222803,0.9527809010345026,0.9999999999999999,0.9842461967832518,0.9317492927349774,0.8840948763414217,0.832628360184318,0.7970767090957941,0.7616907997285002,0.7155004203350649,0.6692257095824562,0.619804645052009,0.6082095782428732,0.6351322547433241,0.6691942056082859,0.7048976574019704,0.7256078533353781,0.7073470190218328,0.6736764239027909,0.646419722406841,0.6489735621449017,0.6627157404519638,0.6602620779866296,0.6513183818727984,0.6950015775874822,0.7539431648369642,0.8149989953898041,0.8656913796812181,0.8500430424576652,0.7935631072747894,0.742743084123142,0.6998721269465075,0.6840677492097093,0.6608806703457889,0.6268741817876063,0.6252100000659077,0.6297132507664952,0.6254052475619957,0.6042014565283683,0.5687452205360145,0.5285001658451906,0.5077263871231653,0.5080640908650852,0.516686342826478,0.5364948781679592,0.5818450238239706,0.6383938713042209,0.7013368406250179,0.7649867785082053,0.8093545390060307,0.7839293627106959,0.7247245348102459,0.6751474952023587,0.6313613072930343,0.6113225940613664,0.6038605709808808,0.5757726791323802,0.5763100129665221,0.6066970967088109,0.630464535606991,0.6369406907700786,0.6192437653110817,0.5818726108035716,0.5397050152123265,0.5068884115551003,0.5032945521793185,0.5180215374540985,0.5371612847361552,0.5670502194185819,0.6156226317220465,0.6755436408390695,0.7364556134148547,0.7972973180011519,0.8507306710907242,0.8470873075639039,0.7911574037780261,0.7436277182293703,0.6936728030378064,0.6575085832481219,0.6375618569284048,0.6045034299726956,0.5977988705651053,0.620089574661897,0.6336752219660876,0.6303617102592681,0.6033158515198235,0.5654090189662399,0.5426087282593549,0.5526889593176493,0.572824581677812,MI
0.8144070718590952,0.8056283998293985,0.8062473860053752,0.7998570027750596,0.7951882983654386,0.7918878482141025,0.7907800969960381,0.7963968175438185,0.8105620823847883,0.809019711165583,0.8218437449363138,0.8144525090965602,0.8023980583026962,0.7968694753456727,0.813625486947227,0.8573247152463055,0.8791350473885733,0.8285348964040882,0.7467960522426562,0.6570516349414453,0.5720907210762398,0.4846236852661985,0.39929775848225235,0.3282483073626392,0.24810070616656676,0.16534729256794845,0.08634478852193062,0.07116402754325968,0.1384068808065777,0.2297695699818827,0.3223826721368388,0.41320223356293884,0.49531408941710997,0.5430478753753585,0.48965152294152703,0.45110285613941814,0.4376131469997886,0.4206607495230066,0.3863608391247648,0.361840659693653,0.3431490589712216,0.3402039356395108,0.37612745256613844,0.42635886324446504,0.488026257807763,0.5575055689522377,0.6257279293403966,0.6912936245206023,0.7481713746156351,0.8005267237020592,0.8097357268587477,0.7994570642238066,0.787136137128182,0.7848527858111769,0.790817415934685,0.7967222983771318,0.7909925368715616,0.79380159855168,0.792428737422429,0.7856675558384256,0.7795952763007623,0.7851989959673582,0.7931710295515075,0.7764666750687619,0.757523526634893,0.7602429075653263,0.7709639377907487,0.8079937072435888,0.8082239610323572,0.735987308638435,0.6512684653184362,0.5604237330897135,0.47757454193762183,0.3884179606985103,0.3055343337840781,0.21642606743566373,0.13348894896267094,0.04425986832779816,0.0,0.053437587136258013,0.1428484216118815,0.22584652476875156,0.31605925199204576,0.40197940382900854,0.47345812596173564,0.45022436023994583,0.40818591460242915,0.3921977472862812,0.3660304509139094,0.33630017611352336,0.3061269854467641,0.2882569552344254,0.29802162817630395,0.32794270129891734,0.3859105949870818,0.4422495805950619,0.5077803789051787,0.5725586597912007,0.6448688027801519,0.7117955865426904,0.7553378757035376,0.7698197726587015,0.7753294890462485,0.776158539693613,0.7711344405824998,0.7762741011100065,0.8016728511430662,0.8261576558410821,0.8347960796619107,0.8495111246426998,0.8603833364426752,0.8723355278823424,0.8832711558281838,0.8719221281852767,0.8511895240904495,0.8579301562551795,0.8881278418263285,0.9355884478666949,0.9384964233344855,0.8691051213963048,0.7867858018718707,0.6988432873074157,0.61490614573807,0.5261516175479659,0.4382543675365518,0.35357712588743073,0.2648804040049686,0.1827797762372534,0.14370095093193003,0.20182093616147112,0.29037988235413725,0.37631529104511907,0.46285378137004796,0.5511358351592168,0.6088254380131093,0.5658642818988526,0.5186869940012446,0.5663202555639848,0.6432602550253002,0.6980052125510139,0.688564558365306,0.6187885375493671,0.5355259803854793,0.5060150784583539,0.586141424338023,0.6710734871150179,0.744366137610974,0.8208573503333136,0.9029975220069466,0.9757992272116813,1.0,0.9752659037721143,0.9310815033657773,0.9143581845608084,0.9264165929677,0.9304853507709203,0.9233540291604405,0.918562271330154,0.9022753324653738,0.8855939987200059,0.8613458814221491,0.8419257880234681,0.823300068973968,0.8264911094680136,0.8315246635533664,0.8210935493644795,0.7981039870801498,0.7520515396069944,0.688129366272852,0.6212337967262336,0.553859752863147,0.48797400923576517,0.4239429016478349,0.36742468557417207,0.3386573958482244,0.3417510763078879,0.36581411513876416,0.398527223767009,0.4212253188227584,0.44786801151680433,0.4761809627685194,0.5509278850985666,0.5920662477236434,0.5507813578227942,0.46872132260778465,0.3897104599637089,0.38144651263698903,0.46113073910248237,0.5389968635378457,0.6209233116486983,0.7129617972883109,0.7967443155107472,0.8610692122115928,0.8701180730504379,0.8429168562345195,0.811612236537707,0.8134600823371199,0.8356622965049523,0.8411343510382481,0.8338114884246108,0.8303402543981009,0.8411200361048965,0.8393273407026491,0.8416955396668451,0.8451999768462377,0.8442521507177987,0.8399461610060279,0.8321432914909672,0.8380576374752517,0.8487977623262442,0.8575351346971538,0.8534820278674755,0.8246950834461355,0.7730768258531624,0.71652149497181,0.6468327846220272,0.5741665732609484,0.5124737211862729,0.45112702789021863,0.4046261056753009,0.38650368013114256,0.40172833246739703,0.42647575327168097,0.46048350190881493,0.48308320135575733,0.51076168496315,0.5606295118057236,0.6253780852343254,0.6314409767543046,0.5611397490304273,0.4816788049676488,0.4649179997022277,0.5478184203145937,0.6346753507835263,0.7203153138373812,0.8095028000583371,0.8863903974877165,0.9318634737301412,0.9251996790674646,0.8888236467709176,0.8471234148249702,0.8449465823677422,0.8579381050667436,0.8679421731969201,0.8643810665438028,0.8558655850534986,0.8428863612128561,0.8402936033988353,0.8586253056605777,0.8470697444147186,0.8499701500813783,0.8479760634008273,0.8527477617927524,0.855369437544709,0.8717662298305333,MI
0.4202480222539071,0.44684378965409,0.48256923357261394,0.45899137066463735,0.42688565243338905,0.4509696223236872,0.5068536593310473,0.565565185770668,0.6279622399150173,0.690170287530677,0.7411429976844393,0.7818080097568192,0.8040503300737436,0.8098051968360693,0.8135614898946342,0.8144402527878933,0.8067446699366134,0.7969895511858387,0.7977073641536376,0.7901583319772081,0.7762728345210432,0.7743411699331346,0.7573466224657268,0.741830215354085,0.7398689436569104,0.7469288877423734,0.7400727557555578,0.73128555293387,0.7496944331099562,0.7768323841451645,0.7969797572781134,0.7961687274136902,0.7633283988710209,0.6930926544385452,0.6170135718760299,0.5429429493038491,0.4632023135525065,0.39024824058061114,0.31106127224246016,0.23731686795569384,0.16354318045498606,0.1316729642595249,0.18323595908393653,0.25576635013595417,0.3344647378130303,0.41571027241726566,0.4927312594738651,0.5660407000305161,0.6371711038973711,0.6918809699917821,0.7172106887158418,0.7050142205414662,0.6934719131428246,0.671526995374524,0.639648870224933,0.5970531290820513,0.5518516567835943,0.5026720171763925,0.454391030777352,0.41415882493739353,0.39445614578729615,0.4244176989766526,0.4751698547015899,0.535442599146402,0.5986915142629048,0.6615611385873261,0.7208121953742372,0.7726388019038843,0.8123168100730624,0.8341061232667344,0.8508367085573074,0.8724849503808481,0.8914976848088714,0.9078808030573546,0.9231787244332377,0.9436344061878057,0.941036251930097,0.936523051275792,0.9519857921119554,0.9274242265770096,0.8678185304904396,0.8196559645913983,0.7853833313896939,0.7635838578330072,0.73687583801112,0.7171803305199014,0.6963826554798567,0.6902774014841955,0.7245087864330344,0.7356243007809613,0.7005722267865895,0.6781945013105548,0.6364261923703487,0.5663689375124059,0.4902666139892482,0.4090520496263623,0.3277396508374921,0.24776085258554925,0.1748388112868866,0.09677676406720392,0.027202617949130925,0.0,0.051049737212433444,0.1278326514590573,0.20099626334278642,0.2797120733116074,0.3526409606612688,0.42821470401806194,0.5030872008080212,0.5721948648273141,0.6122381513691286,0.6323627734636228,0.6200540375103738,0.596754441424832,0.5721723120952615,0.5358798173636994,0.4947006626172279,0.4492774939849242,0.3989027362492532,0.35417614029514444,0.32755002563212865,0.3465099189393501,0.393021514129001,0.45084512121712494,0.5113455442242119,0.5763020347913461,0.6340704855708663,0.6886113515505325,0.7268264428967264,0.7466681418732217,0.7500940631730078,0.7567046036171643,0.7800047874749587,0.7891429560799808,0.7857770088137839,0.7794344456662805,0.7519584565338029,0.7186969470021742,0.664899203870148,0.6009071670551791,0.5411721796445363,0.4823726867438134,0.42332323007505535,0.3773790308946159,0.3845889841769248,0.42526598757240675,0.476204030766866,0.5233839541461747,0.5642103997660846,0.5992040840067723,0.6236438462474214,0.6502590243308579,0.6701834644974922,0.669158099214425,0.6497801392630072,0.6106414265573532,0.5565561881576158,0.4839333699772206,0.41078369349427835,0.33589639381203784,0.26277718272733597,0.251932262913638,0.3187199214978331,0.3985880082964983,0.4764663356725116,0.5385363967939545,0.6012492024016993,0.6733283026827575,0.7286484953460168,0.7208694031589316,0.7401514429547793,0.7796816984657455,0.7820127496032543,0.7525737796654686,0.7342817400275286,0.7489402046501636,0.7715365101636078,0.7968100764957167,0.8205259909082325,0.8614765202462669,0.9195143793296106,0.9782782901699665,1.0000000000000002,0.9822691262039991,0.9734144972853069,0.9849012803640929,0.9728506237598669,0.9542454569533654,0.935154902579044,0.9171247788950201,0.8997404511190095,0.8793097503094038,0.8644139314482635,0.8396869576938404,0.8007290658402026,0.7498660482545245,0.6917497173831471,0.6230096446543361,0.5597741485049967,0.5032781080813826,0.4541736000720835,0.44454209659748356,0.4840795719847266,0.5317996251691559,0.580653175856868,0.6264688984826745,0.6668165947744173,0.7004998946545489,0.7238410747369639,0.7405698603139255,0.7529188666291344,0.7527660148798787,0.7195351249521651,0.6626563703834287,0.5910007831984332,0.518178676280244,0.4410856317076881,0.3698325584799844,0.34879280613928665,0.4199742828324611,0.4944404621006546,0.571640863251516,0.647909724935035,0.7214373945392476,0.7920115557976499,0.8477852921262012,0.8447236710725128,0.8374156106787778,0.8253789679467125,0.7986574277752354,0.7708689984185495,0.7727482867920288,0.7745919583988106,0.7746425896703337,0.7791883366044461,0.7959185669475637,0.8109322297677628,0.8126734043849968,0.825653400230417,0.8351352607283715,0.8392916285820942,0.8448300378912805,0.8508069357852857,0.8482847117879813,0.8484199169314186,0.8416221108738273,0.8290173139658803,0.7984215983815577,0.7545093114537131,0.6947720313896137,0.6350147267966231,0.6111004209033037,0.6030505246162112,0.5449867473313172,0.4970768995366093,MI
0.8170739967854741,0.8561284527580699,0.8797180512654494,0.8871149475266511,0.8736336893187178,0.8102734307150798,0.7266872316411963,0.6501754055978124,0.6000820305204086,0.6240560641548669,0.6535852069507302,0.5751528606326823,0.48107113763982534,0.3938742292247668,0.29764668423524787,0.200778787368723,0.11154070153235929,0.025514357947311384,0.0,0.0715437501693219,0.15809917447661115,0.254044081016372,0.3511773517541634,0.44828226543313754,0.54147968274409,0.6293262838931841,0.7242925954400448,0.8093801640039324,0.8843930578615058,0.9270173947571954,0.9349479200302884,0.9231251026952385,0.9078604522501885,0.884873476954658,0.8483188851799148,0.8062643265261771,0.795583826524634,0.8037444202417328,0.8226300170211733,0.8597758967593829,0.8585108106998576,0.8429823343447616,0.8430508199864739,0.8521124479900009,0.8689003809008684,0.8615949154416171,0.8664247086075958,0.8613015843824188,0.8293315504465422,0.7909615008620243,0.7561764056577023,0.7434634811293226,0.7646732821410567,0.7601734124711197,0.7511195867277236,0.7443462535596364,0.7159633417507345,0.721658159043008,0.7626290433598675,0.8222087418899238,0.869338092311873,0.9020825003098774,0.9471331352502277,0.9489505941162315,0.8788439332065157,0.7919666404538133,0.6959342053898598,0.6069846297748398,0.5151188178113584,0.42032615408678353,0.34341284592201515,0.2600723689315616,0.16809453354451542,0.07557155255402881,0.02360127543334034,0.06800964264676268,0.16081982181390475,0.2488736544510739,0.341774936565846,0.43887524959950075,0.5360100269903476,0.6330405204973413,0.7240033685629956,0.8106815178891045,0.8894431098404103,0.9264083839391131,0.9198054782726006,0.9108031553993021,0.8930842815564233,0.8711843815496942,0.8520090329088659,0.8221873955739432,0.8017355716587076,0.8054561740286827,0.8253520451755552,0.8653108023677929,0.9002110058500878,0.9080710508173759,0.9116896028440615,0.9219734463559857,0.9281469935579543,0.9115911569432431,0.9061772212980828,0.8982001104322686,0.9021684873398879,0.8946958064444168,0.8951006292903079,0.9036793258597224,0.8935926095625899,0.8577300505509491,0.831079840437505,0.8457327682165119,0.8783379446226693,0.9067550260690649,0.9163581883854375,0.9021392240402439,0.867614189353201,0.784632172277701,0.6924755266319786,0.5955603912543033,0.5054285567721672,0.41482678487642244,0.31783100786180674,0.2231624692322942,0.13627990356058706,0.04755055557641508,0.03365970526153084,0.10961584568201044,0.20478939226895787,0.29171033122579626,0.38632983670895094,0.48285488794941145,0.570567772941301,0.6632946392969246,0.7506345397356504,0.8350702592672079,0.9074356640826144,0.9456097353657584,0.9397396356530023,0.9254946276803497,0.8982767970659731,0.8752100872817452,0.8525704869199047,0.8922910941280857,0.9221177971423413,0.9474423741020781,0.9693210335693869,0.9815624704063575,0.98814647974318,0.9654528555437023,0.9088205919148125,0.830807396599232,0.7442035545253713,0.6555541713365003,0.6281453222212361,0.7125645479303733,0.8061456207691642,0.891180408324246,0.9560100237725411,0.9622602833595348,0.9576756001591848,0.9505724057529059,0.9268144947375732,0.8868425530537032,0.8855441864307447,0.9255642901848808,0.9477576523058409,0.9442169330724572,0.9311188929740906,0.9437589289647421,0.9427051012565408,0.9421487915034612,0.9491361781339014,0.9505849371598474,0.9658957610438879,0.9668800182157578,0.9542584355242341,0.9568680294796288,0.954082559220488,0.9353439454453885,0.9036556077992268,0.8681306885246884,0.8516963205491133,0.8631568792456548,0.8895298571706827,0.9124567014322771,0.9283938072404518,0.9505353526454228,0.9603405938063465,0.9661400043096238,0.9545466804787919,0.8928519711489888,0.807656189557896,0.7214510852450509,0.6271646157944855,0.5455268652115488,0.5509674426370574,0.6429068084961356,0.7317265813995635,0.823033588315617,0.9097148524740113,0.9831218298172952,1.0000000000000002,0.9865450469853594,0.9442727219947431,0.9102736791926482,0.8663062792158425,0.8038687421640176,0.771564261244871,0.7859620923627906,0.7979816160055437,0.8028705099221998,0.8345641262852437,0.8095568377536069,0.7959701681210294,0.8137196525026005,0.8459346434823873,0.8853011320548763,0.9114069352247929,0.9218435057002596,0.9093530461677195,0.9243822103308126,0.9198535952850502,0.8923772411656856,0.9015084122476698,0.8984161595740423,0.9063752935448257,0.9094952773846947,0.8839809957505851,0.8523073593804262,0.8370730266132786,0.8575939589642807,0.8981004068798539,0.92787998073309,0.9472158970099727,0.9617254540878324,0.9750433660022757,0.9725078033113148,0.9487833683608258,0.8949594674465005,0.8106800976351509,0.7218598720643563,0.6338856480334278,0.5417780128648453,0.48683339424493144,0.5496148024968013,0.6453258841595002,0.738757505774635,0.825643571684006,0.906973158635717,0.9340474379295303,0.9266492426665736,0.9161817847489753,0.9026015218292402,0.8600983033453999,MI
0.5388720155131524,0.6030331470103196,0.6691992766265454,0.7194989937344192,0.7676562572680542,0.8070017753208629,0.8233895554968751,0.7871116824190791,0.7911127967052596,0.8516603685518023,0.913509970860586,0.9603886978721161,0.9620745712933438,0.9543077091048622,0.9354535830470443,0.9050112335679545,0.879735503893325,0.8803130785848152,0.8995199263108702,0.9127096493838973,0.9079956685645145,0.9093288871830667,0.9198776691031898,0.9123748617702867,0.9080434699926718,0.931068605189938,0.9320483453130199,0.8795701359781973,0.8121541915657893,0.7468081148336895,0.6790453931837157,0.6098296635542089,0.5448096408692967,0.47781262163544336,0.4191456760166259,0.35664125600802354,0.2874047254773595,0.21885041828632026,0.15394668214865778,0.08815690469162527,0.06934676270278264,0.1242053492673337,0.1891661500031727,0.2584582171748041,0.32820819941220136,0.39795883448518043,0.46770944019807315,0.5372673260404581,0.6030696459721822,0.6702604103499057,0.7376413015733172,0.8031173584028442,0.8683965310155568,0.9278429275111773,0.96991110271592,0.976447640529484,0.9739002526012099,0.9582047904539606,0.9282438839302685,0.8984516846755506,0.8960999922370458,0.9144153735741221,0.9222219994698169,0.9178111301987641,0.9179291670338925,0.9150594441520017,0.8960749032808975,0.9011138696590282,0.9153827670323724,0.877750430896828,0.8138149068601723,0.7468704800119272,0.6812737902052112,0.61205512398249,0.5466284936710883,0.47894634124022717,0.40937848262269794,0.3468904913662898,0.29320828115628494,0.2374004715368854,0.17674634133542508,0.11083280936033577,0.04478037698387996,0.0,0.037784910780541,0.10215024097539196,0.17144750019193025,0.24109116327809185,0.3074179100042954,0.3705679499714014,0.43098300632028774,0.4936461638037669,0.5553620961884199,0.620075089840694,0.6889432795636781,0.7544421875125877,0.8194514660998482,0.8803411927297851,0.9148840399884983,0.9069579361523181,0.8949789174191736,0.8731765501137922,0.8442931018250261,0.8182205228059722,0.8186416709117852,0.8416407072594845,0.8617955160563766,0.8737483038383416,0.8827440396639152,0.9005480905557373,0.9121912870176336,0.8995227717456677,0.9010313933898728,0.9272528267711484,0.9245348614249764,0.8685502707277251,0.8038351619648951,0.736345141146746,0.667513089843399,0.6026503194694752,0.5338293205897858,0.46502869461672913,0.4001699572454681,0.3313002993206805,0.2633505244778157,0.19811915853588832,0.12894447383733096,0.06876268709622688,0.07326170475583896,0.13682106057977886,0.19549064652115897,0.2519868371660263,0.314590356113683,0.3835688282810934,0.45331035501359185,0.5217882761233189,0.5867310966896451,0.6554612659766402,0.7206344770773527,0.7875389806908522,0.8519607490729537,0.9137732603951454,0.9591978823005496,0.9667610299178553,0.9603908616044645,0.943470407594859,0.9359969627414342,0.9625632738518717,0.981403977317939,0.9874519018457291,0.9879863518215086,0.9604030727513457,0.9072854230183709,0.845219634745227,0.7788494554451069,0.709192430214439,0.6395166837144688,0.5728090667504281,0.5065336487300427,0.4378907079840426,0.4086380140562763,0.4638627859404586,0.5286438990165491,0.5974714455299862,0.6659096449198443,0.7308606449063784,0.7991238740295115,0.8638616786725681,0.9285563919983288,0.9731523013498184,0.9605348300380168,0.9340844664900192,0.9191460913129441,0.930221049930857,0.9243208964365806,0.9075391234307753,0.895201421109892,0.8874592260860219,0.8688662355160024,0.8455731872299863,0.8365524648565525,0.8602797503590709,0.8897599641388192,0.9106884391447922,0.9232360832619795,0.9381839414024034,0.9304959135783812,0.8837907604347097,0.8218446283026428,0.7565221370800013,0.6900000171271601,0.6236164162801152,0.5571025805660038,0.4875621856638279,0.4343860564254588,0.4685161536900607,0.5374059579467293,0.6033844547305033,0.6703958207049169,0.7384260252505443,0.8035306929837023,0.8702874020246687,0.9314558568652322,0.9540969912277393,0.9383472635029735,0.9180279523877135,0.9222201961487833,0.9372969869746346,0.9359773044299804,0.9376277520440719,0.9435480478305704,0.9387446519358853,0.9224543158743053,0.9197813160487529,0.9490648167505995,0.9798728907735108,0.9960491265293394,1.0,0.9972310435100178,0.9653008802768022,0.9093823952192237,0.8426875424054661,0.7773011664663305,0.7097144041348816,0.643310819961238,0.5767608048884307,0.5071453533048872,0.4472255323966252,0.4589696319146954,0.5100024004437765,0.5570090760359263,0.609827004077379,0.6738121692092264,0.7431963770007417,0.8103700068450503,0.8755082852769944,0.9389388489465502,0.9793603553593364,0.9644140854363861,0.9381091521729457,0.9280126636473902,0.9418289042539474,0.93644533312087,0.9275725985381387,0.9307397579501713,0.925428525347221,0.9095308635975494,0.8998871271164943,0.9224754958124326,0.951742631158611,0.9717997326461769,0.978819892729583,0.9870019559405869,0.9727639209103216,0.9302409710249286,MI
0.6942230168299943,0.6924415782049076,0.706109214585068,0.7034027013602446,0.7016532714147132,0.6841501853479057,0.6056523440426798,0.4915383955765833,0.38456354859816466,0.2730871505918464,0.15680264385868092,0.07519432015730665,0.11439855491888684,0.2251850207000845,0.34610407269122545,0.45981524901132564,0.5712272809052918,0.6677672128327363,0.69192253280419,0.6446055554827002,0.597943550404338,0.5693190976235756,0.5624361467001044,0.5912950399132537,0.6437636391131902,0.6885337906765834,0.716540239366747,0.7395894888062413,0.7433636373419747,0.7230887748025596,0.7082027089506959,0.7114838453962271,0.6969194231218276,0.5963880267188908,0.4898404408814483,0.3807798527112869,0.2650574355716615,0.15830916600318146,0.1291752579681389,0.22574638909276423,0.3394225690025925,0.4597280273404407,0.57347304114605,0.6790373611096365,0.7283386131516854,0.6943434604864498,0.6385605705982189,0.587852540705089,0.5767480934146336,0.5931413652737794,0.6556092656221355,0.7079159889325202,0.7259915738153504,0.7251629485497997,0.7078499281067576,0.6388491305726571,0.5293305121130163,0.4179324349916578,0.2961695340653514,0.16960098113745747,0.06239169333448924,0.04318621044266635,0.1349758020816605,0.24708727494796667,0.36721328891906646,0.4786165921276595,0.5853344119150079,0.6843315638112655,0.7177702630434553,0.667975851824917,0.6056251184713135,0.5664349299306943,0.5673657362184517,0.6109872226418869,0.658285203851845,0.6864547783477937,0.7005033979574873,0.703424159694336,0.6838419252618255,0.6757268456063921,0.6620857839269574,0.6785886196999886,0.6879819136119645,0.6551983936158177,0.5521181697831228,0.4299089191630232,0.3240420598754352,0.20945006695745771,0.09409222161083086,0.0,0.03116024054685118,0.14622483095883165,0.25960725986099753,0.3796254675251589,0.48823619501845705,0.5960497041411132,0.6922503321094533,0.727237403273385,0.686211214005759,0.6283886472912585,0.5648191199542354,0.5030682903413046,0.49899110086695586,0.547222755245302,0.6186832835783527,0.6844220108036709,0.7412482469271571,0.7702494084037363,0.7748856922367104,0.7891894996480033,0.7978873235257886,0.7996380645466798,0.8014434100657417,0.7921696852691946,0.6969533509627719,0.589860350778455,0.47903456169348857,0.3666710781661866,0.24549244837243478,0.1678690732311261,0.20503577434012454,0.30555998064688117,0.42071848717674243,0.539928409303521,0.6542578796061989,0.757832534772982,0.8492083382788236,0.9245752746468763,0.909918056393122,0.8697250286112514,0.8132327569688522,0.7641190512604288,0.749105690169531,0.7764524702008209,0.814130843722991,0.8200645034861025,0.8181606858144139,0.8040404487719188,0.7976914695754012,0.8123214053302439,0.845282233999944,0.8587576701037198,0.8658402217773027,0.8777522704226155,0.8693166244391626,0.8461230355574081,0.8080922583843697,0.817793592010533,0.870634518509227,0.9203210547985599,0.9613128490865117,1.0,0.9755275120567437,0.8928102512586014,0.7995832818206838,0.7002893312975429,0.6234182884926778,0.6896377865867711,0.7997536263726923,0.8729565623430049,0.8741868576820213,0.8614893315353296,0.8599315291941618,0.8465644136539949,0.8331040623499133,0.8230685300999685,0.7888208098672771,0.737856504698748,0.6685972526963582,0.596246854777057,0.5621921035420425,0.6068216622628757,0.6721010215276033,0.7292371665475024,0.7788864796755255,0.8019342291751066,0.7447937279948365,0.648813104524407,0.5525356630685438,0.4492864901276925,0.4012571784467567,0.48936235534618033,0.5980920569980892,0.6958909901504953,0.7392488827419927,0.7554744466581513,0.7341313772761815,0.7203396942809004,0.7329320859689585,0.7497378631838232,0.7676233362445601,0.7536844811049921,0.7339740122476868,0.7066507443763479,0.6608075921937102,0.615546909075837,0.6317219817883912,0.6923371072123152,0.751856948759364,0.8039974637978551,0.7883372212215436,0.7074392161995777,0.6083246388937011,0.5007141146399126,0.39837246419266803,0.41287720920739224,0.5218147631245258,0.6333184183946523,0.748514557622757,0.7965139693146379,0.7805530976034611,0.7737164390144531,0.7748897923914297,0.772339093689264,0.7253678768355507,0.6600018943757302,0.6288646153342263,0.6513154201741465,0.7024703356030026,0.755833521187971,0.7970643479607125,0.77581580785496,0.6943852760011455,0.5990690173504527,0.525328909937822,0.5873177140953096,0.6944019478190406,0.7753461892949502,0.7743617375705685,0.7595929478647752,0.7685265181764378,0.7889793721429017,0.8040747159800339,0.7923177891508506,0.7649959965339583,0.7355740507410182,0.6881382257811675,0.6357930486795844,0.6119018489685035,0.6350029567027775,0.682974217096374,0.7320727393258695,0.7662012662402535,0.7330673045198877,0.6467197120508872,0.5520746660487901,0.484196844643459,0.5613675843536563,0.6666024095224645,0.7426751596370584,0.7525742965652076,0.7526201794150711,0.752541318239734,0.746965705151724,0.7491715501902259,MI
0.0,0.06059510719867234,0.1548393483468975,0.21707964046312744,0.27992755967142857,0.35031625986747406,0.376852414183376,0.3019100889765256,0.21115049401656982,0.12732134619939917,0.10624105908733927,0.15206859381446902,0.2644449325114815,0.3843694390279375,0.5001173820094778,0.6176480049447814,0.6391310001622927,0.5702478125272008,0.5219934349318001,0.49083595065200125,0.42426046864279554,0.3344328105872836,0.2511853454991475,0.2134591046016907,0.26578357104448136,0.35357120202818937,0.4425623863195627,0.5227815120594519,0.5337463989947082,0.5022924276615948,0.5104718022470496,0.4775357261396995,0.4204892175493238,0.387866368251947,0.38760375097943767,0.3663027093413098,0.3403684090175152,0.36110573812680125,0.4061361784493931,0.4506517654658784,0.49173609742533264,0.44461232993282085,0.34342134510408595,0.2406324542022018,0.16625380666854994,0.1974414189626077,0.31017362085007605,0.42574040395090496,0.546971504430632,0.6416790323486552,0.6094431597712795,0.5375140341560769,0.4819880085149393,0.4308153386046527,0.41486429887048315,0.3687011294389677,0.30094859533269824,0.23544312918130839,0.19100010944917978,0.18888330198664827,0.21106245793044387,0.2671713546477612,0.3153167037896032,0.27460123016476157,0.18566899976248097,0.12381297866813501,0.1477203376847327,0.23254676092435878,0.3192801704236694,0.39996323208283524,0.4220378441899566,0.3521527794967496,0.275858671230341,0.2412483178342888,0.27288732659386516,0.29401374501436006,0.28890594854554497,0.22186811724972388,0.12014846577750804,0.05128602082606637,0.12224696478273378,0.24392711066328632,0.3605778824453929,0.4819421039648164,0.5981715631150517,0.662509403636466,0.5956730204381113,0.5189732974567947,0.43677607513233063,0.3889210676704189,0.41762150051840896,0.49280366190456704,0.5642759064911158,0.5462503073602534,0.4642766648868122,0.38425814124072,0.30842361534527685,0.3054620566278752,0.3608068495539478,0.420025031475471,0.45352826824806547,0.47507327759696505,0.5000363788752482,0.4863268605815958,0.44429872678679017,0.39308636580189704,0.342318306907488,0.2995783428115688,0.3313302722347129,0.41993535302888185,0.5088531596080057,0.5555811368852357,0.48297157388712675,0.3722690377808715,0.285172890708862,0.3273163897548499,0.44074953089159896,0.5563182680612853,0.6742294463037366,0.7752125740212303,0.7417672501751325,0.6596362003338752,0.5854035620541183,0.5261381788113297,0.4934773389812408,0.4614462075284078,0.3969587214180632,0.334125916233432,0.34749751421955954,0.42034028411822,0.48400143683569397,0.5386257707340354,0.5579714556205162,0.6086961923936451,0.6821077719851227,0.756072380010524,0.8666570125348207,0.9810126830540642,1.0,0.9048428301101641,0.7862364424148196,0.6703773083412847,0.5513436661486271,0.5089405149717434,0.5864660081704227,0.6463867892888464,0.6103143471035524,0.5321193073927839,0.44183008586653116,0.36530115838245125,0.379699434381525,0.43140813740241546,0.4842033320366217,0.529053128487706,0.5500787693921301,0.5388306851951623,0.5239088750053948,0.49435077536032734,0.4499559346637545,0.3867952267765151,0.3580178770144924,0.42238729272669673,0.5103207223086117,0.5894751774606228,0.6363143923313594,0.5976588245490775,0.5188128530373479,0.4513267281026683,0.48007708820814576,0.556098166054174,0.6409833292471823,0.7447268938284499,0.8584289618722978,0.9433360575434042,0.9052018061464175,0.7865463354398199,0.6598372437321278,0.541685583380568,0.4206962365223603,0.3064744129567649,0.2828158219292787,0.34434861350157764,0.3523348962612083,0.33846364291828346,0.3066183271577514,0.32054220388806254,0.39875731476973186,0.4711527047527033,0.4743448152363614,0.4060877687727107,0.32329255989279737,0.22899768356293437,0.20057973178260902,0.27208989449297105,0.3458594629569265,0.3604150223992151,0.30828302478481406,0.2551416192688869,0.23683197138750733,0.27508818071820285,0.3419979270578719,0.40947968484085795,0.45945173261370087,0.48870164663566973,0.5343503712920499,0.5944323644746725,0.6795288731428353,0.7921673537529372,0.8947559526644855,0.9005400917501598,0.801748005861008,0.681535376764776,0.565021338862953,0.44531186499958286,0.4042089038457637,0.4963513953356018,0.558479637727844,0.5409059042833451,0.5027601466800671,0.4475880586003589,0.4048907379497373,0.3994616204181094,0.42908129690562147,0.4374941889268773,0.4722796900647652,0.5285010640314796,0.5705601517569909,0.5551458846480757,0.5770491828154616,0.603715664454656,0.5497648082857278,0.46993927819312153,0.3808617679180566,0.291727099849469,0.29586325455580464,0.37720704972428454,0.4629570617440293,0.5309752018910641,0.5637809918030827,0.598489992743608,0.6650395093721055,0.7714659314520982,0.8842460038852211,0.9076809895274756,0.8129427459707843,0.6978897329016189,0.5744977806486085,0.4571672831366693,0.34842805883885086,0.3632928164453495,0.4382009800449773,0.4283652123241497,0.35824316405465595,0.3136296891768322,0.3351120463340034,MI
0.7748966817289391,0.7829352529413267,0.7928318855305059,0.7987380652454337,0.8064860640989935,0.8341486189412157,0.8675497406138213,0.8805724041085214,0.8781485965632239,0.8882347472607599,0.9161656734673755,0.9511312074542864,0.9753990446574596,0.9771899468670071,0.9694896380183748,0.9699781993590118,0.965596209652545,0.9528878671827752,0.9427254025432881,0.9365413142341981,0.9308722405057437,0.9388069083995079,0.9407545044993417,0.9499027693290469,0.945166444946727,0.8959454196982761,0.8456439652422614,0.7929134751256577,0.7389239789557385,0.6890294944555084,0.6355836131763604,0.5810245112255401,0.5288415409173741,0.47808358271235535,0.42382895234712953,0.3731081608238424,0.3208762962586518,0.2669461778067414,0.21707921876521324,0.16475001590137217,0.13145370283468844,0.1567101628740175,0.20840163831913072,0.26297112273621887,0.31756475261239864,0.37112992261591377,0.420980894422797,0.47468144278561814,0.5251875208065842,0.5775575293666702,0.6286350757244796,0.6800814642508466,0.7300290979687474,0.7791720551097274,0.8275346288735013,0.8720450534014585,0.8905652559539747,0.8718837379900231,0.8549539423543815,0.8226075898998271,0.7860810538283503,0.7457131394371752,0.7039617742850193,0.6730339635792078,0.6637709240908187,0.6871189871249861,0.7211660760691112,0.7581110296584204,0.7968381211667923,0.8331808405952168,0.8490579225854831,0.833336992102155,0.8403237544360342,0.8680349676442389,0.8785097800241504,0.8729671002845674,0.8682942423473867,0.8506879584866005,0.8468464564558049,0.8524819633162481,0.8586268508768025,0.8634409213113281,0.8634651852501627,0.8575882945411253,0.848197947389407,0.8446953288300827,0.8536338939887682,0.8581174370206297,0.8490128649863895,0.8297216857231176,0.8242008511975085,0.8190102742424292,0.8107875949431529,0.8021654897892563,0.7939383983244022,0.7703457464268157,0.7459857206282323,0.7213079530785125,0.7014920341207826,0.7013137368022546,0.7006270186664394,0.7099696562993769,0.690562986399708,0.6423987479814879,0.5889153468352362,0.5372290972514198,0.48601364190115165,0.43153700983515014,0.3788491496096252,0.32850117274635454,0.274283099627419,0.22307879943287767,0.17138470067739164,0.11836915259810815,0.06833633821383245,0.018083575216002457,0.0,0.039247203573316625,0.091943042788248,0.14194522165081885,0.19597221835722017,0.24716098259675495,0.2988787334465624,0.35298586353613276,0.4030288726212751,0.4559291825738035,0.5063731392033535,0.5574464582296916,0.6066558394316499,0.6536347301103766,0.6942105085507908,0.7164511326727141,0.7063501171434143,0.6842851965314447,0.6575046363045369,0.6698064962208274,0.7029348526861745,0.7252163998864938,0.7357177835911253,0.7267917185434554,0.6957533182721727,0.6531929213766143,0.6055539697210925,0.5561468510637886,0.5062689946479122,0.4540092491815548,0.40403114955424096,0.35080503824134085,0.29637314201058956,0.25841208766350804,0.28705278719496813,0.33921100824815537,0.3841694026625316,0.4256519244599037,0.47199293770671974,0.5262757294082898,0.5775885142933734,0.6290924339491921,0.6803541535111528,0.7288029421416053,0.7554142430139308,0.7344944903032782,0.7268701774436757,0.7281671213334364,0.7250887455454633,0.7464046545078686,0.7724244759624039,0.7966456557616359,0.8178922017199768,0.8270791459746007,0.8352216362562275,0.8426575254605357,0.8475915524842541,0.8583796950641143,0.8787694952172667,0.8783480963098229,0.874248455912563,0.8653004126089316,0.8708121334497088,0.8801534171589331,0.8854739783133054,0.883958230923517,0.8794783789517866,0.8731496034157094,0.8724252463104185,0.8808165846903209,0.8942735074051704,0.8963267638341221,0.9052695073287111,0.8971480598393338,0.8692366993632499,0.8580734116809474,0.873051128687623,0.8646840826044564,0.831353502154075,0.7918549618807851,0.7545264849253861,0.7204134501090225,0.6904551660791476,0.7017060761174987,0.736821245898085,0.7776022487678964,0.8181961794517267,0.8541249411347163,0.8824381205515646,0.8933546917905366,0.9165013463990592,0.9199877563565693,0.8882089843686216,0.8451892704170643,0.7971353584959358,0.7475968450164499,0.6979515049992919,0.6440883846017731,0.58995627101098,0.5420247964150182,0.4992815955662923,0.4558813595464542,0.41574353762640065,0.42936437612137196,0.48172020957955614,0.5361845217047507,0.5871674570268266,0.6390999807524458,0.6936434716267914,0.7468033498353874,0.7968326979018787,0.8500347245676079,0.8998358674593232,0.9509354008230602,0.9898248420358515,0.9840334085167366,0.9655312397249001,0.9587644496905037,0.9525038533584378,0.9581714402037633,0.9669697014706933,0.9786774384324863,0.9920327791961399,0.9902856005987315,0.9938000887093825,1.0,0.9914155263522328,0.9655990697863703,0.93196842619348,0.9053303551039129,0.9031839580174057,0.905063121827006,0.8898022047813903,0.857548274054035,0.8248448486676792,0.8176842835453513,0.815574620712489,0.8056902592153099,0.7963957479867683,MI
0.3488609279381003,0.3947217212385479,0.469496829741328,0.5601876084397943,0.6568867870323254,0.7551296449438352,0.849377837772384,0.8848000591677305,0.8008866578562195,0.6984423492638447,0.5949633079945473,0.4893270965909422,0.3847323132535523,0.2817126258813043,0.21346053039691792,0.2638905226274999,0.3547701211357064,0.4493059439073215,0.46932976729846754,0.38875376015706675,0.32845785068545386,0.2889802701606383,0.30271531589268585,0.35156647704491295,0.3889533850789715,0.3885846197520688,0.427085746782377,0.405275831454579,0.39407142718186705,0.43198910085510467,0.5097715723077858,0.5967390254712712,0.6920318612322656,0.7883126743907964,0.853545262446886,0.7915267341666732,0.6910635843574813,0.5871055269530141,0.4864981823838108,0.404215120842486,0.30912392100354613,0.20746314867261328,0.16679059667495344,0.23719602449067456,0.33223856765430115,0.4141261104747356,0.38154256244966533,0.3092418847079468,0.256526375018189,0.22753763863709886,0.256914064212707,0.32513647453066685,0.3552050505050981,0.3553160247353677,0.33647131367281546,0.29403107771458536,0.2725997930123263,0.30927021351135275,0.38877968198946067,0.479041014971638,0.577983276283536,0.6725847869213191,0.6898391269837674,0.6002492007455769,0.49628263807033135,0.3927269231956523,0.2885694123319742,0.18303644044129985,0.07286156126581012,0.0,0.045558134103823145,0.13574737613375465,0.23470251760849492,0.2647511327375067,0.1970926282555392,0.16922022201271414,0.22762540292335554,0.28092570290717167,0.31694049780792133,0.33733946591160713,0.3367753221159093,0.34388726655494084,0.3094442302113669,0.3196904478942775,0.38849184329132425,0.4725860089388816,0.5523869753812534,0.6409071430487054,0.731136718167557,0.8233309751696622,0.8848877674433666,0.8222252509164916,0.7213443092970526,0.6164401138246223,0.5049066385340859,0.39993415080785777,0.29817730087081995,0.24912613186454302,0.31323414891211177,0.4097488297667211,0.4833362775367307,0.45172628435969187,0.3901124866073442,0.3482285941335541,0.3251494871464229,0.35838344407970135,0.3813463158996919,0.37988591489744716,0.4306297305842348,0.41550877163647204,0.3971390978957048,0.4315445729248575,0.5115103510669954,0.6096491638109192,0.7065672851788036,0.8027484463977983,0.8943261030892606,0.9092730759320773,0.8164658118366586,0.7066883882450194,0.602456155758095,0.49957601050087974,0.39536827486196024,0.2914442625631466,0.22947991808158896,0.28476932405432853,0.33247517109784286,0.4093452422977639,0.499668913160481,0.6010585016920085,0.7059345347249568,0.8088270572490501,0.9105775987197053,1.0,0.9933502931289753,0.905751341328731,0.81087059616884,0.7089695530760849,0.6113046749238475,0.5217220709791044,0.4933297679740065,0.46216338721404937,0.4310142856185659,0.4622150665650224,0.4590477300859752,0.4225646429110468,0.3863338277975108,0.35902176127032304,0.39232881838750844,0.44276691340982155,0.5266156688246271,0.5778888789411052,0.5110236230164356,0.41165065159877945,0.3429767585050736,0.38760009405926366,0.4851879542015982,0.5895395659430098,0.6931182662912172,0.7962053950597161,0.9026113131061897,0.982007384721614,0.9536258594085387,0.8632835390687541,0.7630554431648195,0.6659591621741776,0.5731071611301546,0.4918177784744957,0.4511648755897901,0.3685227458452076,0.34154515528187934,0.3783778475162334,0.3858258387945035,0.3710081508296439,0.33322200147655145,0.30114489109748654,0.2414781341608776,0.22868032433343743,0.3050834910312734,0.35274494290222513,0.2892777713546997,0.19370348915914715,0.11465599479899402,0.15592109508733754,0.25954182705276785,0.3636364717125202,0.47374089327177815,0.5812307113965502,0.6821912339495337,0.7730874091664344,0.7822251735374193,0.6946365820828693,0.5994207552719235,0.5039634064680278,0.41292944970329604,0.3658121549883797,0.3587764840956531,0.3183672200508374,0.35167828077472496,0.3880376679782074,0.39525734446467475,0.35493907512134837,0.28846254492012346,0.263850333859176,0.30423953774429746,0.3685575568814192,0.45559017410524727,0.49471949962689177,0.42425731239474596,0.32591128796233493,0.26613877013738096,0.3336496380890055,0.4437923841947069,0.5499809412755527,0.6540301778172126,0.7558711793192312,0.8565504084652393,0.9400227025055519,0.9160624294317392,0.8272774717494449,0.7331997607698235,0.6372824738776732,0.5458653454717475,0.49190137500141606,0.4988330897470623,0.43666315729130467,0.4398972596692239,0.47080478918935165,0.45377000576015236,0.414339519772013,0.36369229010367743,0.3219445836295338,0.34290841835551356,0.3995235296258852,0.4852411089293571,0.5478078103511603,0.49331596677993295,0.39762147482420884,0.32677465881744894,0.38275802607104237,0.4868695142724644,0.5907047915343555,0.6942803595859539,0.7984274401459348,0.8995704486834342,0.9785438702672673,0.9520511069457425,0.8615947334238676,0.7654325001663049,0.675958162223272,0.5829129456468414,0.49383807454458317,0.4840180148098838,0.47239782772968075,0.38993735450622347,MI
0.9023470906684894,0.9124790134963154,0.9194274115350214,0.9183090362318973,0.8983065491759925,0.8729888431152082,0.881533903093294,0.9062553966400291,0.9308554649511707,0.9005194649651735,0.8110078849842948,0.7119049789918428,0.612075739015769,0.5086397120376347,0.3986319659018802,0.29825545746713766,0.19506427142608107,0.09258187634399384,0.043340342387582,0.1048006804472239,0.20350790621598547,0.3098246462615468,0.4075312976906069,0.516686431750164,0.619009995378534,0.7189774587051319,0.8145637203885059,0.8960558218534804,0.9189990256581417,0.9064334701541448,0.8686326116781449,0.8341819764040013,0.7962983767549163,0.7430148300323238,0.6883987338194495,0.6397534858629754,0.5935275898077088,0.5810123755377141,0.6160889858948888,0.677497029984512,0.7450376321643208,0.8189657744164909,0.8777557799684472,0.9140675769713074,0.9234635991381541,0.9321793869220647,0.9205424244269542,0.9195138486024619,0.9195130990650489,0.91925947533819,0.9106958159131846,0.9156990811085439,0.9105728034175318,0.9023534141347005,0.9109731346520982,0.9181441651131066,0.9073137173370656,0.9172006657775285,0.9195012199744963,0.91621641591682,0.8916997309879493,0.8967577817323189,0.9191207844195031,0.9486152014030464,0.9089117588122599,0.8360182636510682,0.7444839026517411,0.6378865424476858,0.5407162086613884,0.43265587227476,0.32563219352926387,0.22811837037222782,0.12172559400392169,0.03778809692584906,0.0505815288452256,0.1437445374923887,0.244512157877685,0.35198859748775435,0.44921358862800753,0.5568543160191552,0.654538640309065,0.7562301327755234,0.8504578567319081,0.9066047022220101,0.8900778163418712,0.8633154667052554,0.8373802752411184,0.8032603358740835,0.7614029073012918,0.7131610356880476,0.6589050064748672,0.6131538226885547,0.5896079989969354,0.6088238442522891,0.6643560714177386,0.7276201492592014,0.7993463713859681,0.8690736501747498,0.9108554054912799,0.9194302761674877,0.9195130990650489,0.9195127270235823,0.918636138703659,0.9063252826698149,0.9038153921754972,0.9170222528815271,0.91950724014557,0.9195130990650489,0.9195130990650489,0.9195130990650489,0.9195130990650489,0.9195130990650489,0.9194951883691274,0.9153042143583496,0.8891600994531368,0.8806329045106014,0.9015743218485843,0.9142900157443061,0.8923022549190156,0.8062867997037588,0.702815958164511,0.6047971062039128,0.49643281237400094,0.41000692947771933,0.32581659702125476,0.21855783745927537,0.12146779816520681,0.024374135107754658,0.0,0.07869452753718509,0.18376634066399733,0.2812058715396124,0.3888605323302734,0.4861946580351395,0.591448924196921,0.688306313226513,0.7858367698173696,0.8592640819338797,0.900736333162242,0.9203734840510829,0.8869223358453304,0.8058374824089714,0.7087953490102938,0.6086162114518934,0.5115783759931851,0.5350552893018219,0.6410390490676745,0.7440540260924782,0.8425112467489,0.9294145766530191,0.9689039221434617,0.9606386675632659,0.9472052290752888,0.9448507284362502,0.9644143864546257,0.9690106153376008,0.9616040742770111,0.9614970692818772,0.9614970692818772,0.9614970692818772,0.9614970692818772,0.9614970692818772,0.9614970692818772,0.961428801595992,0.956913148260631,0.9596352214351516,0.9614929965499548,0.9616717852401377,0.9702596141279942,0.9786614693970797,0.9675399708594759,0.9280601524305112,0.8675877221745907,0.7988992158388553,0.7315543941291494,0.6680441228857923,0.6417684964514048,0.6758067112953379,0.7287426006382747,0.7812526172392924,0.8271523748508929,0.8635598160109366,0.8925938352646039,0.9188224362167428,0.9443015093753466,0.9719733788975033,0.9554834373829104,0.8783367627031669,0.7832837237848196,0.6782986458906675,0.5805538125141907,0.4823225238257218,0.5080586438666277,0.6149293637372364,0.7127352465889376,0.8163721549200997,0.9099729633830278,0.9860967077998488,1.0,0.9874012931482126,0.9575995479085471,0.9533679391170078,0.9628589506959169,0.9682426461839637,0.9616259251875472,0.9614970692818772,0.9614970692818772,0.9614970692818772,0.9614970692818772,0.9614970692818772,0.9614970692818772,0.9617904694993036,0.9718605644693485,0.9788971843466143,0.9789903902055559,0.9789900736655723,0.9782750706540182,0.9663578432746593,0.958744736853745,0.9239711882318997,0.8616367099398992,0.7912758738700543,0.7298511120537876,0.6636077146532422,0.6415818331856986,0.6850272351014093,0.7317167546200798,0.7888304721634452,0.8393111878143542,0.8780941698831097,0.9133387338200221,0.9506425889170504,0.9613810717079097,0.9604325101333524,0.92916541939758,0.8632119180181994,0.7817528862508092,0.6823698634712052,0.583332819982803,0.4814537603199449,0.4903982979518031,0.5961996348385674,0.7065502589421744,0.8124508372325576,0.9043901012681999,0.9680694964170202,0.9779932197369794,0.9596321501278564,0.9331521042520903,0.9250924714617184,0.9519600780928501,0.9613768345187075,0.9614969978838781,0.9610643255913254,0.9502999420659348,MI
0.9508433112582801,0.9443955457318003,0.9375072644820315,0.9348077234317569,0.9340914929498445,0.9276774518676429,0.920789752602257,0.9180047265477951,0.9138015256372287,0.8727670394147844,0.8158346335446454,0.7559184656634643,0.6976831674374531,0.6462376863296331,0.5853581671037404,0.5288320270021905,0.46711884820620175,0.4043259858231306,0.3421081340135045,0.2853526089116558,0.22432573841817482,0.16153895582503375,0.09986055097411661,0.06971631150029034,0.10979267977905538,0.16618561196773962,0.2284181277684567,0.2912135580089952,0.3540091805331652,0.41633275408564274,0.4732442826018638,0.5340117398063196,0.5967965759595377,0.6595903901042857,0.7213440654123127,0.7778229896332862,0.835476181207639,0.8811235714739154,0.9204612839095874,0.9401082691883342,0.9455655840080597,0.9548717310542636,0.9538341034177986,0.9291715802816576,0.8986309818296667,0.8632290847443536,0.81990569902142,0.7812650657827025,0.7445245902894422,0.7167801985942053,0.7257065223262575,0.7613675208787849,0.8019541163385462,0.8368802410123006,0.8720771411467116,0.9069150489966551,0.9235298147075612,0.9280273561356813,0.9339876448449547,0.928440725385516,0.91884653625835,0.9185739174535288,0.9258495867848047,0.9338733098819672,0.9347803397613681,0.9347819311582843,0.9347819311582843,0.9348443985397612,0.9384436727413026,0.9430371008347451,0.9430388634819427,0.9381071063016231,0.9166686562797941,0.864154530792117,0.8050405409053971,0.742310730735771,0.6795717624100184,0.6202832631547401,0.5621634515226459,0.49952370580588457,0.4367277127852288,0.37393171976457296,0.3111357267439173,0.24833973372326135,0.18556364582842244,0.12519507345027447,0.06801889039489861,0.010291863465703044,0.0,0.047629994394074004,0.10769134635449074,0.1704621650322019,0.23325815805285777,0.2959656754051655,0.3547449616724545,0.413351484141143,0.47604518298274434,0.5388411760034002,0.6016277769668839,0.6617966400536472,0.7102080658102423,0.7652192259837547,0.8228526679600536,0.8709273187253634,0.9134362366537716,0.9421673536161015,0.9492714368734398,0.9572015301492482,0.966420703138348,0.9523110170512135,0.9248251903155671,0.8933570760528828,0.852790598373873,0.8141255615866461,0.7772777273783624,0.7446961456804209,0.7457342086866867,0.7806449857874247,0.8258136464091728,0.8723354877215896,0.9125664418103423,0.9332647094967634,0.9285517434777308,0.9036929966643155,0.8777516734436666,0.8769788968852541,0.907775807150119,0.9251062761864755,0.9263823244723446,0.9262245224689813,0.9214428295752142,0.9180370821609445,0.9171902732084676,0.9109847159629987,0.9095959833067722,0.9095910897000767,0.9098084739871768,0.9191522750157863,0.9294441273887688,0.9297437458407809,0.9298384166367273,0.9343913463772939,0.9404889689287874,0.9387579958876098,0.944620762234643,0.9466562541363135,0.951135516423671,0.9542284036253521,0.9465892697896139,0.9268293101114029,0.9037594078343234,0.9234544379894163,0.9480285535580861,0.9548081126368035,0.9503151186973595,0.9228998671205784,0.8772424585201721,0.832869309030944,0.791309028502946,0.7854651350347601,0.8201929508456909,0.8578655918061042,0.8955249785985935,0.9314767862014557,0.9623402987110676,0.9843334989047821,0.987815376809752,0.979610928225813,0.9714927746590629,0.9601921067621213,0.9296995105243271,0.8863454491000795,0.8414346545939793,0.7855188252059278,0.7291676643646723,0.6784098002959553,0.6273598527213082,0.5772736496636046,0.5280024228165723,0.4739460916670729,0.429836540865011,0.4652115375366743,0.5276452464664187,0.5904402381901361,0.652494031749359,0.7091161883029926,0.7704376942901359,0.8330903647645214,0.8913320035182171,0.9503147338891356,1.0,0.988362265656729,0.9649151308146564,0.9633340471599368,0.9632832493237797,0.9599079963190509,0.9550978860969328,0.9549346043248501,0.9549346043248501,0.9549343241142152,0.9545151994274632,0.947740008698863,0.9393703945476839,0.9427811925980871,0.9533955293679033,0.954640772301419,0.9492522147459903,0.9449196824788688,0.9313793246568844,0.9013413379764652,0.8632178130334893,0.8274752406745145,0.7888517743262264,0.7541420007506494,0.7576960622004192,0.7953644100444686,0.8346816049822545,0.8748743018308387,0.911602265642002,0.9429830096825929,0.9692528828824682,0.9797418802892672,0.9754581099433695,0.965986923768575,0.9601722111756115,0.936402893174539,0.898273950180454,0.8559512045890372,0.8002197882303075,0.7438132864643843,0.6822117113551662,0.6194242940638592,0.5580917229957758,0.5014737063959165,0.4402587935206317,0.4154156330876234,0.46752325632917224,0.5302795828280629,0.5928933589623431,0.6507810360106716,0.7103139572806589,0.7730666077579484,0.8358626007786041,0.8985359264727257,0.9545555257333274,0.9698057739509667,0.9448160988762349,0.9410052629687515,0.9437675399129761,0.9503644895947208,0.9548126204877618,0.9553617998819477,0.9614473562422281,0.9690701318344206,0.9717041639791644,MI
0.7931211756814953,0.8291267532577584,0.7918414021802724,0.6731935399049531,0.5402910025751759,0.39975904216431024,0.3441242874980084,0.350635820811259,0.26634505458917834,0.20471817292042704,0.09108518349524619,0.05101599835826587,0.13654670705246996,0.22799300991703797,0.28951593880169524,0.4079464963782824,0.5302400566660461,0.6460876547434924,0.7160258024329123,0.7468366845856269,0.7259944251325323,0.715350546165189,0.724833994532005,0.7328019172886182,0.7734352833333062,0.8147666028629339,0.8231162646853045,0.8655441070554559,0.8279747464450762,0.7566669635617282,0.7130731382134159,0.7541137421803898,0.8303461993188175,0.8972672066000689,0.9137887779927514,0.8383577276162701,0.70752808441343,0.5619683858206135,0.42866694995586707,0.3011285249975679,0.2086795245142259,0.24104703595717147,0.35297027677597725,0.488083555244184,0.6114034009003251,0.7199741105762221,0.7770898074838204,0.7804760805106268,0.7697239961264501,0.7792497050189136,0.7823942755821616,0.8037425109122727,0.8498262624546231,0.853238755802963,0.816471505138999,0.7603701176154765,0.7654547138297274,0.8300773125738692,0.8869193336523296,0.9111838887047736,0.8789493650523919,0.7598355933343588,0.6151078823290086,0.47364838531355336,0.3462877141877443,0.23027844350985527,0.18642887569788735,0.26709252669452255,0.40006017301610663,0.527340825662935,0.639020570836689,0.7260610998720818,0.7235323513632643,0.696514816887801,0.7048087487519483,0.6904108396596804,0.6919683718744789,0.7044119363851329,0.7399398157967769,0.7357975620246044,0.7187674334544654,0.7099632842361014,0.6384155194104952,0.5759252888415887,0.5975188579895585,0.6662437518535609,0.7330491211437389,0.7458551724529494,0.6742774544868113,0.5442167207221469,0.4102461520487086,0.2805906743513895,0.14772809024173972,0.023606198840487203,0.0,0.10068706416052153,0.22583889233804122,0.3514850954685267,0.4778680243735245,0.5662766679190399,0.5980185305289627,0.6242879249337494,0.6380819875585937,0.67063866159544,0.7045330490953807,0.72623591700351,0.7814083040743238,0.7982363746367147,0.8370173849304021,0.8211684065553428,0.7923219594941848,0.7353639525076212,0.7190651493169029,0.7700981889459189,0.8550529107957554,0.9219926856422873,0.92259422351004,0.817584988880574,0.6849217191531194,0.5526311428605863,0.4248141183828795,0.2935594139148936,0.17632487582629164,0.16268444049017416,0.2667982788330776,0.3876299390509379,0.5103673432037006,0.6284793683098058,0.7193725214003006,0.7749207053686442,0.8039126054589381,0.8411631801027015,0.8371137467327987,0.7925864654386592,0.7251750515320903,0.6208484542357438,0.4914497880614581,0.36296490464482334,0.3031831309710511,0.4015626213938348,0.5169248681718606,0.6292157021233158,0.7620079142910243,0.8926812922310989,0.9883677577115053,1.0,0.983967710486914,0.9205294649604148,0.8320786773430124,0.7875820350403986,0.8386253671680328,0.8806414628881218,0.907952852233544,0.913889528850242,0.8870209427593276,0.8528429180334127,0.7942100554946872,0.7693660948734915,0.7333242286266017,0.7106164056711477,0.696999032666223,0.7160018181951768,0.6980263962769806,0.6238219368128841,0.5264558644277804,0.39342764614939174,0.26605038791492364,0.17913951510239468,0.260451363527908,0.38755143621138677,0.5208199306793628,0.6551255476867306,0.7763845979349147,0.8389079231748235,0.8700866385069119,0.8310178150665477,0.7544852755857399,0.6893816547727329,0.7082061817137606,0.7690057346209809,0.8166426736974897,0.8147501005983893,0.8221363826257808,0.8214613329938474,0.803438322268085,0.7665101725465169,0.7701299262909669,0.7885710307865281,0.7983132888238496,0.831501316395256,0.7916487408077448,0.7095877198031784,0.5913775070682825,0.4692120815975711,0.3563914077398578,0.36418726662592826,0.4848156938187085,0.6217607111867767,0.7544034004499469,0.8876439450953191,0.9715174671902771,0.9799125549152583,0.9800344864413817,0.9316458306800004,0.8538129210662246,0.8292625417108059,0.888131809332624,0.9207452274740144,0.9092790906791524,0.8852742761344135,0.8396962448229051,0.832640788033979,0.8329780061057308,0.8376807046095593,0.8468078020358556,0.8381318566199929,0.7855160833441213,0.6930028974860134,0.5879893595906753,0.46322769631026484,0.36000929376941704,0.4089173745212866,0.5346136972053457,0.6662065132965398,0.802051147416655,0.9261141407043758,0.9805193822617535,0.9807481474088995,0.944135806994824,0.8712526554413711,0.799999044183767,0.8162804621885189,0.8862940824190475,0.9317847666056194,0.9264884752349425,0.9025930108935136,0.8630359371252272,0.8051271831719089,0.7971342948712468,0.7899069236796747,0.8020306466645883,0.8164160654498049,0.778011332996007,0.7154738893989707,0.6162660849710311,0.5149529871351808,0.4415194747418898,0.5257093389260676,0.595833689142637,0.6106701962376646,0.7231228411159907,0.8565887903775629,0.9263253492699115,0.9078685554020418,0.9188119393349781,MI
0.5629745990025772,0.6245231572168655,0.6929325142344924,0.7500746472202062,0.7868249199683117,0.8006233783793528,0.7674197512543521,0.7193793629995542,0.7061189336928464,0.7645714596786222,0.8324203513143618,0.8811856102018358,0.874843310812748,0.7966739292678267,0.7179177135337313,0.6204630158215629,0.5159953948889602,0.40713425913996715,0.32534704997275754,0.3526575530971374,0.44735049188494425,0.5520104942047992,0.6487854394548849,0.7394333708466438,0.8128482028600426,0.7957097273615898,0.7338863090659344,0.6715109022729957,0.6112158256153843,0.5698681919779924,0.5817662118382112,0.635477685215067,0.6956130005738002,0.7642245118674131,0.8345593294014255,0.871948943896647,0.8848577197650147,0.8557007336796978,0.8027063559249987,0.7623323172106502,0.7894422123091489,0.8432814757894518,0.8802538589777085,0.8861939985371461,0.8150480212530746,0.7071196958590529,0.601028844330106,0.49449277662558155,0.38697035512596645,0.2924519411442177,0.29272774962451353,0.3833848635418684,0.48649974569499643,0.5882471764782224,0.6754160084578047,0.7401027021997544,0.7305838880442022,0.6674753542457414,0.5937581548828794,0.5268959845935337,0.46500112653680437,0.40742601152750324,0.3940707383163693,0.43238743107163136,0.4871594246254125,0.5431974361122738,0.586783704276735,0.6057644847515717,0.5629019080277222,0.5064102526819083,0.44760973209501675,0.4440169684030051,0.4963100157821383,0.5386386956956579,0.5622676162735278,0.48836271623939864,0.3799729657915665,0.27057213900463606,0.16422425013157338,0.0576507016527239,0.0,0.06442786659353095,0.16220538936706475,0.2643946633234353,0.3579675481869773,0.4352742189492862,0.515206145487962,0.5599599468182086,0.5222867779637734,0.4741672585852379,0.43692409209758165,0.43245959048154403,0.4800495105917346,0.5420627395894198,0.6071922246600734,0.6793355623797572,0.7417535600046479,0.7885009238720218,0.7906030120483505,0.7455955784186605,0.7060653885109891,0.7205001958138355,0.7774572589273914,0.8364190604393797,0.8559819084103817,0.7985391520750731,0.6926519735957621,0.5828453797867137,0.46713548201625055,0.36097486300818393,0.28072659949186884,0.3029625863347609,0.3943333849694153,0.4996817653299066,0.6108932693413796,0.700503890655199,0.7742834738685722,0.8004993173774928,0.7458023956695092,0.6867705510992261,0.6296157559475251,0.5934455552439444,0.59184367115821,0.6412275021579286,0.7020977583874115,0.7610680382476087,0.801469232244074,0.8430602166897738,0.8850806775704407,0.891535883339001,0.853409376099908,0.8145205610066848,0.7591763284639248,0.696757137151683,0.6443348152774526,0.6406835439624226,0.6822815748033728,0.7415442587162369,0.8026533182236781,0.8597681371758521,0.8735322926222742,0.8064973226517707,0.7259007471793975,0.6331876189858245,0.532038529961756,0.4312203780022983,0.42498651515894026,0.5254657842434225,0.6300453269736284,0.7245900601285478,0.8197375098928139,0.9263885954877977,0.9616120327718207,0.9081144417699776,0.8783702262154474,0.8251106745683636,0.7728868736681058,0.7878459343064266,0.8329184895951671,0.848286565171344,0.8223317839401585,0.7744513829699164,0.7065008967846496,0.6353619347314232,0.5700237297555708,0.504838582380281,0.47482332143869077,0.5030552018955594,0.548437974250948,0.5987162565617326,0.6348806656105819,0.584960611756338,0.5041944678573056,0.4235367746363281,0.3261475042838853,0.22466729996139878,0.20103342330204055,0.3034683929937916,0.4101012762652696,0.5195821051685698,0.6256467728838311,0.6784414607735145,0.6282448953471229,0.5799544312332563,0.5374317655828318,0.497712910907411,0.5285720268180045,0.590321219294365,0.6445763756581895,0.649788775240183,0.6174798073515941,0.5708113276739264,0.5147424285863844,0.46070203207307814,0.45020777255043964,0.5054810774026752,0.5673704632655514,0.6324505045891275,0.7097340815813558,0.7747849167326042,0.8189122744100412,0.7758696797745632,0.705518927368084,0.6194173318549894,0.5142586845784798,0.42492787940867927,0.4723617112796272,0.5788913581497794,0.6852387435458882,0.7944599977644728,0.9021652903708375,0.9884158235374152,0.9696535866121427,0.9311112089983034,0.8898518764966428,0.838984111718746,0.8461430639158445,0.8963070916712155,0.9226976107562097,0.9217819565231362,0.8967089107046318,0.8435149222583955,0.7706049802539316,0.7081397005058256,0.6467537707345701,0.6116400120692542,0.652833247573869,0.7170114038905402,0.7750911616074017,0.8411657979560221,0.8929998025927228,0.8655146449719233,0.7883713902541409,0.7042735901292845,0.6079331392995779,0.5062016586761564,0.4414832144837628,0.5202417169344498,0.6265240673386361,0.7326899177150448,0.8413551567877187,0.9460969866495159,0.9999999999999998,0.9527018338830138,0.9149287913040889,0.8590198679929688,0.7931318006384893,0.7768916801072814,0.8172429969890851,0.8480455249254366,0.8412888032459718,0.8144390987246137,0.7663193368967123,0.7015204751884092,0.6354258596786042,MI
0.9257791880473869,0.9297393687356501,0.91161692061283,0.8844851767036284,0.8515307886983741,0.8214475992809471,0.7969215139854628,0.7931499143619183,0.7929108313537423,0.7820483698856506,0.7624776554570949,0.7581663015762512,0.7464649828739516,0.7419716714023386,0.7532672463921481,0.7586655245932539,0.7571262580917351,0.7438350699105389,0.7414854587978161,0.741481518893075,0.741481518893075,0.741481518893075,0.7405552259494885,0.7279448714948393,0.7242752153384533,0.724262468393611,0.724262468393611,0.724262468393611,0.724262468393611,0.7245863027502732,0.7314423068158868,0.730481765525548,0.7315453760026149,0.6982172835695066,0.6738085690410132,0.6727772544019484,0.6824030725496111,0.7090464219093051,0.7239929396197291,0.7280731424509828,0.7004658608204717,0.6140330820213764,0.5272976933833924,0.4500762455565215,0.36100766940834506,0.27092876044007275,0.18084949233699454,0.09100410240278523,0.014718578301516239,0.0,0.06166835831448392,0.14108031282687827,0.23073245739831982,0.31212707340513957,0.3939549019328932,0.48380431815877456,0.5661171936673335,0.6455561879483676,0.7222805001360819,0.8028405131354615,0.8768796861621806,0.8864858180956232,0.8657219798313451,0.8623266692632403,0.8726117415068155,0.8847883706724509,0.9080176044132964,0.9240356964930605,0.9437336613412515,0.938000331215906,0.9179867815625382,0.8871127900301423,0.8546350356681898,0.838422324954061,0.8206321876785236,0.8013711678075279,0.7690796128393611,0.7377543035649161,0.7124611156916281,0.6906609950432552,0.6758679181273859,0.6726138201476632,0.6730466971489037,0.6842943913883643,0.6897887790919284,0.6898286063479895,0.6922615253387088,0.7011976477480508,0.690557426760285,0.6899134650578969,0.6972790938506126,0.706839019363402,0.7070434178941465,0.7070434178941465,0.7070434178941465,0.7070402807316496,0.7046540359295395,0.691323368928559,0.6809074676714246,0.6706653841399008,0.6460387443410776,0.6139684882220093,0.5884648132561785,0.599509603815847,0.6223076397205398,0.6493339655317558,0.6805280351090124,0.6786592612308495,0.6981143556459637,0.6835664624813602,0.5979151824637019,0.5192920158998544,0.43444946989444544,0.3461911218108207,0.2848655760093437,0.21532105661472256,0.13494813839939068,0.12358593650346927,0.192196666177062,0.27409010803126765,0.3636966832408963,0.44300605693626327,0.527029859297123,0.6152258309255538,0.6911377864839676,0.7662596259786087,0.8432070485180923,0.8777214146191308,0.8502411560952812,0.8301125462414833,0.8280937115951019,0.8397839557089366,0.8544886471494926,0.8619382309915076,0.8661844163438408,0.899501677399936,0.9151908177802164,0.904244303564711,0.9022244247012288,0.88926317710018,0.8866116298470694,0.9018987558909286,0.9501486676961779,0.999154330042451,0.9796099524978019,0.9091820290787038,0.8323459253573438,0.7543613506008744,0.6817345187027546,0.6203853575339902,0.6732586208089026,0.7562076523889214,0.8197711096178502,0.8409283386468132,0.7936169046929455,0.7404187557394581,0.728132754722318,0.7025513841943813,0.6708083924635377,0.655073797751148,0.6564390678968683,0.6915385637331961,0.7127820851133033,0.725980483642604,0.7330065532984151,0.7467199114964131,0.7592517843802562,0.7555059397166874,0.7501871657846899,0.7634649737766699,0.7653505999627233,0.7557902095477478,0.7480885541328113,0.7371838383431348,0.7358866932806323,0.7477220443706107,0.7482689317505966,0.7405156038859491,0.731332386074703,0.730893576039588,0.7210903563591331,0.7140572544864132,0.7211542234892123,0.7388894554863028,0.758248785824124,0.7869846537644434,0.8197654529277134,0.845999759898302,0.8669141844069883,0.8849599886460764,0.9057021971428156,0.9378497179351846,0.9682690577858248,0.9895219808946427,0.9995678280623848,0.9894421997264988,0.9712894257106011,0.9514222332847098,0.9375530458975292,0.9211519192033366,0.9072457796196334,0.9262983744595479,0.9714935268359519,1.0,0.9570086606186239,0.8768693462000026,0.7995498175233537,0.717990480434255,0.6405763227335295,0.5971716771252615,0.6544038552346585,0.7402673599741636,0.8162978988572025,0.8635343022972872,0.8285294428427066,0.7728472636198909,0.7651226459133205,0.7480629429832617,0.7222323064565437,0.7157700049144067,0.7409176721544828,0.7765256139581154,0.7827872627671089,0.7828072400917883,0.7826979720230112,0.7746171663552808,0.765759076878533,0.7685656416003677,0.7806632838083285,0.7757875908504186,0.7825236331018495,0.7828072400917883,0.7828072400917883,0.782821948963659,0.7871773800269763,0.7993000749195556,0.800026147537555,0.8000262905912523,0.8000262905912523,0.8000116870309864,0.7962044747555366,0.7897132369453406,0.799695178189705,0.8068345507719332,0.8255546250253736,0.8332455234493419,0.8382212335749788,0.8494177983881066,0.8434855052987222,0.8715586624407567,0.9019673377647868,0.9342698441673933,0.9649853848983585,0.9721588264198173,0.9722167955858931,MI
0.73559523729211,0.7383000193915628,0.7403854262817133,0.7535138960237955,0.7626214227263826,0.7732025563029121,0.7742184372757541,0.775414702710294,0.7624957282410163,0.7330744940846716,0.7491829053136754,0.782870867152746,0.7930879736056542,0.7925341275529485,0.7319727558963467,0.6398091938611632,0.5459526679712026,0.44663504982586866,0.35600667952947207,0.25918227198485044,0.15901428408424634,0.060077007940892546,0.0,0.04732313164814128,0.13625125348970335,0.23549088844729393,0.3261064585005464,0.40337196418248755,0.49507304287093445,0.5868594726015228,0.6778557158621825,0.7634391794938504,0.8096605708442892,0.8100776085964188,0.7734971390748906,0.7326413893959232,0.6775642913359263,0.6209332793684901,0.5678274371149321,0.5189084075189769,0.5131465577051149,0.559470988788513,0.619145020658161,0.6807294515819349,0.7384256479172664,0.7711740422499367,0.7636330764743451,0.7544470619753332,0.7659387520054715,0.7782443108945958,0.7793933610699679,0.7780177569005264,0.75750422579305,0.733040492520995,0.7441756133951771,0.7817314557377246,0.8113199453269426,0.8382964725539104,0.8651620157978508,0.8138607240016151,0.7238114640502831,0.6249348048046941,0.5342830229854205,0.4374946072995849,0.338620763598769,0.24857450657313307,0.15508036696464678,0.11248265827193271,0.1696442609842872,0.2629381902617116,0.3577760161266148,0.44990384784871384,0.5497829105088834,0.6499707019601031,0.7491443487676288,0.8379623145719552,0.9069730291563189,0.9342970872580425,0.9361542519926043,0.9065949661556738,0.8578375738317443,0.8233713969640846,0.7700454186235182,0.7206403595558633,0.7199507575975281,0.7636722572398424,0.8237305839583065,0.8848591298220922,0.9264501451240799,0.9207141331032531,0.9063244751160289,0.8834500579657911,0.8657441668838914,0.8564788574595785,0.8351038321579214,0.8160726180004847,0.7806060908745187,0.745037385239617,0.7323042538275222,0.7525820829231207,0.7483779748401824,0.7533644990299555,0.7245098996850747,0.6331443488524378,0.5330310451617102,0.4330129704629122,0.33972533783939207,0.24602755783636376,0.14811354515430986,0.05974970670620383,0.011285569220468306,0.07123534932931874,0.16269806525773634,0.26134119962258784,0.35139837588489176,0.44825188090093904,0.5381398770420138,0.6266310803604722,0.6875687198126892,0.6889190336020117,0.6642711467167155,0.624524173497008,0.5626108022538592,0.49807248462968845,0.4405294004379028,0.3852161918579955,0.3488419921268926,0.37123638920092183,0.42957096967078967,0.49870006427738467,0.5635923583085258,0.630146062098393,0.692735043667219,0.7385967271569824,0.7646951915102709,0.7714453881980967,0.7909885879159977,0.8114438146036842,0.8038776244700836,0.7808572427888851,0.7402476847016133,0.6823163381716602,0.6195058259444317,0.5524328841729829,0.47974932301202067,0.4191356994133253,0.40759946792064583,0.459364272198606,0.5199309059815107,0.577891268250343,0.6417051540213881,0.6939940326708274,0.7280405493576318,0.7505443110524777,0.7530502373750054,0.7480432219666491,0.6770176004369937,0.589660402777004,0.506975132217236,0.43970277052628126,0.45867163634151464,0.5531939474718683,0.6452549003509391,0.7362339432900846,0.8200150367414465,0.8442873910725428,0.8061157451878223,0.8101345695530275,0.7974696891148474,0.7789312221258178,0.8000192274538116,0.8379158579258208,0.8641613050702177,0.8863778201131409,0.9029749780451879,0.907936789865039,0.9301519564442344,0.9550322729682752,0.9662171992260027,0.9715427649094464,0.9344789040699162,0.8774729257269862,0.8192791016244625,0.7673453608152125,0.7704325918815469,0.8267659944601324,0.8736441803021968,0.9115796966564802,0.95326905895427,0.9818828377691502,0.9813013513076219,0.9627525098013092,0.9205311765983875,0.8374970617161654,0.7468591618894305,0.6566424714704997,0.5587952594970247,0.5208486346458296,0.6032048216637738,0.6930883759051354,0.7891825989534107,0.8782962979914419,0.964051954022874,1.0,0.9396187893531045,0.8867761869685564,0.8637017381661911,0.846620216143128,0.8032420994029881,0.7764718540824389,0.8009841798810249,0.8122293023254734,0.8187218780532683,0.8213624018039498,0.8105163840542104,0.7999300372888349,0.8023090765056615,0.8107461806351108,0.7891385469228451,0.7397268016818512,0.6808906011099762,0.6157950633624152,0.5602044885521815,0.5607450680342478,0.6169280658888621,0.6738991003264312,0.7255213936791578,0.7779190870531236,0.8192579006496938,0.8475994413173815,0.8507640848199678,0.8413801799969391,0.7826795972572751,0.6952982709368487,0.6046407037854626,0.5210515815636345,0.5404778152448642,0.6368786226926693,0.7276234642267885,0.8240933654113625,0.9041655954107823,0.8873150802001155,0.8343357114882153,0.8253435967473681,0.8070948302651697,0.7808156863638311,0.8008777801348272,0.8120266715765019,0.8122533214267391,0.8108436235271599,0.8006235835016811,0.7923428621469455,0.7808357566780537,0.7832077565325615,0.7761383632818237,MI
