0,1,2,3,4,5,6,7,8,9,10,11,12,13,14,15,16,17,18,19,20,21,22,23,24,25,26,27,28,29,30,31,32,33,34,35,36,37,38,39,40,41,42,43,44,45,46,47,48,49,50,51,52,53,54,55,56,57,58,59,60,61,62,63,64,65,66,67,68,69,70,71,72,73,74,75,76,77,78,79,80,81,82,83,84,85,86,87,88,89,90,91,92,93,94,95,96,97,98,99,100,101,102,103,104,105,106,107,108,109,110,111,112,113,114,115,116,117,118,119,120,121,122,123,124,125,126,127,128,129,130,131,132,133,134,135,136,137,138,139,140,141,142,143,144,145,146,147,148,149,150,151,152,153,154,155,156,157,158,159,160,161,162,163,164,165,166,167,168,169,170,171,172,173,174,175,176,177,178,179,180,181,182,183,184,185,186,187,188,189,190,191,192,193,194,195,196,197,198,199,200,201,202,203,204,205,206,207,208,209,210,211,212,213,214,215,216,217,218,219,220,221,222,223,224,225,226,227,228,229,230,231,232,233,234,235,236,237,238,239,240,241,242,243,244,245,246,247,248,249,250,251,252,253,254,Target
0.17462748021088448,0.24132102103037256,0.30476195262899697,0.37177280883980446,0.4434210702331278,0.4987338954824755,0.548312549036688,0.5782317411033363,0.5569289242263351,0.5542859680177253,0.6182155481439194,0.6915909619177043,0.7641110248994749,0.8330676283482579,0.8821886204327127,0.8427361920024135,0.781543635791081,0.7433017678445968,0.7178081260203701,0.6732477553320657,0.6295676278140677,0.6086054540271584,0.6072743159659063,0.6187658307948338,0.6095686882728873,0.6132566843384178,0.6335088975366955,0.637941465071708,0.627531168324102,0.6399892919471265,0.6511669243022626,0.6282056030715234,0.574752129431867,0.5121802112643805,0.44226342111054895,0.37214207493300644,0.3011257816961229,0.2290125143951216,0.1596364300055681,0.08659489422561084,0.016571531849467358,0.0,0.05900404832240619,0.13117799000529584,0.20040019905262785,0.2731736891744224,0.34656707077105575,0.4169675440621138,0.4864026295588427,0.5513237054271314,0.6218546758090308,0.6910862548468955,0.7638656778982897,0.834593445108248,0.8973267620105685,0.8864035266355019,0.8228800619618342,0.7658061152837798,0.738890469530227,0.7109194841441451,0.6690153303061616,0.6417010815299907,0.6220949552664172,0.6069396364516273,0.5904927346931746,0.5831813800542527,0.6078896976253446,0.623182041965343,0.6184399423611919,0.6354424021535153,0.6446387622588006,0.6225557489408654,0.5645364918172485,0.4949203843339728,0.42527306642323126,0.3535366470574951,0.2890935723171404,0.22419203938062393,0.1549979305260361,0.08407844574039403,0.020311432248349193,0.019926913076954156,0.08544524480058235,0.1466968952442237,0.2003979353050379,0.2662186150222198,0.33945416164118447,0.4099318616265927,0.48070632777986,0.5541436566268432,0.6271100783517486,0.6964091990801387,0.7687349511230308,0.8416870049475165,0.9093025706726443,0.932960460475107,0.8770829949418479,0.8123139369892474,0.762491568270647,0.7474713834411617,0.7174059970202098,0.6752844100059825,0.6489639804640372,0.6269025558005725,0.6156598403503554,0.5951362303489428,0.5885776976289696,0.6106366991831356,0.6142578421820142,0.6277472787689651,0.6463302723902312,0.6333249598300645,0.5791199027218633,0.5076064817182855,0.43827073734256083,0.3679435497053982,0.2976822029346766,0.22797022389499544,0.15654234629890224,0.08597479135157188,0.01956878571707099,0.007716786918760321,0.06841224255732187,0.13877337117613597,0.20933042837113958,0.2827455372506582,0.3562583109875266,0.42977108472439474,0.5032820837530818,0.5761662859314771,0.6454218665484942,0.7178730715793573,0.7911511547984373,0.8604536692333427,0.901658560741831,0.857325029358486,0.7955434230991782,0.7565031943401155,0.7488739716603294,0.7137662600005081,0.6686590657559851,0.6480724226208551,0.6635555273323884,0.69546805163565,0.7424886555438137,0.7719138035197117,0.788130563545993,0.8418380287101153,0.9065126954695624,0.9603513883561041,0.9492029036483998,0.8825975816338365,0.8128497384231745,0.7402727711146253,0.6710373568752825,0.5986033408531003,0.5297371901362475,0.4636182906072932,0.3946801411117449,0.32263906380566854,0.2733080293617939,0.31564725017510864,0.38604141358808075,0.4561833400258718,0.5267935452534986,0.5945895492139723,0.6467117286823727,0.6638531328513245,0.6562122714529471,0.6360688318554334,0.630136938704836,0.6096285993597487,0.6132038415446066,0.6334815559791809,0.6487657706006942,0.6710583634491223,0.701441610401806,0.7444696208692263,0.7687413561444987,0.787958760660898,0.8484009654986209,0.916124553461946,0.9774987600624383,1.0,0.9534661356734588,0.892673497490245,0.8206343229087101,0.7471276905325399,0.6736149167956731,0.6001022871015731,0.5268198323452961,0.45698176101115284,0.3854887949890804,0.3120876735747593,0.25196071301709344,0.2790989440713507,0.3499244341357608,0.41927175756027857,0.4910912731018928,0.5595370362807643,0.6219111732486282,0.6566469376399277,0.6638902291731763,0.64601300953195,0.6420301805007105,0.6405618297504885,0.6164894524296013,0.6037754807493347,0.6225768942866378,0.6331206176627059,0.6534113514233322,0.6715389272448689,0.7103507759925927,0.7471509162592236,0.7658870927639281,0.8090903550198145,0.8733419020784581,0.9374452468563308,0.978279624159125,0.9408988162782153,0.8729449353314052,0.8022320708016182,0.7292709840027787,0.6599058433182816,0.5877156488049466,0.5142803975933635,0.44341299498205944,0.37302555320680886,0.3008303256678647,0.269667591803443,0.32602018696607404,0.39730263448547287,0.4671337966568929,0.540290205229026,0.6093647226325329,0.6553118675630761,0.670295132481772,0.6639613003338104,0.6486902515584143,0.6594879023676724,0.6537592941896738,0.6344157939619984,0.6302828849844887,0.6369613996516722,0.6259782313209471,0.6307816817580038,0.6500309424035621,0.6952303072857755,0.7364458934234033,0.7622900368283028,0.8083985126246125,0.8722173028203815,0.9301263946649019,0.9325551656434381,0.8766265055563109,MI
0.5216191532075878,0.5678719501210292,0.5943198762511823,0.5859837595310298,0.588841239798219,0.5685596110953504,0.5674918730069298,0.5736371961991287,0.5725805185802404,0.5798743167702738,0.5830196762222122,0.5880090705479568,0.6092754572581205,0.6141779182958262,0.6025678770025573,0.5576259533173955,0.5324427355656898,0.538288562882105,0.582535519430079,0.6165848429279803,0.6247915140866795,0.6060322517368948,0.6145281780775878,0.6300042657628522,0.6600172412932284,0.6740225874462293,0.6290394460210131,0.6608945829942106,0.7438866084904845,0.8199177918620024,0.8002586899626052,0.7122246954309803,0.621019088392623,0.5336808839834122,0.45182324130678,0.3824788911405821,0.3007757748026756,0.24165325644876923,0.20697392626862987,0.16864191869249545,0.12811111197523717,0.10142098496906682,0.05542569969700928,0.023419930621162877,0.003395684315701697,0.0,0.035352075796970084,0.09953601580623417,0.16260272591445846,0.22870996652822528,0.29620619727696385,0.36844609159387787,0.4416126753905405,0.5048055599309729,0.5585080835381939,0.5911919584143166,0.5869093671230114,0.5786090640208226,0.5845311722928153,0.5969219115662638,0.5971214134967262,0.5971214134967262,0.5971214966589695,0.597615138868492,0.6087990257125262,0.6225071325358722,0.6150137385451062,0.5694668905215479,0.5399962091660697,0.5399796129105101,0.5881671635922947,0.6230177057325479,0.637824926167081,0.647914882494049,0.6419792618477165,0.6481335565323714,0.6713565647835638,0.679401447353428,0.6114240860859543,0.5998830053332722,0.6685870480775433,0.757536976914555,0.8255817421419613,0.7821548365357454,0.6824915761682786,0.5859843837727321,0.5011827763109737,0.41708556581595513,0.3363832359574692,0.2724003344500794,0.22707524448127536,0.1995967893260686,0.17221894502396173,0.13480718931638958,0.09790662484899437,0.06549543804838986,0.026260850243017497,0.017775803148638136,0.05228578017125729,0.10771042932122121,0.16596337784822746,0.2320390237087695,0.30230073725091433,0.37768957816024784,0.4454070999283415,0.5116510047970615,0.565688845287212,0.6061216971398724,0.6142238903537982,0.6125585165550373,0.5995869673445746,0.5971265747499355,0.5971011118102214,0.5929276049348151,0.588276154832124,0.5968925417678199,0.5971189889664958,0.5947856903756361,0.5617426686189146,0.5235846654169651,0.5163073283403916,0.556233751549911,0.5952267138238723,0.6202289058730508,0.6316462426836664,0.6506095560786629,0.6817195553775224,0.6755636170430543,0.6599163712664131,0.6346334497807837,0.5924243242839395,0.5738490490929227,0.607397487592666,0.6450666389121795,0.6516780836050282,0.6523344761935257,0.6542637963587703,0.6417157863197058,0.6382766202394747,0.6382707149197215,0.640735735506607,0.6538243065387297,0.6593324775622813,0.6714145403732674,0.6616341469779328,0.6295678542268375,0.5865763532063752,0.5305786217553994,0.4577704569779888,0.3837398410768409,0.31770091170690584,0.2504026932538528,0.18617538837473147,0.12384101616380816,0.07352689611200303,0.07849217958690913,0.11750560585766223,0.15455376583279845,0.18737750528997532,0.22238837978370274,0.24916506867936405,0.28358177743484303,0.3390598970367331,0.4167822863609074,0.4978015922453056,0.5842270967025383,0.6732163681248733,0.764134967836835,0.8553960134909828,0.9356682668838743,0.9910736183019271,0.9893843981065702,0.9214945414453193,0.8351024857658214,0.7839991481231885,0.8163571062536001,0.7847549084028245,0.7191782237147053,0.6972727440337034,0.695799261751382,0.69896405890622,0.6857296476007022,0.6668290725990302,0.6385813798735724,0.5983106722752498,0.6103350308301074,0.6548455591917182,0.6721248861159013,0.6653379932571726,0.6556752485412369,0.6542197092815116,0.6415841377030214,0.6383047147861136,0.6429569098743246,0.6492134730681083,0.6478254531923233,0.6424248625017075,0.6549463433272873,0.6470817689312724,0.6148405879761341,0.5668422223630367,0.49751081757675975,0.4309089585222323,0.36195335283901553,0.29260807839029157,0.22525970336689705,0.15558006534100777,0.08867028255713016,0.048815827173188,0.05482517162202161,0.08240605637643572,0.12316184810095354,0.15945261063137606,0.19414155930195776,0.2340747465348434,0.26896207912180126,0.3225488000599692,0.40069451973616443,0.4842818028911111,0.5720003954815693,0.6595011844427896,0.7578831734262113,0.8544909173175701,0.9387799970391395,1.0000000000000004,0.9830866289800935,0.9126769143860094,0.8266862414130389,0.7705483102544082,0.8122435507447281,0.7938640801631558,0.7229666685332727,0.6806798473022218,0.6679736244164101,0.6685058893466054,0.6859918024084921,0.6654073390476105,0.6350016998241905,0.5928823235311893,0.5901701096685823,0.6296201011231806,0.655044182951471,0.6642898447144603,0.6565581328264476,0.6458797735842805,0.6373377301541523,0.6321963088832496,0.6294408727416063,0.6212703237463586,0.62132746767782,0.6305167363702817,0.6383135431648088,0.6468202330555388,0.6426151700677347,0.6088064465899783,MI
0.5216191532075878,0.5678719501210292,0.5943198762511823,0.5859837595310298,0.588841239798219,0.5685596110953504,0.5674918730069298,0.5736371961991287,0.5725805185802404,0.5798743167702738,0.5830196762222122,0.5880090705479568,0.6092754572581205,0.6141779182958262,0.6025678770025573,0.5576259533173955,0.5324427355656898,0.538288562882105,0.582535519430079,0.6165848429279803,0.6247915140866795,0.6060322517368948,0.6145281780775878,0.6300042657628522,0.6600172412932284,0.6740225874462293,0.6290394460210131,0.6608945829942106,0.7438866084904845,0.8199177918620024,0.8002586899626052,0.7122246954309803,0.621019088392623,0.5336808839834122,0.45182324130678,0.3824788911405821,0.3007757748026756,0.24165325644876923,0.20697392626862987,0.16864191869249545,0.12811111197523717,0.10142098496906682,0.05542569969700928,0.023419930621162877,0.003395684315701697,0.0,0.035352075796970084,0.09953601580623417,0.16260272591445846,0.22870996652822528,0.29620619727696385,0.36844609159387787,0.4416126753905405,0.5048055599309729,0.5585080835381939,0.5911919584143166,0.5869093671230114,0.5786090640208226,0.5845311722928153,0.5969219115662638,0.5971214134967262,0.5971214134967262,0.5971214966589695,0.597615138868492,0.6087990257125262,0.6225071325358722,0.6150137385451062,0.5694668905215479,0.5399962091660697,0.5399796129105101,0.5881671635922947,0.6230177057325479,0.637824926167081,0.647914882494049,0.6419792618477165,0.6481335565323714,0.6713565647835638,0.679401447353428,0.6114240860859543,0.5998830053332722,0.6685870480775433,0.757536976914555,0.8255817421419613,0.7821548365357454,0.6824915761682786,0.5859843837727321,0.5011827763109737,0.41708556581595513,0.3363832359574692,0.2724003344500794,0.22707524448127536,0.1995967893260686,0.17221894502396173,0.13480718931638958,0.09790662484899437,0.06549543804838986,0.026260850243017497,0.017775803148638136,0.05228578017125729,0.10771042932122121,0.16596337784822746,0.2320390237087695,0.30230073725091433,0.37768957816024784,0.4454070999283415,0.5116510047970615,0.565688845287212,0.6061216971398724,0.6142238903537982,0.6125585165550373,0.5995869673445746,0.5971265747499355,0.5971011118102214,0.5929276049348151,0.588276154832124,0.5968925417678199,0.5971189889664958,0.5947856903756361,0.5617426686189146,0.5235846654169651,0.5163073283403916,0.556233751549911,0.5952267138238723,0.6202289058730508,0.6316462426836664,0.6506095560786629,0.6817195553775224,0.6755636170430543,0.6599163712664131,0.6346334497807837,0.5924243242839395,0.5738490490929227,0.607397487592666,0.6450666389121795,0.6516780836050282,0.6523344761935257,0.6542637963587703,0.6417157863197058,0.6382766202394747,0.6382707149197215,0.640735735506607,0.6538243065387297,0.6593324775622813,0.6714145403732674,0.6616341469779328,0.6295678542268375,0.5865763532063752,0.5305786217553994,0.4577704569779888,0.3837398410768409,0.31770091170690584,0.2504026932538528,0.18617538837473147,0.12384101616380816,0.07352689611200303,0.07849217958690913,0.11750560585766223,0.15455376583279845,0.18737750528997532,0.22238837978370274,0.24916506867936405,0.28358177743484303,0.3390598970367331,0.4167822863609074,0.4978015922453056,0.5842270967025383,0.6732163681248733,0.764134967836835,0.8553960134909828,0.9356682668838743,0.9910736183019271,0.9893843981065702,0.9214945414453193,0.8351024857658214,0.7839991481231885,0.8163571062536001,0.7847549084028245,0.7191782237147053,0.6972727440337034,0.695799261751382,0.69896405890622,0.6857296476007022,0.6668290725990302,0.6385813798735724,0.5983106722752498,0.6103350308301074,0.6548455591917182,0.6721248861159013,0.6653379932571726,0.6556752485412369,0.6542197092815116,0.6415841377030214,0.6383047147861136,0.6429569098743246,0.6492134730681083,0.6478254531923233,0.6424248625017075,0.6549463433272873,0.6470817689312724,0.6148405879761341,0.5668422223630367,0.49751081757675975,0.4309089585222323,0.36195335283901553,0.29260807839029157,0.22525970336689705,0.15558006534100777,0.08867028255713016,0.048815827173188,0.05482517162202161,0.08240605637643572,0.12316184810095354,0.15945261063137606,0.19414155930195776,0.2340747465348434,0.26896207912180126,0.3225488000599692,0.40069451973616443,0.4842818028911111,0.5720003954815693,0.6595011844427896,0.7578831734262113,0.8544909173175701,0.9387799970391395,1.0000000000000004,0.9830866289800935,0.9126769143860094,0.8266862414130389,0.7705483102544082,0.8122435507447281,0.7938640801631558,0.7229666685332727,0.6806798473022218,0.6679736244164101,0.6685058893466054,0.6859918024084921,0.6654073390476105,0.6350016998241905,0.5928823235311893,0.5901701096685823,0.6296201011231806,0.655044182951471,0.6642898447144603,0.6565581328264476,0.6458797735842805,0.6373377301541523,0.6321963088832496,0.6294408727416063,0.6212703237463586,0.62132746767782,0.6305167363702817,0.6383135431648088,0.6468202330555388,0.6426151700677347,0.6088064465899783,MI
0.6952148321549629,0.7182619341198055,0.7262674838000533,0.7026799410731022,0.6593160720477034,0.6409779998152114,0.6209319537808067,0.5928234591561963,0.551119221310105,0.4939599651158653,0.4370925420223733,0.3767268199348632,0.3171950474319058,0.2604727099188034,0.200226656427079,0.1404511832810762,0.0838269895718885,0.025172091616859515,0.0,0.04344462498077392,0.10377961970202021,0.16293153965185841,0.21987856732424704,0.2802919329118158,0.3410082042770283,0.4017246961943611,0.46244110208251615,0.5229172352734723,0.5800177597880267,0.6389594694254519,0.699654470334176,0.7603709622515087,0.8210831077592782,0.8784428598567016,0.8828532977545416,0.8370408591563323,0.8025358691152655,0.7948686068377842,0.8014815322431617,0.8042843139348581,0.7782841370323108,0.7411195610980397,0.7001824963049248,0.6668371363377426,0.6718936137595903,0.6937131857756527,0.7052283167418665,0.7128434708364841,0.718020741027388,0.7172706784920082,0.7065466687277762,0.6887017333909684,0.6711629815244979,0.6811431246850019,0.6965751054372773,0.6870558279734775,0.6691262682846262,0.668189585959621,0.6956997355435222,0.7187968457902514,0.7293662277739401,0.6869114363718154,0.6272177428123586,0.5705971496358755,0.5108164676679601,0.45214919113327917,0.39482869948477145,0.3342918825784699,0.27394045521984567,0.21719032161905988,0.16231140868595734,0.10826361110107297,0.0571268303908421,0.06302574468578076,0.11578328230866508,0.17595092754232056,0.23666627195831097,0.2972264488700071,0.3546451625368779,0.413200719542601,0.47387956336884735,0.5345960552861801,0.5953125472035132,0.6559068916767181,0.7135390453961652,0.7718599584022934,0.832501685748831,0.8860165105544864,0.8755388219109983,0.8289279321901817,0.799045454064542,0.7873969377657688,0.78763484699014,0.7888217201275123,0.7608748593108721,0.7217929851246498,0.6815980418046599,0.6573890504263553,0.6764654939009229,0.7035535702778279,0.7173195916337447,0.724941172653448,0.7230039369493626,0.7205888370145077,0.720536155396654,0.7205209815050249,0.7178169323329313,0.7034935091856671,0.7026310074214854,0.722741201716903,0.7340066035669162,0.7105612489667466,0.656908248125929,0.5993813698841952,0.5413915088370753,0.48356150559752936,0.4231372432463672,0.3658965747027186,0.3071305755250033,0.2464427986049939,0.18617544882211834,0.12944091307673444,0.07011545267579822,0.02403371948555713,0.04903720067196346,0.1072062860120297,0.16395271460363303,0.22423100367266935,0.28494686508062894,0.34566273269489983,0.4059603993921002,0.4627235406005376,0.5221692433575726,0.5828766392204441,0.6435931311377769,0.7042534070436088,0.7624886642684434,0.8201616138316257,0.8722723869679181,0.8591940602651174,0.8144833435052024,0.7880611473865637,0.7829207534618225,0.7853648104258455,0.7940841985374671,0.7993350818976657,0.7980010502821206,0.8123725619586255,0.8538177754440957,0.9062268533263127,0.9589139960194577,0.9890931218680499,0.9542098635662222,0.8955429951861422,0.8382551564613359,0.779559176215191,0.7188736008534644,0.6581571089361318,0.5974427104181848,0.539325648088139,0.531297694366633,0.5825037194859344,0.6418843121393776,0.6981356859092285,0.7410109987997968,0.750127483261076,0.7396398554104209,0.7227501591336982,0.7284729940766206,0.739169502728857,0.7395547936723943,0.7372999127668527,0.7368666568629858,0.7403561925388946,0.7396143723452948,0.735349081218504,0.7252262811903254,0.7036655520096762,0.6783612480636094,0.6962901858465409,0.7375412234703334,0.7756735544611073,0.8044762638018867,0.8069146386316763,0.802857323190312,0.8129802105554291,0.8455976865521397,0.8953439189865153,0.948325183299572,0.9979632885585248,1.0,0.949456732106893,0.8902425676731702,0.8305782231918648,0.7739198128462748,0.7137517393510713,0.6530364409431031,0.5923199490257716,0.5316144332505051,0.47588776132492844,0.47897169921205457,0.5343238273349609,0.5938446783555267,0.6504842804739785,0.7078158703056185,0.7485123003497558,0.7454870770491391,0.7230328717130865,0.6979590089873962,0.6870727298669108,0.7025101766183464,0.7146518829697828,0.7090292760676136,0.6940218886251464,0.7085249219938359,0.725087940721713,0.7362246931048049,0.7360300410589138,0.7289880259012238,0.72197485886797,0.7085405204133355,0.6876747698460353,0.6998448185764097,0.7413867355352446,0.7799551935502698,0.8128096299641454,0.8258312507748764,0.8161964524868548,0.8101079440908578,0.830421423621654,0.8760514188732322,0.929204674053731,0.9771268718244632,0.9770005130997803,0.9234703450086317,0.865887426474165,0.8076006447663657,0.7469375215425262,0.6862327545454754,0.6269185837385802,0.5700789365298882,0.5097238295568847,0.4490077474027126,0.38869039720318205,0.35393911048660837,0.396582178378381,0.45711255361032227,0.5165895364612239,0.5733264913705256,0.6314438113212111,0.6804635177310203,0.728194356439823,0.743833785161824,0.736507427531647,0.7170305142844005,MI
0.8350103234201047,0.8554567487347489,0.8600557636291526,0.8723130251161622,0.8845351556662286,0.8935766269800971,0.889751128385224,0.8797826618442983,0.8998298996649823,0.9103735200101668,0.8798279640292421,0.8110836573408464,0.7417005176337101,0.6676915250988678,0.5936031328682965,0.5240995012690188,0.4513647001077708,0.37682809041941084,0.3031433675773008,0.23393720541135382,0.16050816138583518,0.08596611649660724,0.01492172407780551,0.0,0.06251881863909503,0.13195469556060596,0.20463212723828877,0.2791694274793944,0.3536422041189549,0.4248599734890955,0.49560567742253575,0.57003548087794,0.6444756165042473,0.7153460902985267,0.7858934661324486,0.8545339654402606,0.9159416441638637,0.9519707475208947,0.9510544694882932,0.9259528766862608,0.8825489797175055,0.8340691735925341,0.7842105505347476,0.7429702352211511,0.7405145268874174,0.7782774847686622,0.8286595025282755,0.8701468010859619,0.8836990845056374,0.8908615930449892,0.9021649063166344,0.9116649889776147,0.9047831925575047,0.8883028215946389,0.9023467565441072,0.92468877153931,0.9205046411012356,0.8689171662716242,0.7993536933566789,0.7274858027446507,0.653928952554512,0.5847313864525194,0.5112076392151748,0.4366680967517496,0.36370191840502003,0.2943321517946675,0.2203443890540709,0.14607595955439823,0.07647428839309689,0.024262232174091958,0.05578026816513615,0.12478460389236645,0.19626636739517705,0.27075574846659406,0.34451614489816,0.41374294239299264,0.4870760527427414,0.5616237855632544,0.636176756366011,0.7107297271687678,0.785159818832621,0.8557049390761575,0.9187157681068068,0.9597730737945565,0.9784132498625657,0.9640435738540547,0.9241920241672412,0.8785140402260483,0.8305865393879195,0.7911458617348135,0.7872262567052817,0.8256022819352729,0.8751263953548565,0.916997468248606,0.9338121030645374,0.9286706908305746,0.9222384251435152,0.9178381296808495,0.9116810123638666,0.8916127136972618,0.8821264418778185,0.8955601538337057,0.8904451391978607,0.8510871113497784,0.7814100895440799,0.7117546690946364,0.639323790650532,0.5647925748941294,0.4902396040913736,0.41568663328861627,0.3411338777136917,0.26694321073303023,0.19725255790324664,0.12481365928317667,0.05240813737038891,0.0033881600403509182,0.033772575060663224,0.10527533125993688,0.17457533060980118,0.24766277354090732,0.32220734802781764,0.39663027607925044,0.4673512204709928,0.5385971302582984,0.6129795716311175,0.6840132336283382,0.7539015226735042,0.8227333407543151,0.8812004246307465,0.8934251832791684,0.8749032024952244,0.834645384161512,0.7889744814439137,0.7410646170848669,0.6947310903869697,0.6710353023127826,0.6957545991968823,0.7412072106602177,0.7932309130260726,0.8408310955904208,0.8686990438804114,0.8817863746566983,0.8983165892802087,0.8919296263899741,0.8630342609247219,0.8178735275025453,0.7680544545804695,0.7198506132217817,0.7015974609701159,0.7384832595826105,0.7885705463112869,0.8346840268282119,0.8785958936973837,0.9118922835933914,0.9199443771950386,0.8984539850870459,0.8415713586560989,0.7734630467092851,0.703508439025641,0.632654642729225,0.5601484313631209,0.4905667621280923,0.4165111571435723,0.3559564997536329,0.38614881582609056,0.45961205024831325,0.5329190830097132,0.6021542160817122,0.6758737373723813,0.7474049295376439,0.8176516133953651,0.8861584128507749,0.9230656791645107,0.9267657127673974,0.9197058886323655,0.9108272387866179,0.9315039080989105,0.9444892268498102,0.9449277563044247,0.9507072880632115,0.9608080421827216,0.9505496827649149,0.9150236591348133,0.8660646304568511,0.8241694054057711,0.8274026717059089,0.8707004442679545,0.9177470852168264,0.9633254806981089,0.993125271398694,0.9999999999999998,0.9802596077690593,0.9405013700474243,0.8768195899203997,0.8075165957507673,0.7380068672818743,0.6656797847327334,0.5911768643847264,0.5189530474681587,0.46042021750787404,0.48479573654623825,0.5577852664439817,0.6309406876176109,0.7002240874369317,0.773769144972845,0.8435030535066215,0.9140251911588271,0.9562284089774737,0.954007630055304,0.9439766569238865,0.9183654392521465,0.9215899060472399,0.9338094474583889,0.9291766494125695,0.9183671633079711,0.9071503946929711,0.9001367452345759,0.8819217991883812,0.8386313055566181,0.7893879518142644,0.7656137765470878,0.7970754488632088,0.8475928252964737,0.8970868249776647,0.9405110742045697,0.966893177049952,0.9777060954127355,0.9601136252249907,0.9175921850491235,0.8531437748655253,0.7831985130474863,0.713998881370489,0.6409784081325567,0.5667368503063921,0.49687051086594897,0.4261824730644695,0.401881235545748,0.46502313332209305,0.5395076518919761,0.6119319577858247,0.6816460604485843,0.7558419997154016,0.8303781826804535,0.9025408948466092,0.9474583806180161,0.9392722989584825,0.9272936939859138,0.9079093170420514,0.9171941753333208,0.915347159059364,0.9095377282955799,0.8970667028315136,0.8864467311430728,0.8814104562259435,0.8720904347388581,MI
0.6913801960705277,0.6555317084831915,0.6069644563749463,0.549144950278019,0.5050633064557579,0.4706230966647078,0.426709995367873,0.3770530901568352,0.32678834869935236,0.3172682693789852,0.3790007622944418,0.45739827795522836,0.5377689568331363,0.6193962701823412,0.6879652718185278,0.7078332515571568,0.6959206882872118,0.7049593082777017,0.7179399828092632,0.719927721118826,0.6839212955989835,0.6590300237237012,0.6988301066294553,0.7443582874480028,0.7670588946835664,0.7452775335073181,0.6665876163493742,0.5715342388534375,0.4718401299680737,0.375151435859715,0.2715145332235953,0.1714414077569162,0.0776636328960647,0.041437378816326254,0.1092876194261998,0.18798162430614362,0.27138420347364023,0.35536176211799786,0.44980913828043034,0.5536141965725083,0.656007089550765,0.7525606446450559,0.8515081505596351,0.8727572229669864,0.797468431335314,0.7421015722138677,0.7004603793624873,0.6625679759688667,0.6133964306146922,0.5581311275539409,0.4878147770640684,0.41780030856950234,0.3543561696570843,0.3428821745692898,0.40065931256038745,0.4778947893662493,0.5643865566683381,0.6417985175907086,0.694852081540569,0.7029225738611984,0.7002732557316251,0.7058209956469659,0.7161122442614334,0.6993208205558301,0.6613481687140033,0.6612981997918774,0.7104778354587318,0.7518721065954614,0.7590127965486877,0.7075390360035798,0.6167792336351192,0.5183443388912987,0.42200954081306974,0.3188783465620191,0.21512676598739788,0.11843681027711228,0.024399862098107405,0.0,0.07806119146366752,0.18127673659755272,0.2797269297822138,0.3795822051105515,0.4840222714333582,0.5879895573781759,0.6851053309006638,0.786008875761457,0.8716722561237458,0.8500310110234293,0.7810575794052659,0.7269325289168755,0.6898613062176984,0.6529546116269223,0.6037006096223303,0.5452185952507957,0.4750822184741612,0.403046294537704,0.3421851419658528,0.32176299180195955,0.3757079510591492,0.4534899990981085,0.5374986953258392,0.6203149089680497,0.6865511316001596,0.7100894130535786,0.7051331302017099,0.7147474518656332,0.7270342755487329,0.7187274229775296,0.6780366399034214,0.6617350121859433,0.7062631914634971,0.7486727588699209,0.763885603124288,0.7353172705808462,0.6424330752368439,0.5512443086629786,0.46661717132979974,0.3721550558831468,0.27637690293070194,0.1767036696780302,0.08207987532008776,0.02631861863034768,0.08938925964409772,0.18482526659357768,0.28772436936309354,0.3901124297857841,0.48667665733456045,0.5902519963177832,0.6947833236167864,0.7992302162127489,0.8861375964337437,0.8561829915021655,0.7802047451678438,0.7252809775774627,0.6913772454087797,0.6528741652399499,0.6053705979159782,0.5820193030267031,0.6329543652988707,0.6797923237273102,0.7194709100064014,0.7537499851861518,0.8132937371768512,0.8953608824635853,0.978641130037426,0.9903660572045829,0.9079721936138128,0.8104815161503778,0.7104713860721659,0.6060430276812785,0.5044229004935541,0.4262135379678422,0.46343315566796695,0.5601285393688624,0.6565608596137913,0.7467542994887788,0.7991131533150377,0.7947501608081271,0.7688582270033524,0.7234801853934325,0.7068876821324519,0.7468196289599263,0.7621288745720298,0.7505787675292295,0.7360199401682599,0.7440536457176352,0.7434918969428421,0.7032771569432001,0.6307322767123824,0.5510563280782061,0.4700035313173454,0.39529771928738056,0.38456572746605633,0.4455898412246264,0.5161591641091094,0.5837989392007064,0.6399417252690269,0.6879291718747407,0.7230509788719197,0.763235802404916,0.8309590049061488,0.9158332020036475,0.9917347412447615,0.9747379060895238,0.8858212123636984,0.7870337848788727,0.6896177011086095,0.6031821022861992,0.5065321316506481,0.4165579470877967,0.4425054298892708,0.5371096918501483,0.6342471643624181,0.7291016808968933,0.7905858617497183,0.794984025490945,0.7696447451067348,0.7241306685401872,0.7058703189946876,0.7387294387114631,0.75003743837184,0.7378308772601501,0.731824716764335,0.7368460147006419,0.7164738093336678,0.6552399403366713,0.5755176464682112,0.49564341814279445,0.4181572925143793,0.3893145613666591,0.44572690067511367,0.5127067970774248,0.581543895951351,0.6411594427686598,0.6890962888461671,0.728075561946244,0.7675011206197455,0.8259177980041408,0.9081899895144889,0.9906981053893127,1.0000000000000002,0.9198560984087092,0.8194004857829009,0.7219973049374073,0.620970969577535,0.5175189294646683,0.46351478241416544,0.5322479238499236,0.6299101623926695,0.725759200498671,0.7971228422739514,0.8091856033708189,0.792681641154412,0.7568245244992204,0.7127867277782112,0.7182001404096836,0.7517457435009423,0.76021823658676,0.7448030533332397,0.7372234036942644,0.7443251512195084,0.7426772105663382,0.6927879808371871,0.6228051586385255,0.5423365042989348,0.4628100684216563,0.3853682231239819,0.3759765625410527,0.4393452872951531,0.5069477399650935,0.5629485338126254,0.6012902460348937,0.6539032223244587,0.6967090012664083,0.7286337048881792,MI
0.058897945571473986,0.12334334238271016,0.19811419745014158,0.27648413036527975,0.35592638774614815,0.426719646215869,0.48791985524764925,0.5701097977927231,0.6519758225849929,0.727823968477974,0.7981675692825777,0.8427082973452357,0.8435166722903517,0.8413840148065711,0.8413662110112775,0.8413299449872477,0.8360068259162617,0.8159301866069674,0.8330247216859864,0.8575550578681251,0.8547884535781963,0.7820355968085119,0.691162795679985,0.6037752155227897,0.5112381781914396,0.4197015250430186,0.3318483888771565,0.23890269762997007,0.1514053337263751,0.09174824958981165,0.13370129298765487,0.21133859353988982,0.30153901474115175,0.39424932034104476,0.481625673747028,0.5698138220175032,0.6062176776481402,0.5686338053827494,0.5113608479795076,0.44531244845545703,0.3699672383921696,0.2948280675753946,0.22041623037155367,0.1461358236674044,0.08020507623434758,0.06373078159361723,0.11901693943089042,0.19753549491909572,0.2768913498546496,0.3563195555668318,0.43678834209069517,0.5179399653554587,0.5960352782689148,0.6768736466187183,0.7551230379419888,0.8192771857596405,0.8474399679207602,0.839814249505043,0.8330595630336698,0.8324400328071407,0.8323616691688024,0.8256904758062605,0.8128696111771702,0.8338269204152601,0.8619595088913427,0.8834455859112275,0.8213767254583216,0.7323553139611355,0.6442874236179793,0.5542723888797713,0.47242451619586523,0.38325631771639734,0.2894464053124134,0.1984466881421415,0.114404619998287,0.08967777699061352,0.1607142041780002,0.2506324953258948,0.34384648955332053,0.43154951128553,0.5206689121020863,0.5889402751597116,0.5847009316711708,0.5333943669363991,0.46976054010858415,0.40039148214100895,0.32676136657839605,0.24763661811470083,0.1734822295589702,0.10513352329771053,0.06718587813643317,0.10759060672600562,0.17908543613512884,0.2568004585117162,0.3417750273351686,0.42288528956667826,0.5040316713903422,0.5828083004796222,0.6604728625556678,0.7369320127266669,0.8099099508343933,0.8509005503476538,0.8458383044909724,0.8436759952877265,0.85076569950615,0.8579277913155222,0.8596604728124025,0.8423541169191558,0.8487395997451438,0.8706359901462138,0.8993338862846155,0.8664132508678583,0.7812577736015404,0.6912274212287782,0.603545935896244,0.5102820157707663,0.41775235604657535,0.33034830228371204,0.23763536422695497,0.15139481769819907,0.08045097319305017,0.0718910912978512,0.15290463778831365,0.24055539394097447,0.33370333000545227,0.4227056912820898,0.5020573279754214,0.5774503689567686,0.5987864405569984,0.5592172000654229,0.500082387235519,0.4305883387581929,0.3584175262721233,0.2836952195685537,0.2063169708749406,0.12662160553169255,0.053289987613359235,0.0,0.016084268414712,0.05834982531998467,0.12749104448473336,0.2019542322314568,0.28232693242285534,0.36009939231877286,0.43286816711391085,0.49994323424978393,0.5634361497827337,0.6111583579201457,0.6429851900080782,0.6208073404664992,0.5485911010827508,0.545610247401031,0.6322737170332996,0.7199948728646809,0.8094773962308989,0.8970239634727254,0.9804663924930085,1.0,0.9395568855872177,0.8962830313835569,0.8749139968999652,0.8813430628782376,0.8839653224328147,0.877800502673297,0.8715950066131394,0.8668955371361914,0.8751074014081693,0.8705752062846733,0.8221767381702817,0.7527660477979735,0.67691521000569,0.5982822928627475,0.5187717170201606,0.4336338800019165,0.35133721806913487,0.27161468049332205,0.19418800725355134,0.12562957365150307,0.12382049299198428,0.18917261947219188,0.26282546553427644,0.33764648458551394,0.4129972633759301,0.48434831377210574,0.5475344903728777,0.599161306765614,0.6312282983028886,0.6228039768888353,0.5531191803996717,0.5107201136422593,0.5770203443164278,0.6689359736161488,0.7562598649036719,0.8453869611378121,0.9325366646402312,0.9787892672107562,0.9285351561763658,0.8789404240848772,0.8530038599055979,0.8473983811846378,0.8537063837071189,0.8541445223887946,0.8595132683758117,0.8634483291815532,0.8723111739523811,0.8692725947407157,0.8209212499657229,0.7478798021521985,0.6729544503557531,0.5940732858548566,0.5155350978679568,0.43461180641012465,0.3528382496070753,0.26859056949038085,0.19005777192560203,0.1196653314841939,0.10859901829982688,0.17679108872683735,0.25252131979851955,0.3263209145270244,0.3988260697333056,0.47159850332131137,0.5403246836950647,0.5944667489693874,0.6353714600163535,0.6410136628837518,0.5795367049960946,0.5111244180444535,0.5482574667035937,0.6401516282152236,0.7271790992288415,0.8047560972193454,0.8874467202590207,0.9659121960081892,0.9622598283909781,0.9023484682098625,0.8718095604188453,0.8539436918130466,0.8638599338668603,0.8714083343332831,0.8715813878222284,0.8671113532975313,0.864870638868415,0.8702660253641002,0.8502503087754044,0.7927582880921707,0.7173858259322586,0.6370059495114687,0.5619714756083213,0.4917032067920347,0.41185866694793416,0.33175625934795183,0.25246736803844005,0.17083421013708444,0.10191756503450156,MI
0.2137305257002946,0.16939928344999955,0.14306398690139566,0.17017142620428527,0.22505621187697344,0.2692261226912325,0.3429007739132386,0.40770236441418484,0.48311302604947803,0.5571339015348349,0.629433552979644,0.6962876973058849,0.7449601522222258,0.7302685415934207,0.6995694413795783,0.6884775256410731,0.676775630232545,0.6390554932766501,0.6076533313852279,0.6196891384753316,0.6483032005782114,0.6414476829940254,0.6874781245623749,0.7672220245898411,0.7863016329575425,0.7083315604655311,0.6239659239214714,0.5353243428156311,0.45099062790956435,0.3612139759346742,0.2767985018571213,0.20069387772688674,0.1463376090526396,0.11180760305401716,0.07037864102640401,0.03202238422540238,0.03836138112680576,0.09631261135369029,0.16412264564430723,0.23652914679141346,0.31033461461804945,0.38529937590480934,0.4639860119971351,0.5361969824785453,0.5975625371647164,0.6296516149241258,0.62513229488857,0.6362069216334487,0.6514074243669463,0.6468419708483173,0.6335126958809911,0.6592347888410297,0.7038885073326886,0.7141968361433539,0.7287754646596933,0.7999158411438532,0.7945269705477451,0.7255821351934131,0.6438494040469749,0.5592964724589857,0.47257102709670296,0.3885455561854554,0.31075594019753083,0.24535621808576313,0.18640269296113932,0.14625024987385826,0.10098435868503297,0.056910807730133905,0.04927916184963954,0.09582067097658387,0.16311196980801057,0.2393931234226938,0.3139381629536353,0.3884672238837281,0.46198510980170604,0.5328440653105502,0.5979980383944945,0.631287332382916,0.6067468529849398,0.5842170139628311,0.584194533330209,0.5907241295653181,0.563192383931411,0.5479864599549491,0.5840852920138251,0.6241770245477114,0.630844179538347,0.676262231305254,0.7554229407925275,0.7565287479943439,0.6723326538227847,0.5874139420546789,0.5000546529476291,0.41598579458082074,0.3316006113509815,0.24968183887523687,0.174912916834274,0.11984949958026747,0.08126160484900802,0.03773059060214479,0.0,0.01258612969335382,0.0700315073773563,0.13688552136661225,0.21044398705011114,0.285227255541288,0.36636148705818083,0.4427838415191012,0.5159118817814676,0.583114883635437,0.6431459330840508,0.6632359661587135,0.6677515435538299,0.6973136244868738,0.7336342304029992,0.7647773965007338,0.7646316972868499,0.7553986765014373,0.7899379266629794,0.8298874837309556,0.8471584817968876,0.8763658920348267,0.8555059962250713,0.8155002261186741,0.7907587960731062,0.8065097207705703,0.7915158245763212,0.7592899394635355,0.7244143052144538,0.6982378751100404,0.6955854019992853,0.6617058901680846,0.5997164289007453,0.5314274461962245,0.45254384137234704,0.3762413314213662,0.3018945065609768,0.22815721056357074,0.1539576381848089,0.08549744945910631,0.0384241080350427,0.05858588831355949,0.10368268451920826,0.14353723106947158,0.2016708018229083,0.2784458367768834,0.36132946537036204,0.4394228809826828,0.5115451919798928,0.5991494422276293,0.6836666966579634,0.7711227236334619,0.8549582449098299,0.9351131591689346,0.9536769102835578,0.8869035598486972,0.8141480300251291,0.7319762573686113,0.6752267492225614,0.6451132150299117,0.6000995449244444,0.5875652777361196,0.6206051862818434,0.6224399344457705,0.6148134212094398,0.6301039907816635,0.6594180485166088,0.6600873389916464,0.6133141967679248,0.5499699691616129,0.47942077728338295,0.40562137971742485,0.3263112458540389,0.25112573196156185,0.18022902173793165,0.11477057933329782,0.08571238589265007,0.12136296370715516,0.16755397467906374,0.2072540733999375,0.26680260513444143,0.3507089972307942,0.4354440723684201,0.5194594681411107,0.6049182871777443,0.6909183463027244,0.7751382996559655,0.8599224363947495,0.9361521243263746,0.9477854304190634,0.8844466596835263,0.8054389869698972,0.7568342982119298,0.726146606443081,0.6838857103073941,0.6743614018067123,0.6947472381473265,0.68678290941331,0.6648934672281634,0.6575691683752753,0.6642309599273348,0.6302601215543586,0.5691801006072765,0.49824899436078085,0.42652998990073754,0.3499571190594739,0.27592573005142107,0.20245062683637816,0.12804272254180882,0.07090501969000407,0.07789779012102138,0.1240948067439207,0.1607811273567714,0.20733198262678476,0.2809147796576057,0.3616538561972651,0.44484617615059285,0.5318677885949465,0.6174166428252943,0.704653238792093,0.7907122022268156,0.8816806161438571,0.9645896405771424,1.0000000000000002,0.9378094347900754,0.8648773205907956,0.7873997932478385,0.7141706720596266,0.6848234074501571,0.651583806227954,0.6531221394546172,0.6899897195107387,0.7095836183546325,0.7163174605537812,0.7422454119597426,0.7752155076317757,0.7764402632693506,0.7329076321379213,0.6688415931187246,0.598546070497542,0.5225130181888378,0.4520762559292171,0.3902991165478491,0.35477469230362746,0.32864751388126656,0.2862480934265228,0.22323381356185767,0.17748394044712912,0.19803859606318652,0.24904312421935426,0.31572180581325116,0.3674009057966938,0.3980945003170815,0.3575162188668939,0.2959912816120953,MI
0.5456766698572544,0.5731753742905408,0.5968232485610876,0.6524489098046935,0.7276427265236878,0.7995747112220457,0.8121727822230174,0.7463339966098654,0.6669766068519116,0.5828635238666611,0.501707193835236,0.4477376131583406,0.4269635468212105,0.39307649377416887,0.35201301543912233,0.2888753064699028,0.2142391637058999,0.13836729454176844,0.0649785117164523,0.04029719151272804,0.10242994447133391,0.180661722868103,0.2596423864329821,0.3338651823434131,0.3690825852793276,0.37262636361011015,0.39007067911983095,0.4307904829194955,0.49122553143137604,0.5549038455006567,0.6196413094511468,0.6776296755463691,0.6753384453221631,0.6396977374426971,0.6192563122188166,0.6109065317048676,0.6102984043217317,0.602151290755111,0.5930764730511389,0.6046954313683177,0.6304871663046869,0.6592680137256695,0.7222689939998179,0.7980404039377467,0.8723062705886808,0.8953490223315779,0.8287760776464006,0.7474070689865853,0.6681815017423893,0.5847995915611679,0.5058459353118012,0.42319144200908543,0.33932997164451106,0.26129318454817396,0.18751969082640618,0.1213419426275415,0.07444808615717424,0.11423190486009538,0.19008923466104377,0.2719978773289774,0.34590190136466514,0.36699604970404054,0.34972228091696933,0.349212530890908,0.3844593290942693,0.44524870659414706,0.5102406590033925,0.5756632027709221,0.6383309701908573,0.6609326718357738,0.6280287339860964,0.6057424398797178,0.602794991630458,0.6000710609203319,0.5800736519271295,0.5492093867659391,0.538009581639944,0.554999501655443,0.5773327302594349,0.6370492390711779,0.7118913248014467,0.7813374154959793,0.7744069330741881,0.6983407595336613,0.6190162220912112,0.5356499837222761,0.4567813466293007,0.37438064240940006,0.2953198335549647,0.21807848969137245,0.1426677810661643,0.06129757491939736,0.0,0.024842731690146835,0.09857176445783367,0.17625054804364038,0.2531413353338836,0.312307981723424,0.31489262015608177,0.3090883612728861,0.33677384568455637,0.3887176723829262,0.45413218598269234,0.5152769356125964,0.5764600405752647,0.6331140702883811,0.6313462959238505,0.5985354244439425,0.5935855840560671,0.6136476195183715,0.6304430723345504,0.629067020940854,0.6145545439814437,0.6186572559536905,0.6409312607446587,0.662053198334849,0.7211100708780218,0.7995591500818369,0.8743450702531803,0.897292802799672,0.8270352394262468,0.7483053038512157,0.6657920673254001,0.5867340122123301,0.5045746004945808,0.4250563161889398,0.3448683657571341,0.267867734810583,0.21368191131506953,0.2548331632930001,0.33374387053301335,0.4172300348502198,0.4960876267463683,0.5787488945568082,0.6588589109791851,0.7399560691844709,0.8218396341370922,0.9009142389399589,0.9767610160137348,1.0,0.9389295761702672,0.8611923689791949,0.7852401073943198,0.7120264467477164,0.6747686579311059,0.6562635014253466,0.6428159214680671,0.649845633046847,0.659181600739096,0.6497462792437532,0.6283260302798055,0.6203530939894868,0.6492936656493642,0.6756281708561165,0.6452341109637298,0.5823651308875932,0.5121882846307719,0.44568729304804955,0.38612323382437963,0.3469947016055501,0.3446369375208391,0.36466448270397755,0.3421248805054755,0.27360370857029936,0.19710826188827435,0.15000850542917943,0.1989106693289049,0.27447335994980226,0.35745618537115775,0.4418213354205687,0.5244826257111905,0.6033921358647769,0.6845684820865883,0.7635473004295383,0.8394939219613557,0.8715849350112157,0.8177597232798435,0.7385961330676898,0.6622848150546798,0.6033035330817071,0.5805828051003117,0.5693453751075821,0.5833106662435623,0.6130626796246965,0.6319300512720833,0.6341452402323757,0.6311768711459804,0.6491841003742953,0.6858303156649457,0.6890594149763778,0.6392165284450679,0.5753013479026317,0.5080125358217309,0.44066989132516876,0.38951205828730795,0.37989787823156007,0.39924010320045555,0.4020669199066391,0.3407769247534431,0.2646982919501166,0.2118009287791014,0.25654176783768246,0.3320927505243185,0.4106609972592292,0.48364918762033304,0.5558507543505742,0.6246105371033319,0.7060874765604785,0.785502598818143,0.8674295102102765,0.9495149729003602,0.9969689239823016,0.963252282253352,0.8930684011128738,0.8172280683323792,0.7401216697491289,0.6776381910095477,0.6553748882749875,0.6308221027691552,0.6227895107328665,0.6353897909761306,0.6376159756098994,0.6394714006356725,0.6492390765254274,0.6714769263485358,0.7109260056959505,0.7105798746956433,0.6594402262540358,0.5950548066332617,0.5307713258348854,0.4653508492896863,0.41941718486836566,0.40270235273383004,0.4068102425720481,0.38542697146922444,0.3144914625133506,0.23649527171843432,0.16284275865320108,0.15811479419519225,0.2285599338355182,0.3063555316560793,0.38487222893324824,0.45647505064641436,0.5307050042857724,0.6112243963605544,0.6915105733283178,0.7717640752701302,0.8513581500864136,0.9070012801342731,0.8763446086676214,0.8050065423315622,0.7297807859002432,0.6580857538282436,0.6166721111795304,0.5857692510437182,MI
0.056717959103299576,0.09177111703952079,0.06392181134431674,0.06475234663283413,0.12612070792815855,0.1481474752153844,0.10209073244842326,0.06752658454400318,0.12210665758401817,0.1922601695941204,0.2027769530852137,0.22626828047522873,0.29759756918822067,0.35695644646004765,0.3617385688048864,0.3394016176403578,0.3380616094033697,0.37447826291394426,0.3840133323736037,0.43882203373838347,0.52380360705449,0.614110215445304,0.708485297671769,0.777604307173219,0.715870600509585,0.6119535390986617,0.5136545965151789,0.4128339698648824,0.31605650790951967,0.22556538474093335,0.15384304562592344,0.10472655979500356,0.07765907638277247,0.062003525434080276,0.10143055102054976,0.170651179782912,0.24666910136747267,0.32050653071931023,0.35028346213886596,0.3381709365365575,0.31771810504945663,0.3391642183085919,0.35163063628166036,0.3955777433661567,0.4801610832200671,0.5673001974323624,0.6661181178200071,0.7621552989797857,0.7526382279494195,0.6595271484388778,0.5558735428606181,0.4567439041730603,0.35889539925510583,0.26775813128849335,0.18371207858137817,0.1260901082761825,0.09748114703166899,0.07037113527679995,0.07743655580147757,0.13489341874511762,0.2124400101024877,0.2895524465187993,0.3429695097136092,0.3521679598869911,0.3371090569359112,0.348942103566688,0.3895663238760523,0.4175794011818439,0.4886599667265381,0.5750486250346967,0.6739777538321321,0.7696457649204027,0.8182441303808425,0.7405943132199333,0.6421494557924823,0.5425969393518222,0.4460074860255696,0.3516608948631412,0.2732104738989789,0.23439458088940923,0.22386471992664658,0.20528845560225517,0.23694450882644902,0.3038595619171378,0.37700921253145814,0.41711997326290184,0.3931122081390883,0.35726101020268275,0.33106900018602237,0.3424310325758504,0.3484760659252746,0.40154699405344707,0.4935568247318689,0.5835366470611767,0.6718038296268443,0.6691497365972836,0.575426891538579,0.47589187085515783,0.37684016899037953,0.278203902408829,0.18832362398347446,0.1161922618762048,0.07250535232108257,0.03605830983824965,0.0,0.012239894239143512,0.07636978185946841,0.14855908656987604,0.20305553895115613,0.19543613130732207,0.17896721131124926,0.17762164335795516,0.21405200170066685,0.2656913146718063,0.30113626307734864,0.37440821289707626,0.4575287666355803,0.5515027107345767,0.6452509987486255,0.6638789663197433,0.5799842079854254,0.48262612828511453,0.38069052425794747,0.29076428762148354,0.2945235743037149,0.38753045227708904,0.4881416681747637,0.5931505977821838,0.6964315552486244,0.7895150523424732,0.8288246199421216,0.7607752667772476,0.6651075769688526,0.5684849864348276,0.47363814497620593,0.38515402785220476,0.3260367557620816,0.2872013517101135,0.2380744557373362,0.22533285971072137,0.23964095032048038,0.2538884044737244,0.218641023389764,0.14959902970637162,0.0758786225272643,0.04193441334705095,0.07494401752099278,0.11510163532806428,0.1596504990126406,0.23628743995441326,0.3371788218529088,0.43629055896639235,0.5366600724156214,0.634385651407404,0.7337850376233015,0.8273658611418959,0.8702853022880976,0.8040905872999424,0.7063084027937809,0.6036324539162474,0.5120592503855235,0.427484758333166,0.3941207324071996,0.3888766949850395,0.39106072098675737,0.42481208725065134,0.45984389452075036,0.4674750439395403,0.41403185095783557,0.3408271958045799,0.275900900197974,0.25866225051145864,0.2804825770713977,0.29791218820121035,0.3627436850007275,0.4559510086526788,0.5524620543923371,0.6534362721630798,0.7426086345472207,0.8246069159790883,0.9153074456440904,1.0,0.9907412015876518,0.9052083486563962,0.8166416774592293,0.7190407401868164,0.6246303649650626,0.5362616525199131,0.4616041355571552,0.42676332951252705,0.38720764178332945,0.38287687264093395,0.39588301075182186,0.3833962683637442,0.33231999643271837,0.25616086973242425,0.1793796577675293,0.12274626194720728,0.1285987935431785,0.1554825677533287,0.1924250503643954,0.270322623293239,0.3611907575729558,0.460434314351436,0.5593175245183726,0.6606715676967703,0.7613185593234277,0.8588175518943046,0.9282370937104223,0.8853627100764538,0.7900076691081539,0.6922440815942155,0.5962169952927536,0.5063367981390097,0.4249107587951755,0.394016795472947,0.37568390560215836,0.3686229100132752,0.38988550154868773,0.39583062856632356,0.36773020573221005,0.3000962342662099,0.22445361413033882,0.15222126563096605,0.11052230887748471,0.13026674545366723,0.1598505053637218,0.2203377043179473,0.3043902773094753,0.38973263396499913,0.4843296067691585,0.5837672185947214,0.6833555637801374,0.7816103672522012,0.8810305445789877,0.9612077680139524,0.9371513285082038,0.845634321858602,0.7461540152134987,0.6504051011745686,0.5580768118506987,0.47315357680608505,0.42923570097305874,0.40572602607834996,0.3853233583395277,0.4060662879291017,0.41262040899773744,0.37940190956228137,0.31331785198465645,0.24150519510713764,0.1766497797659008,0.15606674852341196,0.17875768761369915,0.20955263009198855,0.18182858361027843,MI
0.8513132171157407,0.830758015578791,0.8208106385191813,0.8141256632595284,0.8277677703321538,0.8404842758542141,0.8400736800609603,0.852684039210184,0.8666616517250034,0.8685668667901063,0.8679983615808591,0.8547826087742214,0.8531124299159827,0.8773521238764768,0.9054563303981045,0.932202600077463,0.9104419692462744,0.8491923167798694,0.8207204827544992,0.8249535718739947,0.7511251888039494,0.6687037244178335,0.5899944936117596,0.5113310207838737,0.43052445936687,0.3532379432754027,0.2772013765861858,0.21646219118312682,0.1720241868934944,0.1488881636500592,0.11915552384844963,0.08048017449810874,0.04489243005705723,0.013056818795381009,0.010957742299316786,0.058247181975016105,0.11620458382181287,0.17602488154206064,0.24480180923593542,0.3176974261248642,0.3894629406007144,0.46907977501982856,0.5423368539769049,0.6143925737270237,0.6856517387053929,0.7561785864169788,0.8195244388315608,0.871639875221728,0.875506217639098,0.8524531715220229,0.8372306650826795,0.8212910708277268,0.8117486078891347,0.8142191390769313,0.8259865980937176,0.8337880747972699,0.8444709726938964,0.8475840830009762,0.8379336346625728,0.8415670357703684,0.8395579512238185,0.8480074125491837,0.8235915999402619,0.8255233203694199,0.8528738577323836,0.8781009696505477,0.9008216337148109,0.8727591721277581,0.8143538547591262,0.7848964290156544,0.7641837319859976,0.6900323013275464,0.6127331316664775,0.5317518660450797,0.45327458634524587,0.3714575862447853,0.29560937534581133,0.22362539272294857,0.17232146299572348,0.15983827238686676,0.13162005531195864,0.09795721603190688,0.060558826302309354,0.02480334820149288,0.0,0.01723356437123713,0.05962724305687428,0.11969578240313994,0.1949858475675985,0.26532939647239284,0.33467769450270657,0.4062679381297567,0.47996597165221533,0.5521916463193883,0.6242415527403056,0.6950968041095349,0.7707706650364634,0.8372204936149217,0.8728059687844891,0.871513296000241,0.8544693342826508,0.8319604293635097,0.8092209210775505,0.8164228461569296,0.8352684573732683,0.8609124744122876,0.8777385892384166,0.8951041783323741,0.8971916059096601,0.9063031969001409,0.8983870227621873,0.8939844766990004,0.9131031719009757,0.9291090114478306,0.9550143471164718,0.9442053368256498,0.8838365140139994,0.83612884717797,0.8294043607930588,0.7666390242120338,0.6857372295996387,0.608149108625637,0.5309556945850411,0.45268212529229146,0.37556652304126725,0.3055373224659965,0.28767190354102823,0.3523033452955564,0.43428982032195185,0.511783265328245,0.5908862595569373,0.6702525302020046,0.7476450051947756,0.826744479245638,0.9023376018940734,0.9631232075644496,0.9725728240637466,1.0,0.9988110437945186,0.9790198927797555,0.9558289258365305,0.9387911539255076,0.9536496849699287,0.9610299315760509,0.9500407863093012,0.9381808093638484,0.9237028056140466,0.9006374423219263,0.8755323171349043,0.8663151117473786,0.8773507103340075,0.8985210531438734,0.9170001794364513,0.9175212039637719,0.8859526135062894,0.8231684894191145,0.7570649765220776,0.6852447577498639,0.6135086220638895,0.5423884241136294,0.4683672553851097,0.3949785579219276,0.3202663362761722,0.24591388211004972,0.17527037533525203,0.11134917114083498,0.06096557666911662,0.04821913788009602,0.07753746902332215,0.11496983501454938,0.15157509505010225,0.18079010352726255,0.20768101430685038,0.24648851698367436,0.3168370636570843,0.4005281742428701,0.4866703075616443,0.5658076298391492,0.6456164155441224,0.7224507265309601,0.7993047690195842,0.8786033497340013,0.939670090638169,0.9273601401743838,0.9323206578599579,0.9543183536575022,0.9410877547476386,0.9138875488356644,0.8845878553910618,0.8736722990710355,0.8981505187509335,0.893627912827117,0.8890728275969342,0.8864573951125556,0.8906674135700303,0.8858539214559817,0.8847312054101666,0.8764863795299176,0.8638925401084236,0.8574274459632458,0.8632188057547752,0.8897332060874668,0.9049547015770933,0.9238848759944505,0.9171140453305262,0.871249992132781,0.8144347923131301,0.7458528262945996,0.6731145904129263,0.5963604039143462,0.5217966095328099,0.4492755290504107,0.3777791695411292,0.30706210039608894,0.23544941116764706,0.1704588430410503,0.10773178164728181,0.05652449299651652,0.06334250860716262,0.09916726256000041,0.1330466294321082,0.17178114232786168,0.19862341780676562,0.22933887038511225,0.2714144602312605,0.34265494626888704,0.42239488904372635,0.5013777493533644,0.5811801638885621,0.6596549441936508,0.7370044529858153,0.8143980453180015,0.8954509712692773,0.9674848835206555,0.9801318728485007,0.9343828943457755,0.9608444758338792,0.9776976424250887,0.9741695034960944,0.9447232165202935,0.909773397948483,0.8963018300553531,0.9066855025676839,0.9087569945871645,0.906179026660944,0.9140508060891772,0.9024560486919992,0.8903179259730583,0.9003879803455792,0.8811227146552949,0.86809130422033,0.8557937811908984,0.8608227588607198,0.8809576270215707,0.903727534337075,MI
0.0,0.050263830238642004,0.1148125310592909,0.1772553729454629,0.24222353499930582,0.3056785596336602,0.3086743730936201,0.2841893945883789,0.3114408689361885,0.36769517269951124,0.42878116772718866,0.49408995566917047,0.5618902568811943,0.6198069678918905,0.6659806522429299,0.7004073465630707,0.711109995996851,0.7113543175410306,0.7085091096558813,0.6931241759113302,0.6805469934452035,0.6851949183197537,0.6880029110354857,0.6825303592912555,0.6671210698878971,0.65469042782792,0.6562525629035705,0.6711226359370503,0.6709072831267271,0.6701518761418719,0.6472019602359804,0.6338193494345912,0.6412246940835065,0.6750667786467599,0.688563335034948,0.6964514997016027,0.6745670407388384,0.6181324825419274,0.58263620508419,0.6222784024254362,0.6910196156118189,0.7659247235622033,0.7800808068408653,0.710561229343136,0.6414733811351212,0.5906724785782778,0.5620422109286496,0.5316804224432887,0.5148484125818611,0.4744686121708048,0.4277896481644161,0.3833595407887187,0.3349226459401349,0.28339164689153984,0.2270296070381843,0.1694868762255326,0.11597476619880487,0.06534676834843234,0.03140989486852552,0.04626660504552693,0.09779086294348249,0.15707185016423586,0.22216718990725925,0.2868851253084299,0.351629332333246,0.4213557536806789,0.48693089362769504,0.5473064912772516,0.6028800949981186,0.6496336212002614,0.6744052493638668,0.670274891306095,0.6575830857333391,0.6502992048271032,0.6410622235381751,0.6276738204003685,0.6199257056406036,0.6295907045159197,0.6419777430995297,0.6482588794292092,0.6464792019132699,0.6530239740488941,0.6599780903724681,0.6825623419369911,0.682673112737612,0.6667514520419568,0.6781453381512068,0.7170114713818976,0.7326330456102921,0.7241033177923175,0.6956548468141508,0.6336044127597826,0.5939017983346462,0.6308874246340836,0.7016642986154673,0.748380692222901,0.7019236155665471,0.6314903908210536,0.583528003821868,0.5628229571434711,0.5301667807033785,0.4995183499118414,0.45816774661889004,0.4119684106910162,0.36697564891321566,0.3188502606155732,0.2658050709942481,0.21180197127941813,0.15961966401820749,0.10739537528876375,0.05282804114430606,0.015033960200799612,0.019947125776835994,0.07306311865227633,0.1363998288409849,0.19826084039584657,0.2628101443588209,0.32795851341187476,0.3945594698661754,0.4569036803070403,0.5254969591641889,0.586060937004298,0.6398392661828094,0.6774753360089207,0.6878218117445056,0.6920972519040285,0.7045085406501992,0.7328221932306971,0.7396743059962125,0.7280580949467279,0.725160758416213,0.7138101627576423,0.6874270666460041,0.6370999707320961,0.5753764021014083,0.5137371761748828,0.45220625913003043,0.3884304811709791,0.32195206910700236,0.2570472652100113,0.191251270407236,0.12391103007575976,0.06730324282758815,0.0683351010741482,0.11489744468547847,0.172171492856388,0.2252383068042294,0.27916769553286636,0.3299900647073559,0.38004535658787697,0.4257386885830172,0.46920379504766263,0.51303582148991,0.5489774333177087,0.5792502145049376,0.6046069364345725,0.6392463529019505,0.7049462412582439,0.776008959471447,0.853258502602839,0.9329560338022327,0.9921965248555356,0.978077927728277,0.9106359942068625,0.8333347094421597,0.761478549062234,0.7129214897989156,0.7468608961558714,0.7593640351156872,0.7701905617995866,0.7626586621920628,0.74012441835519,0.7097412373781917,0.7128900729324468,0.714691216163392,0.7014368894696268,0.6884569386516259,0.6813766305000573,0.6805035474630299,0.6723252655844543,0.6648909787932988,0.6547726997370156,0.6642496891520278,0.6731162597395197,0.6843588406944856,0.6948829784215691,0.710071007206784,0.7142019500387409,0.6991907228548853,0.6609576680220393,0.6105922914056809,0.5493645424061244,0.48334418970766513,0.42006680473821634,0.3568095305105048,0.29201203566509526,0.22716574442379822,0.16272102809527045,0.10084135790593995,0.06966833214223733,0.10472987642382847,0.15436008895844422,0.21480186661388068,0.2731499704777962,0.3253686161791143,0.37418632282425746,0.4223428835117946,0.4686108696558251,0.5130543525128444,0.5506245354316051,0.5694947190783628,0.5982193666155806,0.6315483200697267,0.6922804494547863,0.763296506968836,0.8350486864127331,0.9087642455148595,0.9781114712816572,1.0000000000000002,0.9441377736504448,0.8723538445795531,0.794726892401094,0.7246042257593277,0.7185174628164164,0.7438374006697368,0.7300325790308178,0.7207271986505901,0.7050076940214438,0.6723386381473455,0.6764356979717958,0.7026116911828748,0.7119114052983442,0.7046488004182219,0.6972617350801718,0.6843458078729225,0.6928156124167428,0.7108832681333832,0.7159624216857161,0.7160201646302882,0.716270487390646,0.7261438506789168,0.7468291084674556,0.7491413336560468,0.7465826564483733,0.7456418255553621,0.7407367306641583,0.7131876440040836,0.6704260226745016,0.6126254665186179,0.5513921729027913,0.49566506757110074,0.48195720541310805,0.4396699179600432,0.37739628578911133,0.3245685871253092,MI
0.6952148321549629,0.7182619341198055,0.7262674838000533,0.7026799410731022,0.6593160720477034,0.6409779998152114,0.6209319537808067,0.5928234591561963,0.551119221310105,0.4939599651158653,0.4370925420223733,0.3767268199348632,0.3171950474319058,0.2604727099188034,0.200226656427079,0.1404511832810762,0.0838269895718885,0.025172091616859515,0.0,0.04344462498077392,0.10377961970202021,0.16293153965185841,0.21987856732424704,0.2802919329118158,0.3410082042770283,0.4017246961943611,0.46244110208251615,0.5229172352734723,0.5800177597880267,0.6389594694254519,0.699654470334176,0.7603709622515087,0.8210831077592782,0.8784428598567016,0.8828532977545416,0.8370408591563323,0.8025358691152655,0.7948686068377842,0.8014815322431617,0.8042843139348581,0.7782841370323108,0.7411195610980397,0.7001824963049248,0.6668371363377426,0.6718936137595903,0.6937131857756527,0.7052283167418665,0.7128434708364841,0.718020741027388,0.7172706784920082,0.7065466687277762,0.6887017333909684,0.6711629815244979,0.6811431246850019,0.6965751054372773,0.6870558279734775,0.6691262682846262,0.668189585959621,0.6956997355435222,0.7187968457902514,0.7293662277739401,0.6869114363718154,0.6272177428123586,0.5705971496358755,0.5108164676679601,0.45214919113327917,0.39482869948477145,0.3342918825784699,0.27394045521984567,0.21719032161905988,0.16231140868595734,0.10826361110107297,0.0571268303908421,0.06302574468578076,0.11578328230866508,0.17595092754232056,0.23666627195831097,0.2972264488700071,0.3546451625368779,0.413200719542601,0.47387956336884735,0.5345960552861801,0.5953125472035132,0.6559068916767181,0.7135390453961652,0.7718599584022934,0.832501685748831,0.8860165105544864,0.8755388219109983,0.8289279321901817,0.799045454064542,0.7873969377657688,0.78763484699014,0.7888217201275123,0.7608748593108721,0.7217929851246498,0.6815980418046599,0.6573890504263553,0.6764654939009229,0.7035535702778279,0.7173195916337447,0.724941172653448,0.7230039369493626,0.7205888370145077,0.720536155396654,0.7205209815050249,0.7178169323329313,0.7034935091856671,0.7026310074214854,0.722741201716903,0.7340066035669162,0.7105612489667466,0.656908248125929,0.5993813698841952,0.5413915088370753,0.48356150559752936,0.4231372432463672,0.3658965747027186,0.3071305755250033,0.2464427986049939,0.18617544882211834,0.12944091307673444,0.07011545267579822,0.02403371948555713,0.04903720067196346,0.1072062860120297,0.16395271460363303,0.22423100367266935,0.28494686508062894,0.34566273269489983,0.4059603993921002,0.4627235406005376,0.5221692433575726,0.5828766392204441,0.6435931311377769,0.7042534070436088,0.7624886642684434,0.8201616138316257,0.8722723869679181,0.8591940602651174,0.8144833435052024,0.7880611473865637,0.7829207534618225,0.7853648104258455,0.7940841985374671,0.7993350818976657,0.7980010502821206,0.8123725619586255,0.8538177754440957,0.9062268533263127,0.9589139960194577,0.9890931218680499,0.9542098635662222,0.8955429951861422,0.8382551564613359,0.779559176215191,0.7188736008534644,0.6581571089361318,0.5974427104181848,0.539325648088139,0.531297694366633,0.5825037194859344,0.6418843121393776,0.6981356859092285,0.7410109987997968,0.750127483261076,0.7396398554104209,0.7227501591336982,0.7284729940766206,0.739169502728857,0.7395547936723943,0.7372999127668527,0.7368666568629858,0.7403561925388946,0.7396143723452948,0.735349081218504,0.7252262811903254,0.7036655520096762,0.6783612480636094,0.6962901858465409,0.7375412234703334,0.7756735544611073,0.8044762638018867,0.8069146386316763,0.802857323190312,0.8129802105554291,0.8455976865521397,0.8953439189865153,0.948325183299572,0.9979632885585248,1.0,0.949456732106893,0.8902425676731702,0.8305782231918648,0.7739198128462748,0.7137517393510713,0.6530364409431031,0.5923199490257716,0.5316144332505051,0.47588776132492844,0.47897169921205457,0.5343238273349609,0.5938446783555267,0.6504842804739785,0.7078158703056185,0.7485123003497558,0.7454870770491391,0.7230328717130865,0.6979590089873962,0.6870727298669108,0.7025101766183464,0.7146518829697828,0.7090292760676136,0.6940218886251464,0.7085249219938359,0.725087940721713,0.7362246931048049,0.7360300410589138,0.7289880259012238,0.72197485886797,0.7085405204133355,0.6876747698460353,0.6998448185764097,0.7413867355352446,0.7799551935502698,0.8128096299641454,0.8258312507748764,0.8161964524868548,0.8101079440908578,0.830421423621654,0.8760514188732322,0.929204674053731,0.9771268718244632,0.9770005130997803,0.9234703450086317,0.865887426474165,0.8076006447663657,0.7469375215425262,0.6862327545454754,0.6269185837385802,0.5700789365298882,0.5097238295568847,0.4490077474027126,0.38869039720318205,0.35393911048660837,0.396582178378381,0.45711255361032227,0.5165895364612239,0.5733264913705256,0.6314438113212111,0.6804635177310203,0.728194356439823,0.743833785161824,0.736507427531647,0.7170305142844005,MI
0.45128046578251635,0.5079544794413099,0.5591367844825902,0.5605875684308436,0.5160953122671966,0.4636497837105137,0.418625138966655,0.41041431028454267,0.45886530528546465,0.5218704659217343,0.5830959085985262,0.6538844830445788,0.719060400124775,0.7660238764027406,0.7664585408438466,0.748431761995939,0.7506393367625345,0.7754079604419443,0.7989442566131281,0.7903427319739124,0.7784761665560763,0.8088386855044029,0.8309721707716039,0.7817374319066547,0.6970688511189042,0.6072442970062985,0.5185976679496985,0.43137014722871025,0.3445977707981084,0.25542948864464765,0.16762324463028688,0.08582617786920022,0.07271141384068658,0.14966170275250978,0.23613604370027674,0.3281787865682252,0.42064192953285506,0.5131054403635614,0.6055689511942667,0.6979353346069298,0.7828763737692938,0.7943979745806645,0.722984368116946,0.6535091830260741,0.5983899566174354,0.5552929149290148,0.506461432325826,0.4578199292737243,0.41782276944320096,0.4293001146042438,0.48853819970190326,0.5581557860379015,0.6237656875979251,0.6832461876530113,0.7445993447300753,0.7656903938761005,0.7443116066037191,0.7308143299118696,0.7404244140736923,0.762154062246231,0.7666754683189346,0.7501823679840564,0.7698484339192643,0.7988464601419377,0.758746683265579,0.6755996710844151,0.5857192853996186,0.4986967565821895,0.4095218047394701,0.3201774186117744,0.23338737675514787,0.14809837668651993,0.07224962149100966,0.0,0.022245605720773276,0.10507262623521951,0.19698039350264596,0.2894384557895858,0.380602098908578,0.4665145046867357,0.55784135322232,0.6502902190755583,0.7405605490310051,0.7959767121656619,0.7440486760393633,0.6654902593274775,0.5954388927798361,0.5411978115039721,0.49827786057704915,0.44904213879039323,0.4004898749292566,0.3674826146354343,0.3981573057229738,0.4621217057420476,0.5310323267563551,0.6006201719836154,0.6715069485590487,0.7274698622681942,0.7407053935989939,0.7303715124169331,0.7350686923948769,0.71717333617807,0.7069465357080159,0.7135114814830946,0.7124094581004675,0.7400016737699789,0.7809419240842496,0.7829715919407613,0.7122843754122542,0.6221180496603101,0.5356035087296577,0.44586661190030086,0.35789044911664003,0.2698906553435786,0.1823860950596411,0.09494537735504793,0.030373823232457964,0.06799219086845787,0.158247200040878,0.25064743390956623,0.3396263713571962,0.42687809153638157,0.5191027474245152,0.6115316490082167,0.7006569070870162,0.7539844889909669,0.7030523717207452,0.6342413955104046,0.5804233235876298,0.5385137815147191,0.49123283637216797,0.4426133347756941,0.4041974576733435,0.4253917021315071,0.47657515828726316,0.4515918295723683,0.4396545181661705,0.48748523813113,0.5343703833750347,0.5781035821518928,0.6225813633550191,0.6889837390330028,0.7667019014700301,0.8490352376666782,0.9315091698953354,0.9835908629094138,0.9325746020904998,0.8414633138548898,0.753052982278113,0.6652788802333932,0.5730012115667263,0.4864943218070775,0.47700637145720093,0.5600427145823569,0.6460852372302636,0.734844705481288,0.8145683149559128,0.8408910244730242,0.8088705528072503,0.7684888170545298,0.7371001043335498,0.738544358590996,0.7347309187040892,0.7585705496162104,0.7709605113034957,0.7544555383063488,0.7617593374915018,0.7639664543775516,0.7280329429527116,0.6646149448342588,0.5963482499073943,0.5269487636861306,0.45603416793506424,0.4053229581451997,0.429734892725398,0.47851127331765275,0.5249082471931025,0.568859294151164,0.6263066333433743,0.7035555912917183,0.7850025204725647,0.8682842056638441,0.9527794173646428,0.9999999999999999,0.9480202171319244,0.8639283540639101,0.77843926010855,0.6871978859077946,0.5949824999963854,0.5287758154428049,0.5749596543640644,0.664543742112092,0.7508367678933446,0.8311876119661471,0.8592880137993145,0.8262171817573035,0.7903472513548665,0.7805187010928686,0.7977409769159031,0.7829445929918822,0.7613920237195474,0.7584581649232146,0.7794594477710285,0.7972011989691913,0.773240224487055,0.7169953723508612,0.6500751953711611,0.5788726601344846,0.5065758661959047,0.4543088391662481,0.46855939817335723,0.5178128523981357,0.5661587750318081,0.609318061022683,0.6626419364398543,0.7317139343949556,0.8112187733961068,0.8943142984607598,0.9723100863562032,0.9781838258921461,0.9009938509735428,0.8148456879108587,0.7254376461905504,0.6345179326927656,0.5959892449878134,0.6692473189863394,0.758609696514882,0.8399586824404343,0.8857769072328233,0.8627719639350836,0.8271094153780588,0.8056857206913578,0.8240343695640339,0.8199815652763714,0.7956856664774518,0.7740947169992921,0.7793466371173611,0.7986990199220273,0.7876740661274794,0.7392002948963802,0.6716443446206749,0.600383797052427,0.5314565460928308,0.46830114508698084,0.44546008694999417,0.4923701459770956,0.5566447685338641,0.5847404459472442,0.5733023963562621,0.6089473123076891,0.6616344994438658,0.7335589042296683,0.8179605699619671,0.9050543056630137,0.9773696277710117,MI
0.6859104384794221,0.7026684773362619,0.7147884835707743,0.7152416955095859,0.7025402254507196,0.625227947937834,0.5263030733804761,0.4268235829135365,0.3234009490819896,0.2225642335809117,0.1337940810698317,0.14369940610521792,0.2362594030384617,0.33224048848520815,0.4178377525777459,0.5183231592283282,0.6271367052823225,0.7310737778342988,0.8287132808171418,0.885265112945709,0.8412346015797743,0.7828891941754945,0.7339380850013615,0.6969557528121919,0.6939522944567249,0.6877196240118135,0.6933071631208045,0.7124815959636093,0.7293325488994828,0.7118291045444207,0.6885219561325189,0.6918178956941101,0.6569473453080266,0.5627733358913987,0.46186136878213646,0.3614313297628635,0.25845363436489577,0.16492467403570577,0.14344091088642186,0.2250453173601048,0.32575031359293405,0.4266644444628531,0.5353088677324604,0.6417554359911097,0.7394581351859022,0.828072278250551,0.8357255108495056,0.7774205058436812,0.7251815853593213,0.6812774693823809,0.6727225282477629,0.7012413641324418,0.7095715231105799,0.7107861190948992,0.7072170971203524,0.6716118641742364,0.57735473743649,0.4733105734367924,0.36426667167014215,0.257104614053123,0.18571386026792047,0.23023948765106228,0.32895003786872334,0.43227073374662583,0.5330247836713886,0.6350272337497902,0.7325133177022962,0.8257242460380054,0.8658278714230756,0.8086899634643745,0.7367570801856955,0.6741129888795034,0.6617092907089848,0.707596289596989,0.7372538217735809,0.7096390599007119,0.7007506550179123,0.7069759360915506,0.7027212702921448,0.706896551518357,0.7141190933470314,0.6946763949648649,0.6217805891050543,0.51849162180629,0.4186192489720666,0.31920920936934993,0.21362633189292124,0.11428553762536886,0.036186033270230844,0.07294197835940919,0.16862569113871428,0.2678036698839057,0.37167207879255404,0.4722541050795608,0.5807732366743865,0.6893377622433603,0.7892392447071732,0.8794873884572556,0.9070961905283441,0.8562613135315364,0.7982239466320153,0.7365574052628554,0.6795405443991707,0.6813822831537626,0.6949112332598368,0.6750442974663684,0.6824883818527196,0.6827338297464263,0.6799136542936506,0.6734996334346894,0.6589188541319724,0.5876033903480611,0.48866542933138146,0.3860903334141661,0.28083212907247823,0.1801617797270878,0.07462115298356897,0.0,0.04177320165742304,0.1388721592522535,0.24340464524021344,0.3439237805731732,0.4522066752683387,0.5546117988243453,0.6576290875130673,0.7585017834363665,0.8564060187515008,0.9224523286413657,0.887235137809889,0.8509706570925826,0.8170518327627663,0.7770957012548225,0.7405947703503946,0.6897769911102547,0.6749889158764233,0.6982612557511054,0.7089640067559928,0.7214251721045521,0.7520956713362852,0.757454043217874,0.7450430093710099,0.7294171971849315,0.7211238896454548,0.7631657407143251,0.7997481826060249,0.8406906100978444,0.8784447119851391,0.9130077593633594,0.9653135269728919,0.9999999999999998,0.9424101395628746,0.8483428704827187,0.7481747796307336,0.6463938354630312,0.546623481276495,0.43984665721567495,0.3902639611746108,0.4746002883512186,0.5731140353294741,0.6702833779441864,0.7387778840413539,0.7265976212573431,0.7205219472422824,0.7250473676064237,0.7258085380651449,0.7162554895977273,0.7403981249345379,0.738507067251023,0.7231976285124844,0.7829844413747178,0.8459785380136549,0.9007565481166246,0.9541577965118153,0.971370159336552,0.9014128171929083,0.8063612104048661,0.7086789502747599,0.6093737704176649,0.5048427431118652,0.41342361010346074,0.41855043654490376,0.49921400438125696,0.5939368732337686,0.6875637952326443,0.740900502633479,0.7522731761880637,0.7432489370335242,0.7341133341823245,0.7394734898359758,0.7426379992932153,0.751666459246134,0.7850078633017705,0.7630149292393937,0.7144945700519647,0.7221926826657075,0.7929822389541867,0.8661614444484254,0.9264829040522911,0.9214145743710336,0.8432846415910971,0.7483492026006642,0.6513358741118493,0.5511075189371588,0.47709676417532276,0.5374322506948774,0.6399511021782496,0.7370888945795506,0.8214842803620128,0.803141725147025,0.757749821921381,0.7482331362034056,0.7505674357270429,0.7482237537735139,0.7129074006944294,0.7181895966734546,0.7650684056652548,0.8194005887550209,0.8826243153536055,0.9233470584051775,0.8747435456060357,0.7813898710947595,0.6830193494375292,0.5810480391242716,0.49455325977220177,0.5190009363314261,0.6155305602971017,0.7090472876093623,0.7535256163535193,0.7303353960861421,0.7336267984202978,0.7598701574163698,0.7637829976833153,0.7425659771288597,0.7276487611965223,0.7377601964201064,0.7324609189406159,0.7488575551689862,0.7959975147842953,0.8482978851467655,0.914726092547882,0.9623805865016786,0.9208005930275569,0.8282653323335414,0.7300453963266704,0.6299466076246532,0.5277397082657194,0.48993965087394376,0.5710628345672941,0.6688743253229055,0.7533584718219763,0.7584615960764378,0.7486991928316111,0.7554473192188096,0.7527919036994783,0.738923437484378,MI
0.36869918993559225,0.38364398087107365,0.42099524058150606,0.39865621569373766,0.3197317638272654,0.2519101244292956,0.2250068952993738,0.18880683440141088,0.1458678352971452,0.1579989560027404,0.23552821399480628,0.3137735468068552,0.4022230677131986,0.49600889978678553,0.5898515432421532,0.6866426077604124,0.7688745601966875,0.7477319153002433,0.6590150323218937,0.5662890106791183,0.4725072243674364,0.39702333207313845,0.34761916742689736,0.30291751624751484,0.24554571185901053,0.1789761025250396,0.11338166130788618,0.05638043687820948,0.058742853399532,0.12438936608431073,0.20120978825561253,0.2769461582348516,0.35076565034126284,0.418905195568507,0.448134397257441,0.43859259704181186,0.4316298649573065,0.4451523945379947,0.4283080891409756,0.4110388046442488,0.44220016838069354,0.4623774158713092,0.4035150690647098,0.33088465068058825,0.3501898846883049,0.43476469702749676,0.5270211645980067,0.6202425280387007,0.7076786993901676,0.7062519214099332,0.6203108828746946,0.5297170385886119,0.44144999845579425,0.373847213679523,0.3374275554885997,0.28468714448972876,0.2168674684478431,0.14212932525224553,0.0730701225297885,0.013251688259804828,0.0,0.05586405555339602,0.13480793356487553,0.2143643548375911,0.2858493284953747,0.35411682076569706,0.39160791041637233,0.3818000413241589,0.36814121203261574,0.37685914474137916,0.36160207678157597,0.3396025803757434,0.3700287845011052,0.38623841918307567,0.32188825868665005,0.24734405669144466,0.253780884168906,0.33519922489588416,0.4331973162758487,0.5333435534193984,0.6286887769101519,0.7238552652640964,0.7799140869125991,0.7126220464400976,0.6213220573211073,0.5408040310448889,0.4586525864206865,0.38152547892362687,0.33110010708177984,0.31101948614206276,0.2603583803129239,0.19997833221904115,0.12701629730082398,0.06436870077854628,0.04412509291524325,0.0921210211374015,0.1653757180098243,0.24597529567859544,0.32205439819790405,0.38978478781177195,0.4355724551994873,0.4436312773301816,0.4453591687305569,0.4518221426047486,0.42447257111427206,0.41057852726769495,0.4443026607274496,0.4550275262191108,0.3894339749993838,0.32529410570489437,0.36191409239207584,0.4497859555941526,0.5432417003961041,0.6380976135142851,0.7277995601111444,0.7403270346018618,0.6558359200906898,0.5651497091522468,0.4730843164263421,0.39967575190620397,0.3584459845145156,0.3180562240736242,0.2596090956480266,0.19453242799112558,0.12861091604229813,0.07943009696332681,0.12060128349261778,0.1901507812770531,0.25418596973792296,0.3169756235852079,0.3693435427571261,0.4122984252932027,0.47731403295096886,0.5630943990196757,0.6534580314025162,0.746090290214255,0.8451546815307402,0.9364667373579172,0.9633090663908557,0.8897180148091803,0.795673262746452,0.7020678405469902,0.607184659332368,0.515439597351258,0.4678183328548058,0.5019409865346789,0.4825801342432765,0.44676458507474126,0.4636143675822839,0.4881817825612429,0.47816249605348493,0.4742539879594474,0.47172482929624415,0.4411726657227444,0.3797420719273348,0.3045229569450627,0.22811589246094033,0.1519852373888213,0.08874332015029807,0.10311812560347833,0.16638691948359519,0.2372551582769622,0.3000912642930913,0.34788570791580176,0.3826494217893657,0.4533206266516683,0.5354138179793011,0.615644567514297,0.7084172356578864,0.8020641317059258,0.8945451865549416,0.9773782000684723,1.0,0.9225201907383438,0.8276109148498696,0.7315092593865142,0.636574644375258,0.5404451307606986,0.44635060215008027,0.3607534587932173,0.36690919985366355,0.427117161408064,0.4229331461271668,0.383990322753768,0.38515722820111664,0.41076042654626654,0.4016126887190157,0.4082209092982978,0.42342656139487245,0.41089777462225885,0.3604408315199428,0.29214758672831453,0.21768006297799092,0.13399246573815038,0.06192641201396931,0.0392832713925666,0.096842327600559,0.165774668142173,0.23659521895455127,0.30729745438685163,0.35890621096078856,0.39713942081180065,0.4581239853784014,0.5338164177585876,0.6233217135238442,0.7212968282746226,0.8147659884881655,0.908293322727364,0.9751727253698115,0.936405380225767,0.8459216595691585,0.750723329943692,0.6554242451873573,0.5611882608601573,0.4670067931469113,0.44008431466201947,0.49397603990510075,0.49603506647256324,0.4616966996009133,0.4604455939028258,0.4777556885162213,0.46411456188421396,0.46654727839872767,0.480992447850465,0.47240700825534865,0.42515115915813473,0.3565811301300357,0.28309280257279457,0.2053581813508829,0.12602123369456164,0.08126830094887927,0.12367030477707974,0.18975109098746712,0.2530452407731927,0.3140887763165674,0.36082302800170996,0.40933810653008273,0.4830880504340198,0.5704211130228887,0.6576545528873254,0.738922624251283,0.8305824803788817,0.9258129059787499,0.9646890244384374,0.8983046310213045,0.8032810689056791,0.7097130153722029,0.6135445743312558,0.5193495624732398,0.4283149147685499,0.40227091995134034,0.4607845762110503,0.4642970841304148,0.422780643704338,0.40545203709208644,MI
0.85851506829949,0.8631383999192772,0.8641735999540592,0.8695415189457336,0.8737632873373855,0.8835116662251761,0.8893870585870651,0.8888668497058354,0.883810451962401,0.8784457303766213,0.8757772937093673,0.8738404034340816,0.8712939255909333,0.8649745640814241,0.8670430585438869,0.870625448770588,0.8649468936885127,0.8588241846206113,0.8760761014012974,0.9021894317077337,0.9096922107189029,0.8762666755021107,0.8238595545041363,0.7683538386959223,0.7097726303655485,0.652049819702224,0.5987534230661651,0.5410615417411972,0.48253143661433123,0.42770012737403634,0.3722931879553452,0.3137155279695127,0.25523310217732104,0.2007328428787451,0.14497166871132666,0.08789135600436454,0.035129863639627,0.0,0.027343454355689856,0.07011556693611098,0.12424253771503857,0.18283934874423263,0.24148161771341364,0.3001222378783149,0.35797028566944605,0.41125886015205443,0.4688333642538756,0.5274724031256435,0.5861146720948243,0.6447569410640053,0.7033992100331863,0.7620414790023673,0.8206836851836032,0.8790441181631434,0.9324984301274757,0.9717278390318931,0.9672564038684097,0.9524311437064807,0.9313296202050056,0.8956149975040593,0.8552281432990803,0.8108591836886947,0.7629487382681186,0.7149070597269402,0.6696285457741651,0.6264308397815317,0.5865328661529146,0.5648797448742933,0.5848378879412266,0.623990187508696,0.6737798990559689,0.7211012088623872,0.7659689984601592,0.8081047500869856,0.8392341105189174,0.8388118540830387,0.8257027919783397,0.8141668184598474,0.8095711769443952,0.8129369535287356,0.8172595269772027,0.8210601656231229,0.8266562507521109,0.8310571589748654,0.830611032245361,0.8320757678526851,0.827593923950795,0.8283161174574296,0.8309580078136429,0.8315576916541811,0.828326031805082,0.8273230139500347,0.8285474540412718,0.8306438924046871,0.8241753524126143,0.8230934034832904,0.8253983869123198,0.8253680229746072,0.8099595507210524,0.7971954897003459,0.8038241472915584,0.8191619006321087,0.8243404180829386,0.7856481307010705,0.7331110360056827,0.6803138662550909,0.6246648955262157,0.5712892490028048,0.5133291631615127,0.45755095796144,0.4030651660335017,0.344583811300543,0.28711658686240565,0.23378811592913823,0.1760287662159042,0.12162228993342816,0.07624673820192429,0.087226796641721,0.1421338105721981,0.20076332569135574,0.25940559466053664,0.31795466692834146,0.3730077504896591,0.4281935106526223,0.4867541111035855,0.5453963800727664,0.6040386490419467,0.6626753949410467,0.7199679677354334,0.7733556234338803,0.8313877695169201,0.8895791385456322,0.9318076961979818,0.9161235891942912,0.9002395890441022,0.8956394635221911,0.8758311712233449,0.8395058841937548,0.8184947168689332,0.853551939381785,0.8921419685262131,0.9131267022459133,0.919820821868077,0.9276630236227081,0.9636219883659922,1.0,0.9880937573525355,0.9339263679242324,0.8753051957404623,0.816900621671564,0.7627962664352566,0.7065729191450487,0.6479566399503012,0.5893228494839033,0.5329236995024047,0.4863294058541449,0.4345390498231691,0.38441695030590123,0.4022565736863299,0.45950586734287663,0.5137093760205151,0.5696811934567658,0.6243653201069044,0.6793943265058084,0.7327601429539103,0.7861657375259739,0.8325363692417058,0.84828952196963,0.83880899261003,0.8240335911457959,0.824264774197927,0.8418572093362846,0.8488963472894202,0.8463667446265954,0.8449994491544819,0.8498676301522436,0.8518440682081869,0.8513619160403818,0.8485965880293973,0.8516290128804542,0.851859535547246,0.8517617192902802,0.8500219320231777,0.8516013877352706,0.8517894382966402,0.8484489506134898,0.8438362320549855,0.8383828923138139,0.8370499278015937,0.8321693062793465,0.8331878772899042,0.8428079478408341,0.8564997788953099,0.8687132468894518,0.8549873986579601,0.8224916506583533,0.7807396610832658,0.7329820889311134,0.6846091069924864,0.639736806197198,0.6015167602004357,0.6065186011348132,0.6480430253264364,0.6919611277933104,0.7369785201672512,0.7814151234245272,0.8288178797335164,0.8766044526201875,0.9164067602090196,0.9495551103986453,0.9706554439982407,0.9850641047955777,0.9987087803018229,0.9904961401880874,0.9542790675471449,0.9028569179856627,0.84456307819465,0.7891766268660021,0.7343254026031778,0.6757911886691357,0.617148919699954,0.5585289867472376,0.502137588405486,0.453131669630442,0.4608314420106611,0.512363798363326,0.5690721993141545,0.6259826215914235,0.6795646456743525,0.736475434197257,0.7898119868875906,0.8450534092318764,0.8975713910006049,0.9329150344553236,0.9308678326563098,0.9156468352340368,0.8890979988512109,0.8813138477053322,0.8959591121935593,0.8902961538516319,0.8881665681569055,0.8924886601263724,0.895152393922954,0.8961614330236951,0.8981104230649459,0.9035896057361013,0.9075844580809875,0.9095127397153753,0.9081493501221025,0.9048292121959027,0.8922950781630601,0.8892066458286847,0.8836504409738515,0.8807440619886349,0.8790770230306233,MI
0.9999999999999999,0.9960496714142532,0.9869402142267324,0.9768454339445946,0.9684391055408658,0.9638368994848249,0.9546157581552052,0.947741182407355,0.9380575901723637,0.9279523820296999,0.9178470077290456,0.907741633428392,0.8976362591277381,0.88784013613307,0.8809891500459871,0.8712362049501988,0.8611309784094182,0.8510256041087644,0.8409367229131749,0.8330453015663962,0.8246423672479103,0.8178757450171883,0.8184082424949171,0.8175090358438182,0.8077014171776754,0.7975961250936049,0.7874907507929507,0.7774163035284799,0.7698767797900896,0.7610840259436118,0.7509854700746311,0.7408800957739772,0.7307747214733231,0.7206693471726694,0.7105639728720153,0.7004585985713614,0.6903985852380097,0.6830917626783803,0.6740557279921404,0.6639533178530415,0.6538479435523878,0.6437425692517338,0.63363719495108,0.6235318206504259,0.6134268304104548,0.6040461340468211,0.5969906215809654,0.5870265399321063,0.5769211656314522,0.5668157913307984,0.5567104170301446,0.5469541662935861,0.5401240077999431,0.5303103789509571,0.5202051363118246,0.5100997620111708,0.49999438771051685,0.48989003680509535,0.4813724718664594,0.47357752004507836,0.46348910699219714,0.4533837326915432,0.44327835839088925,0.4331729840902353,0.42306760978958147,0.4134024956429885,0.40653695234304077,0.3966676085066272,0.38656232907126165,0.3764569547706077,0.36635158046995375,0.3562462061692999,0.34614083186864586,0.336035457567992,0.3259300832673381,0.3158247089666841,0.30571933466603013,0.29602858835350954,0.2891801422784934,0.27931932303413537,0.26921405394771036,0.25910962025076456,0.2504679548839712,0.2427876024183082,0.2327087732293907,0.2227588572391559,0.2158275361488059,0.20658088402452035,0.1997677772857025,0.19308744119281002,0.18640432591632566,0.1776692265852955,0.1702880618736618,0.1619597037419419,0.15529469207414326,0.1486235801857544,0.13929221681857695,0.13243061721217397,0.12256316772955056,0.11247514337959913,0.1046036595555157,0.09651625228774646,0.08970400206580081,0.08034883285998673,0.07345699687079343,0.0641711166440416,0.05722247348521828,0.04964125885052087,0.04149014831571948,0.03475908354767013,0.028089502551083473,0.021409206129129638,0.01465541632600903,0.009208628040706712,0.0032706417260446596,0.0,0.00267767033086036,0.00784020814582806,0.014759831349594327,0.022585239923308464,0.029455331149499414,0.03769809220870643,0.04529978315473665,0.05370976254755416,0.061594315551212364,0.07104876831808607,0.0779964539461386,0.08797769813917394,0.09808307243982811,0.10818825298531715,0.11776781592911245,0.12467830942602282,0.1345882352952137,0.144438635593726,0.15126618506049216,0.16098825957581364,0.1710808649926826,0.17929936665120205,0.18739680906583,0.19736362756366665,0.2044419363294312,0.2137883282599532,0.22340646293291477,0.2303035672626138,0.24018136325345985,0.24898692135466194,0.25651419766259137,0.2665857325102095,0.27567298421534686,0.28293081705313183,0.2929728589795898,0.3009727542705539,0.30928302289534376,0.3184758153420773,0.32563158625935273,0.33566898798361744,0.3438396694992344,0.35198363280015066,0.3620819923062595,0.37184639689614607,0.3777132100961481,0.3846121887442193,0.3935121830008985,0.4009005395337659,0.4107125377560008,0.4173919996513966,0.42362617554390947,0.42855169254724146,0.42956150897312106,0.4240081546653738,0.4204143762941659,0.4154463975947411,0.4109822344686461,0.41198195580760966,0.4119701572900887,0.4069950115351839,0.4002705464217208,0.3936758069282762,0.3879171246483729,0.3834873227423897,0.38259555886885543,0.3763825754665088,0.3667086249192195,0.3606849221026124,0.35634242370502645,0.3591972780611159,0.3669858989115,0.3751524840857161,0.38326727635744684,0.39074667841799393,0.3958974944012027,0.4047869901732297,0.4119998117016437,0.4220540008171755,0.43215937511782954,0.44226474941848337,0.4523699633105587,0.46207522831454895,0.46894257893933444,0.4787700301368033,0.48887540443745703,0.4989807787381111,0.5090861444146481,0.5190265265181906,0.5260345466925693,0.5354863285288849,0.5455914337570846,0.5556965349606964,0.5649770136923035,0.5720511350731716,0.5820967144754046,0.5922020887760582,0.6023072187267271,0.6116960613033301,0.6186720129510506,0.6287073694943782,0.6388127437950323,0.6489181180956859,0.6590177558650508,0.667878799070058,0.6753530031793227,0.6854233988140057,0.6955287731146593,0.7056340835968467,0.715529001209427,0.7224458361841697,0.7320341021280352,0.7421394281336335,0.7522448024342872,0.7623499714809534,0.7718861888867508,0.7788115592361176,0.788750083152607,0.7988554574532607,0.8089608317539146,0.8190662060545689,0.8291715803552225,0.8392769546558766,0.8493823289565304,0.8594787210247433,0.8680797838264845,0.8758050591508041,0.8858875378072074,0.8957758251815223,0.9026793623146517,0.912287532190868,0.9223928903931701,0.9324982646938241,0.942603638994478,0.9527034120013907,0.961572991376214,0.969039030531838,0.9791089197127979,0.9892142940134515,0.998746280715164,MI
0.8762368429997527,0.8762369508315317,0.876704447953101,0.8809758543833617,0.8632769980049,0.8561489251927359,0.8754661692879218,0.8956343008737244,0.8723374745701364,0.7989296322928072,0.716988378472313,0.6359395749540295,0.5472923697659546,0.4664109095696982,0.3796349173812934,0.28974339513716196,0.20194438409718352,0.12164864120570162,0.04330137271201906,0.04661744148891267,0.12650590803098338,0.2030822347201251,0.2717834036964004,0.34414595482492305,0.41973014106677065,0.5008407966686723,0.5902292792887809,0.6787280460888008,0.7590273445609848,0.8463082561903303,0.916253077170964,0.9197507386852366,0.899358522218705,0.8796548991195867,0.8634777016334927,0.837763122708505,0.8016383197623003,0.7583079115792479,0.7110042786050765,0.6761083495699141,0.6818635515521607,0.7229124110639737,0.7769202515995697,0.8391823377669874,0.8819741012837556,0.9075968688774654,0.916284073838193,0.9148297180485399,0.9028818291124434,0.9019856390942183,0.9019522082478137,0.8981224063610171,0.8942118456730399,0.8905901852035072,0.8889196427422905,0.8819435385728167,0.8749426328697671,0.8739394365070319,0.8811450909525473,0.8755012399102395,0.8609907858566999,0.8451918163132621,0.8611937210043359,0.8762251520805258,0.8628921667639897,0.7950584312355464,0.7308864413079796,0.6546392606212081,0.5706864487576142,0.4810341506181026,0.39773434385897977,0.31380560499082377,0.2240254985710104,0.1375691646132735,0.057428972156988056,0.00397713389208576,0.053376025715557995,0.1349630474906025,0.21934704527200344,0.30917353975148765,0.3982344383839267,0.47887111549513595,0.566061240433078,0.6557738123778925,0.7388137531317367,0.8225978030285055,0.8968255244994303,0.8991250621214584,0.8738277846776938,0.8573965852837504,0.8457153203084369,0.8240600814962638,0.7869952397693258,0.7460723524809261,0.6950027802564038,0.6614567455338327,0.6521966757115254,0.684418737412726,0.733119358319261,0.7928682667044082,0.843709674491413,0.8745486038094179,0.8879430548850711,0.8888670223195954,0.8815665051875858,0.8763138672361692,0.8762368429997527,0.8762368429997527,0.8762368429997527,0.8762368429997527,0.8762368429997527,0.8762368429997527,0.8762368429997527,0.8762334750421119,0.8744283755557727,0.858040995896614,0.8630398341665964,0.8777297918239109,0.8811892565876218,0.8332705453026521,0.7540629753096453,0.6714046961447278,0.5841768523691702,0.5037052913727198,0.4147487714460405,0.32724090109822135,0.2468081909523021,0.15788966523630465,0.07164485790288055,0.0,0.008526395679042897,0.09270055682800415,0.18212429010234876,0.2634761223797508,0.34959188220249326,0.43947952416827585,0.5291818032475406,0.6119582659633986,0.6964259641384745,0.78362101512589,0.8632711373186215,0.9152977675486191,0.9258522868420571,0.9589288457848881,0.9884161846550952,0.951408360860627,0.8696751507553091,0.7798591091870319,0.6907662393019383,0.6100745234858103,0.5229909254836425,0.4427481281455474,0.46399996621261197,0.5515868273455571,0.6353939617549409,0.7185459135183607,0.8004556511561316,0.8749175113953176,0.9163953898355159,0.9164313968247346,0.9063671694006357,0.8991666982616016,0.9063740958161008,0.9071338973088379,0.9071344824778316,0.9071344824778316,0.9071344824778316,0.9071344824778316,0.9071344824778316,0.9071344824778316,0.9071474546890079,0.9099139639155034,0.9191675560256063,0.9200077818861323,0.9198750233155804,0.9133089738009943,0.8916592176894929,0.8451348292771086,0.7916830725298976,0.7357476658137478,0.6974437209268034,0.7117300660779884,0.7561531248005049,0.8014053909257162,0.8398130272059787,0.8716759197074233,0.8927297948944419,0.9033568611178442,0.9214147083161564,0.9605991732880135,0.988399250447535,0.9429209090341795,0.8648018324832694,0.7805014323907411,0.6988411929519589,0.6094005036175556,0.5383548368483326,0.5821763205543269,0.6690984699175182,0.7487800468101637,0.8277426149386717,0.8958017091777255,0.9187033366655268,0.9054801375445432,0.8918432671649472,0.8982598728209497,0.9128896913159603,0.9157601010174736,0.9199549398663236,0.9200084989270314,0.9200275019835784,0.9232745256763355,0.9322205485530644,0.9328821115311072,0.9328825153762312,0.9329002487811211,0.9360516144134516,0.9470312556785037,0.9565419835980151,0.948698555693992,0.9424795542872748,0.9136935819194676,0.8661197783330734,0.8075130410740301,0.7534736081509599,0.7143678903601305,0.732307526342943,0.7766652282592408,0.8215816124257604,0.8617350148195979,0.8875432575013655,0.9085784598319573,0.927723142479715,0.9466238970731666,0.9763764293011006,1.0,0.9529576747864454,0.8747556162658254,0.7917226066169532,0.7081785317026728,0.6187467041331323,0.5623599349870356,0.6239911501399145,0.70821068566043,0.7901582109263066,0.8684770852392849,0.9266315499561131,0.9438011263013446,0.9228869780962468,0.9033271097347182,0.9041505686716178,0.9179334895384699,0.9094703586652662,0.9071420549251084,0.9071344824778316,MI
0.5629908904934918,0.5581038853231243,0.5575696713660488,0.5574933654632367,0.5542596972009625,0.5508591866895945,0.550163490744538,0.5347833703683712,0.4981556458252486,0.45076581494612744,0.39672052428791826,0.3457301792525087,0.2917236550414627,0.24063387700435035,0.18530174172780722,0.13294600596142947,0.08078721357635898,0.05234961751631406,0.08960734218156596,0.1427337464733076,0.19469929917976359,0.25054126330146476,0.3065602471229001,0.36205172162816057,0.41317191614173643,0.46782711106249353,0.523840003842947,0.5798426273378964,0.633881013942733,0.6853972775362617,0.741107574529485,0.7920646595275108,0.7862789695616129,0.7416250722198064,0.7064805993186621,0.6897981578365951,0.6869861122615387,0.69401744471826,0.7153202587316304,0.7435250220122088,0.775767299927968,0.8029565539700346,0.7918998297042074,0.7509750547575945,0.7066804962329162,0.6595559975385649,0.6131290919561075,0.5653679081907003,0.516362653121479,0.4661658769821574,0.42310319107779226,0.39384483138410287,0.40701439939039075,0.43676883854000914,0.46575814618057076,0.48994686266651677,0.5023005520802274,0.517326276925497,0.5277499361965162,0.5220570109192358,0.5126188383937463,0.5119785370953488,0.5192336507785887,0.5234258375260666,0.5235733709253457,0.5235733709253457,0.5235733709253457,0.5235283268819012,0.5207692863443508,0.5157054585343132,0.501990772014541,0.46111086267860746,0.4101231348470856,0.3570495958564508,0.31361729728418886,0.2630011395783831,0.21161199406328024,0.15750234177968125,0.1026817366434929,0.05165405377806842,0.0012498486691276955,0.0,0.047270653109794614,0.09990047198564911,0.15583325096943068,0.21177905401946773,0.26455473199000845,0.3171821790396485,0.37311241552284935,0.4291319915109133,0.484981246784966,0.5369785897461282,0.5904282391455725,0.6464055172306572,0.7011195077970162,0.7454493976272715,0.7323811370469077,0.6878597242069154,0.6590970024692183,0.6529170808768333,0.6564037118823759,0.6762089973229432,0.7029161884617886,0.733102680707384,0.7645610474355663,0.7944080161016577,0.7889007551389721,0.7493136317374528,0.7049488119457249,0.6576831717642161,0.6106383877669269,0.5627946434201317,0.5095060906804506,0.4635790486475998,0.4242091053498218,0.4082262117384313,0.4344395511596819,0.46611975724161214,0.483691295169992,0.4928248147304307,0.49401307752424983,0.5099196930217124,0.5373896339169387,0.555874341107592,0.553716206736934,0.537622075590508,0.5202158416236459,0.5050933307570004,0.49404516476865845,0.48718156958497694,0.48296623416641193,0.48277853818051,0.4828454190899151,0.4882784515837043,0.498503874275828,0.4990976093197729,0.49981900742432683,0.5049097403486901,0.509827031503897,0.5206022169414607,0.5354031068110633,0.5535650765881835,0.569118381913723,0.5791842999023474,0.5754648268578183,0.552441509012377,0.523794387566017,0.5133465244517813,0.5085998899009828,0.49964191401598435,0.47655435260640544,0.4448390486057703,0.4597551132753138,0.5036143938098873,0.5511062606840326,0.5987745474145548,0.6476254974653176,0.6983976452891928,0.743667722033441,0.7871954703535718,0.8205982895183604,0.8232748923753829,0.7966776142155859,0.7630921898481499,0.7319077583115304,0.7044785778334351,0.6789066539246361,0.6720159689934723,0.6798911852844424,0.7120065314453198,0.7644076309516014,0.8155493718784631,0.8680656924987517,0.9183214117823718,0.9528039963940843,0.9280613350319417,0.8735806852828744,0.8180453370597415,0.7668898642505039,0.7123150792629936,0.6563032946833586,0.6005541663960877,0.5489858032475549,0.4950241816852111,0.43902407275392796,0.38304213336928294,0.3364866569855387,0.3573783956709169,0.4075106889560479,0.45971992917521665,0.5051491357134422,0.527565035218338,0.5337554357567874,0.5389967939899786,0.5398891253062647,0.5398913054825542,0.5398913054825542,0.5398913054825542,0.5398760667343551,0.5379551808872026,0.5334245197860591,0.5356658077230328,0.5451144665166804,0.5444126034160349,0.5315387562270727,0.5173692437751222,0.5047538881587351,0.4787693741660305,0.44947602714000345,0.4276681456148811,0.45304190474493433,0.4980043255557748,0.5455371921756788,0.5937101111219144,0.6446191544142331,0.6925793822634138,0.7381802261969325,0.7816152323586701,0.819150726275044,0.8323151403789445,0.8117850022583778,0.7804906305340144,0.7492992855770663,0.7224348742788201,0.7055155058670887,0.7082861344821544,0.7214710233633145,0.760680587266307,0.8111250571386289,0.8617934976651845,0.9134696182057166,0.9644386005917914,0.9999999999999999,0.9764090351783291,0.9230874745250836,0.8720821187627655,0.8167882965346119,0.7608180406493573,0.7076001801065798,0.6553933234550297,0.5995104258582392,0.5434908498701753,0.4874740163101058,0.4340852486183213,0.42804109217433106,0.4781372268077321,0.5265436526272628,0.5598332667700722,0.5669986386886471,0.5687561715746546,0.573485000118244,0.573895124300175,0.575391185551401,0.5802249901736595,0.5806857008594727,MI
0.7430602351303708,0.7515100993659252,0.7139626530446528,0.6376650213286881,0.5309407223923583,0.41241985816122795,0.3153941080424476,0.3222743774469594,0.3027223581253098,0.2466747775057394,0.1786714838977954,0.07799485636657622,0.0,0.02529751886335818,0.11112358554463597,0.18282051735284144,0.21589398690608363,0.2077162106327035,0.26167358999793233,0.34000524772582597,0.4099943613600654,0.48378983419011035,0.5677550261267539,0.6434030917440785,0.7233308590439924,0.8017011256066013,0.8562829850243145,0.8657456335045735,0.8370599750686172,0.783004223328333,0.7799107064952346,0.834714613338561,0.8985549426729993,0.9238726820261067,0.8785577179557114,0.7906513069717602,0.6773689808611245,0.5663274613364508,0.4568505450353604,0.34986646609737737,0.24989077681666494,0.16854496748578796,0.18205758398035643,0.2756764659458788,0.36422043810503735,0.424538409021342,0.42490401660719423,0.41211613500483923,0.44662899202298223,0.5184191042803497,0.5985218863221975,0.6787484706698328,0.7606878685934613,0.8414428277380359,0.892301914404215,0.8880107084479094,0.8533390268118006,0.8176978452896224,0.8426082625909894,0.8948304308437913,0.9342706743369236,0.9074668677401776,0.8389860740448227,0.7299536015186685,0.6197670242715858,0.5113200264877389,0.40324347256535,0.30126284926363733,0.20630063174193647,0.19010202869775328,0.2675889740928623,0.35255354256665217,0.38088371333776894,0.35798165629630785,0.327813942881382,0.30876476377348605,0.3492388500859043,0.4123953010482573,0.4836708806497694,0.5580856519982202,0.6210035207296156,0.6465342734594131,0.6485343917796496,0.6612166174221705,0.6125580358925304,0.5855608397557595,0.6310143615900998,0.6866283714579045,0.7281261431419337,0.7003829350224213,0.6232964737569129,0.5216442146641749,0.41565407424968304,0.30221509690647985,0.19825023892129012,0.09887583922141463,0.019869176071624972,0.049464415932084504,0.13681690462226803,0.21813176682114466,0.24688779074469802,0.23657515558370545,0.20028544038663565,0.20946169146650573,0.2703866524471443,0.3429382180900149,0.4209995078166433,0.5176142925588245,0.6120191857185107,0.6999856532383142,0.7607893403821511,0.8090254248048823,0.8406038992260279,0.8236646908055458,0.7944771692863213,0.8036535288726905,0.8533055077483158,0.9152050710564381,0.9497652725230379,0.9024092524642502,0.8127291974167712,0.7091888564276452,0.599882093085973,0.49073332787853485,0.3824325371548125,0.28224591916070896,0.20383492931379044,0.2322665451463879,0.3226761779321088,0.40643637144737244,0.4474616366847577,0.44806047229205936,0.48317733344261105,0.49651350442735676,0.46557547167866686,0.39089099209234246,0.3227656727414894,0.3771402572750542,0.4826644469858923,0.5922725606934274,0.700747645667912,0.8063241957752332,0.907632446096297,0.9758319573405199,1.0000000000000002,0.9728739047784545,0.9161594190306783,0.8584302183986414,0.8506255656421697,0.8762137308880071,0.8901565343097453,0.8592693229927535,0.804713604725342,0.7249410627964405,0.635943503428398,0.5490156892773135,0.45845660012416434,0.3768365708902952,0.29979089863516317,0.2843422729758378,0.29951808381864287,0.32659896759210416,0.3137313586739945,0.25440696069945146,0.17284463122114446,0.1641322319137497,0.2600403008994643,0.36942375890354584,0.4777107028879082,0.5816584516713672,0.6826926118274643,0.7644418021233885,0.8239154284694228,0.8156657916405143,0.7663856970701686,0.7076363262105188,0.6967176871678358,0.7393776923690389,0.7664098271120057,0.7488182690916105,0.7496562980403911,0.6967914920689304,0.6301242878846971,0.5521509008054901,0.47819668645320834,0.41463119939318616,0.383290764623893,0.40268767054088106,0.42768812576118553,0.44520274911268154,0.4067951538026906,0.32070410917735903,0.2776422168148791,0.3611869297580885,0.46585197860064054,0.574134451933445,0.6826702769463318,0.790890582494159,0.8879411965511113,0.964501672972107,0.9955783746242,0.9950920234825837,0.9453310638310055,0.8858737395550624,0.880053085372557,0.9225370558235075,0.9399047255957729,0.9293713188686701,0.8706132902773522,0.7929337537504824,0.7129216869157802,0.6316870766426279,0.5460888762728178,0.47907434776138547,0.4580543831804966,0.47790985640006967,0.47609225972778346,0.43398692287338814,0.34905699188865635,0.28773765148019437,0.35786529254920585,0.4643620200430212,0.573754578467504,0.6836500862149075,0.7891621818802685,0.8844056366584654,0.9443663284060893,0.9677535139505975,0.9470184314971519,0.8847799615672851,0.8342861278226856,0.8542987811339426,0.8990463094260484,0.9241835792654325,0.9146281864370971,0.8518131335662951,0.7793969543171546,0.7006172082439981,0.6188996951179491,0.5372373885241235,0.4627531729057581,0.3925940583593539,0.3185107386907957,0.27884956257831495,0.2707630815745232,0.30699116434008444,0.40653844639442993,0.476770759373524,0.46979597357333946,0.47882448048250503,0.5766660121862663,0.6793399616905524,0.7658015008092394,0.8192154559446341,0.8265666232039066,MI
0.511828345491691,0.5687997944604972,0.6254866184258658,0.6775801494790701,0.7278267370501508,0.7422498772735586,0.718159660660203,0.7089142423232728,0.7380374429249625,0.7797383021563868,0.770087204185413,0.6958774809403185,0.6061585728949621,0.5273045226529767,0.452630889289376,0.3713194819014003,0.28523283228125473,0.1998391530530903,0.16415639831646167,0.2314606915226296,0.3187750806485641,0.4090307356075973,0.5023910820600908,0.5916051073272872,0.6801842726362022,0.768983313532656,0.8500520610162143,0.9172153444523989,0.9221055957890969,0.863520003017171,0.8104736410025575,0.7724290756891705,0.7508459747077478,0.7241711521251863,0.712798589745836,0.7403286358901311,0.7762884416706228,0.7839995730181997,0.7622564520577055,0.755851979797409,0.7926741165494706,0.8265669319586342,0.8016300709082065,0.7206979021022601,0.6297328581995243,0.5384354495561059,0.45145356082645893,0.35883370035132534,0.2756623643321032,0.20423806503119768,0.17180546083040837,0.23571107994190132,0.3271106654149549,0.41685897231944,0.5050339667047723,0.5983138092781328,0.6918177424136924,0.7845079177479537,0.8695325866833556,0.9458084525070938,0.9696739646626593,0.913391288430468,0.8526473283212395,0.8040621003449806,0.7634908670802283,0.7232025736739394,0.6865022371245408,0.644722270770911,0.64198266284306,0.6772301562303269,0.686733294417827,0.643387268610744,0.5950013907190213,0.5710628776833133,0.6047338686537962,0.6426481306126406,0.6437051298857497,0.5765423939724632,0.502310453778561,0.42856147856948135,0.3377798435037749,0.24724863713325562,0.15976492701915535,0.06976164906581372,0.0,0.02470340925231307,0.11100630215797047,0.1981436086865871,0.291112985432745,0.38402400475491194,0.4710817703633028,0.5622730866397319,0.654888854183034,0.7410695746740845,0.8234414730330055,0.8801806740332612,0.8505498518881678,0.7912851208036908,0.7580787610203767,0.7398783523059187,0.710952322171789,0.6851900558121102,0.6968571375565114,0.7391893015158235,0.7698237065052853,0.7425420930696747,0.7260746205056314,0.7566728409090582,0.8052862556291156,0.8289081782232568,0.7767257999084323,0.6908593892543109,0.5991961727252324,0.5125419453096376,0.4206064817016322,0.333083332894097,0.244403897427397,0.19937357536632272,0.2583150093423088,0.34790317324643616,0.43476372752622683,0.5274779560118861,0.617701897293315,0.7054286086139807,0.7952911840302157,0.8780240785455844,0.9487897456058507,0.9514861278363402,0.8909509278679413,0.8353041873420843,0.790839562098711,0.7569303665186731,0.726777412244495,0.7209211890020781,0.7477846126047134,0.7902107816450317,0.8236096039509861,0.8485233625870949,0.8296378434675966,0.785335765181695,0.7516875182396563,0.7516585005928735,0.7838640137632396,0.817915386444831,0.8630633026969439,0.9203803504764114,0.9833137819522744,0.9906988691913905,0.9365776026211079,0.8603795718304037,0.7748378959894415,0.6874686093838243,0.5972749306862932,0.5040974397027198,0.4387419800009573,0.4925182747883421,0.5829609625007861,0.6700901318684132,0.7629435363546084,0.8444037835148872,0.8605453956843132,0.8358504104613955,0.7879543766096129,0.7578759481702131,0.7870560946897909,0.8046855022100847,0.770295239684722,0.7273238671286382,0.7204293333643959,0.7493890081933712,0.7723913055682035,0.7937602023723791,0.8463495649157688,0.9075323242899238,0.9212157993223038,0.881280819863514,0.8051723066774887,0.7222489484558778,0.6311544730148329,0.5376675959797768,0.44416216165794764,0.3506670823419169,0.2633379717473936,0.2625840190955835,0.3452136174573608,0.4377467827140389,0.5246634101678576,0.6149903577078659,0.6885207381467497,0.6890095074074591,0.6583114031637747,0.6195695819126164,0.625729996344472,0.6743545835550866,0.7190993155713845,0.7225186723317583,0.6830524363868831,0.6687345267713218,0.7073282153974403,0.7427570485870649,0.7841729270807423,0.8228456914767932,0.8730354339800499,0.9351734802082161,0.9920930150063794,1.0,0.939549224817267,0.8569638307894363,0.7707521372674966,0.6840964048191323,0.591771567618282,0.504314160141085,0.4154015308740957,0.3821782690982807,0.4602072662261085,0.5514548335950527,0.638429523364856,0.7296994259938998,0.8140361185975691,0.8614667858237404,0.8517728462642806,0.8144257937416965,0.7892900385885198,0.8036659906499197,0.8184286511682004,0.8067597737187846,0.7685259396934621,0.7406864214672253,0.7569555762747378,0.7814188153609001,0.8062806736430466,0.8502833550885935,0.9110250085894516,0.9659854465062532,0.960458334937379,0.90601896857134,0.8285146639449144,0.738180033734601,0.6503818414271791,0.5602238778005675,0.46770437281878396,0.4211090745359123,0.49162824867323573,0.5825502461416263,0.6695327254716328,0.7572591471873564,0.8192461269272748,0.8195046791536689,0.7859508474220112,0.7489937202232537,0.7511667182918167,0.7714214356547642,0.7560203710511284,0.7105734587309847,0.6814553519260902,MI
0.8118694169665148,0.8320827857526871,0.8521118378826888,0.8458669652290953,0.8134932292275594,0.7788521472160923,0.7388178465420077,0.7009315033316614,0.6604918480086917,0.6271341898716631,0.609347001391157,0.6041943286976013,0.6042341392920219,0.6090194179915365,0.6160088039841258,0.6325043070035643,0.6341419647134798,0.6341432824824178,0.6341432824824178,0.6341432824824178,0.6343430919219659,0.63960265315455,0.6349556113417223,0.6341435631183954,0.6341432824824178,0.63340773321928,0.6244911312508128,0.6284668309394927,0.6197527370728695,0.6188739765239442,0.6100236856395109,0.6016575603057253,0.5731260062455732,0.539167337666095,0.530959544144733,0.5436327969662798,0.56349912746566,0.5842806388758448,0.595996535009355,0.6336195884260158,0.6096759132488998,0.5262683192916171,0.45062301807212757,0.3686977315739184,0.28274334139658297,0.19676782238269408,0.1109415588178102,0.03490135670706662,0.0,0.045218967803514865,0.12097342414965628,0.19894599570957383,0.28461262030884527,0.3633990286547495,0.4418132259536227,0.5238525685053563,0.5993194630236878,0.6839741409372162,0.7593923011656822,0.8353980195006359,0.833884802302999,0.7960358094114688,0.7843750197236172,0.7877159310056183,0.8051774234064784,0.8342921256712605,0.8621385266905803,0.8925229297150317,0.9184948637716661,0.9292134297645465,0.9039543944111101,0.8679187043973018,0.8248447713301292,0.7760420510056454,0.7321167896267391,0.6891311130571509,0.6476447540815133,0.6160324103017909,0.5928301530899631,0.5891067619797545,0.5835109931587139,0.5830817018409529,0.5890765910098423,0.5891560923007324,0.5891560923007324,0.5893133620194857,0.5963779451875104,0.5931187232457344,0.5892349971162738,0.5950320026772129,0.6038781122461758,0.6041073960100118,0.5987505356653124,0.591461698032349,0.6024708328346007,0.597362030006332,0.5772792307639709,0.5671515305384043,0.5565195748084713,0.5304953638193952,0.49792271703533775,0.48555225567501203,0.5033008680436586,0.5258781525569312,0.5534468409100257,0.5612911881988154,0.5932391587908388,0.6221419196026305,0.5550750185591014,0.48055742532120327,0.3967460750449643,0.3159927418293975,0.23946872492352833,0.16232119378150922,0.14295416690341578,0.2003546476810283,0.278302729913535,0.34806702448530613,0.41231055000983474,0.4883684279027669,0.5660442111245247,0.6404652679830622,0.7234867618325547,0.7929814348114852,0.798872364825534,0.754387696979383,0.7377451564206869,0.7294797596288043,0.7433699341848374,0.7604521533225332,0.7749946372054581,0.7917047852822572,0.8254582981488157,0.8273213143319342,0.8057882453060845,0.7908579294653886,0.77865564773658,0.7838843447044552,0.8127290781179153,0.8689972500807546,0.9431057260645033,0.9909429670376189,0.9650982202388989,0.8891690076113945,0.813949501278866,0.7316115081488079,0.6489603777989323,0.5742865131179817,0.5247999385306095,0.5868342748749398,0.6711225566712353,0.7298978788627166,0.7313897372020914,0.6720292111652935,0.6179292585169747,0.6027366812870207,0.5771454332748602,0.5509352255149267,0.5284600097532492,0.5447167690513153,0.5793246484246706,0.5973599584777554,0.6091867731471599,0.619981147695984,0.6383203070215187,0.6401392237505235,0.6401415745066426,0.6401415745066426,0.6401415745066426,0.6401112838844809,0.635810051436092,0.6333088574700834,0.639881270981685,0.6328223120761791,0.625277103366729,0.6251458444460809,0.6251458444460809,0.6251458444460809,0.6251458444460809,0.6254195545611987,0.6348425479909929,0.6550996491951642,0.68556535533234,0.7307024356890288,0.7724676011650042,0.8174617841148208,0.8613564442331136,0.9074986022034279,0.9430889279593164,0.9672475539685745,0.9678626238541637,0.9507476233854568,0.9253313034861246,0.8945594833256272,0.8631676229831915,0.8375587463544347,0.8256374366977939,0.8400032238353501,0.8772980843202509,0.9412343511321222,1.0,0.9874165522134914,0.914355114296252,0.8335217403873307,0.7572293942004249,0.6716812218272019,0.5910619562013206,0.514361780309192,0.4312012372211309,0.38024903368962937,0.4330275532308794,0.516585388046833,0.5911059363769797,0.6727516764124668,0.7412967890909434,0.7622752552963274,0.7088896198444794,0.6443082989406266,0.6239200051869807,0.6078063682994133,0.5935524862277539,0.5830796713124506,0.6040532580119224,0.6384270452129255,0.6534196918715498,0.6551349538110856,0.6555519746633633,0.665356224106505,0.6700966361485321,0.6701330346277667,0.6701330346277667,0.6702359192117284,0.6771469038620817,0.6849624556508171,0.6851126516827626,0.6813077341412566,0.6710254946496632,0.6787818115167537,0.6849950728594094,0.6792526224821267,0.6696097402197965,0.6584653403833003,0.648803384739379,0.6406256830948922,0.6496439554521527,0.6704668342927906,0.7081162545591106,0.7468022066240265,0.7824012911500566,0.8262128949197884,0.8592208176603653,0.8882693549200642,0.8943583040253897,0.8826276112921616,0.8624764516328489,MI
0.8350103234201047,0.8554567487347489,0.8600557636291526,0.8723130251161622,0.8845351556662286,0.8935766269800971,0.889751128385224,0.8797826618442983,0.8998298996649823,0.9103735200101668,0.8798279640292421,0.8110836573408464,0.7417005176337101,0.6676915250988678,0.5936031328682965,0.5240995012690188,0.4513647001077708,0.37682809041941084,0.3031433675773008,0.23393720541135382,0.16050816138583518,0.08596611649660724,0.01492172407780551,0.0,0.06251881863909503,0.13195469556060596,0.20463212723828877,0.2791694274793944,0.3536422041189549,0.4248599734890955,0.49560567742253575,0.57003548087794,0.6444756165042473,0.7153460902985267,0.7858934661324486,0.8545339654402606,0.9159416441638637,0.9519707475208947,0.9510544694882932,0.9259528766862608,0.8825489797175055,0.8340691735925341,0.7842105505347476,0.7429702352211511,0.7405145268874174,0.7782774847686622,0.8286595025282755,0.8701468010859619,0.8836990845056374,0.8908615930449892,0.9021649063166344,0.9116649889776147,0.9047831925575047,0.8883028215946389,0.9023467565441072,0.92468877153931,0.9205046411012356,0.8689171662716242,0.7993536933566789,0.7274858027446507,0.653928952554512,0.5847313864525194,0.5112076392151748,0.4366680967517496,0.36370191840502003,0.2943321517946675,0.2203443890540709,0.14607595955439823,0.07647428839309689,0.024262232174091958,0.05578026816513615,0.12478460389236645,0.19626636739517705,0.27075574846659406,0.34451614489816,0.41374294239299264,0.4870760527427414,0.5616237855632544,0.636176756366011,0.7107297271687678,0.785159818832621,0.8557049390761575,0.9187157681068068,0.9597730737945565,0.9784132498625657,0.9640435738540547,0.9241920241672412,0.8785140402260483,0.8305865393879195,0.7911458617348135,0.7872262567052817,0.8256022819352729,0.8751263953548565,0.916997468248606,0.9338121030645374,0.9286706908305746,0.9222384251435152,0.9178381296808495,0.9116810123638666,0.8916127136972618,0.8821264418778185,0.8955601538337057,0.8904451391978607,0.8510871113497784,0.7814100895440799,0.7117546690946364,0.639323790650532,0.5647925748941294,0.4902396040913736,0.41568663328861627,0.3411338777136917,0.26694321073303023,0.19725255790324664,0.12481365928317667,0.05240813737038891,0.0033881600403509182,0.033772575060663224,0.10527533125993688,0.17457533060980118,0.24766277354090732,0.32220734802781764,0.39663027607925044,0.4673512204709928,0.5385971302582984,0.6129795716311175,0.6840132336283382,0.7539015226735042,0.8227333407543151,0.8812004246307465,0.8934251832791684,0.8749032024952244,0.834645384161512,0.7889744814439137,0.7410646170848669,0.6947310903869697,0.6710353023127826,0.6957545991968823,0.7412072106602177,0.7932309130260726,0.8408310955904208,0.8686990438804114,0.8817863746566983,0.8983165892802087,0.8919296263899741,0.8630342609247219,0.8178735275025453,0.7680544545804695,0.7198506132217817,0.7015974609701159,0.7384832595826105,0.7885705463112869,0.8346840268282119,0.8785958936973837,0.9118922835933914,0.9199443771950386,0.8984539850870459,0.8415713586560989,0.7734630467092851,0.703508439025641,0.632654642729225,0.5601484313631209,0.4905667621280923,0.4165111571435723,0.3559564997536329,0.38614881582609056,0.45961205024831325,0.5329190830097132,0.6021542160817122,0.6758737373723813,0.7474049295376439,0.8176516133953651,0.8861584128507749,0.9230656791645107,0.9267657127673974,0.9197058886323655,0.9108272387866179,0.9315039080989105,0.9444892268498102,0.9449277563044247,0.9507072880632115,0.9608080421827216,0.9505496827649149,0.9150236591348133,0.8660646304568511,0.8241694054057711,0.8274026717059089,0.8707004442679545,0.9177470852168264,0.9633254806981089,0.993125271398694,0.9999999999999998,0.9802596077690593,0.9405013700474243,0.8768195899203997,0.8075165957507673,0.7380068672818743,0.6656797847327334,0.5911768643847264,0.5189530474681587,0.46042021750787404,0.48479573654623825,0.5577852664439817,0.6309406876176109,0.7002240874369317,0.773769144972845,0.8435030535066215,0.9140251911588271,0.9562284089774737,0.954007630055304,0.9439766569238865,0.9183654392521465,0.9215899060472399,0.9338094474583889,0.9291766494125695,0.9183671633079711,0.9071503946929711,0.9001367452345759,0.8819217991883812,0.8386313055566181,0.7893879518142644,0.7656137765470878,0.7970754488632088,0.8475928252964737,0.8970868249776647,0.9405110742045697,0.966893177049952,0.9777060954127355,0.9601136252249907,0.9175921850491235,0.8531437748655253,0.7831985130474863,0.713998881370489,0.6409784081325567,0.5667368503063921,0.49687051086594897,0.4261824730644695,0.401881235545748,0.46502313332209305,0.5395076518919761,0.6119319577858247,0.6816460604485843,0.7558419997154016,0.8303781826804535,0.9025408948466092,0.9474583806180161,0.9392722989584825,0.9272936939859138,0.9079093170420514,0.9171941753333208,0.915347159059364,0.9095377282955799,0.8970667028315136,0.8864467311430728,0.8814104562259435,0.8720904347388581,MI
