0,1,2,3,4,5,6,7,8,9,10,11,12,13,14,15,16,17,18,19,20,21,22,23,24,25,26,27,28,29,30,31,32,33,34,35,36,37,38,39,40,41,42,43,44,45,46,47,48,49,50,51,52,53,54,55,56,57,58,59,60,61,62,63,64,65,66,67,68,69,70,71,72,73,74,75,76,77,78,79,80,81,82,83,84,85,86,87,88,89,90,91,92,93,94,95,96,97,98,99,100,101,102,103,104,105,106,107,108,109,110,111,112,113,114,115,116,117,118,119,120,121,122,123,124,125,126,127,128,129,130,131,132,133,134,135,136,137,138,139,140,141,142,143,144,145,146,147,148,149,150,151,152,153,154,155,156,157,158,159,160,161,162,163,164,165,166,167,168,169,170,171,172,173,174,175,176,177,178,179,180,181,182,183,184,185,186,187,188,189,190,191,192,193,194,195,196,197,198,199,200,201,202,203,204,205,206,207,208,209,210,211,212,213,214,215,216,217,218,219,220,221,222,223,224,225,226,227,228,229,230,231,232,233,234,235,236,237,238,239,240,241,242,243,244,245,246,247,248,249,250,251,252,253,254,Target
0.43418574591263615,0.4929228910790553,0.55979471401959,0.6356415173074208,0.72541385655792,0.8170522856854074,0.9041769848785128,0.9413236009024948,0.8758491259255792,0.7774038295743748,0.7048682123422092,0.6762125951143452,0.6649405373052126,0.6621397056898901,0.6417018963383383,0.6102575287078988,0.5972196883578922,0.6069557942156736,0.6451731140390471,0.6588869536206399,0.6549234765710847,0.6611497193472606,0.6590941799057315,0.6557221437595617,0.6321982991903197,0.6024175613713811,0.5687020708643364,0.5131116491240453,0.44803853536165517,0.3801976909408251,0.3116553449329744,0.23922299846533224,0.17433582182818919,0.11883653725783416,0.09988441356236621,0.14589840505804252,0.2060690922273103,0.27256364430801105,0.3355956552069579,0.38711540914544806,0.44295920163494773,0.5158474991620208,0.5910358309352535,0.6639392719086927,0.7447364250346353,0.8353771797909968,0.9249068902353115,0.9999999999999998,0.9869344300475229,0.9001743122410615,0.8094601208083418,0.7181976554875622,0.6661327866315225,0.6629114323664271,0.6571526820314906,0.6506956078536679,0.620226720965247,0.5863278668069067,0.600130048257997,0.6586241133345172,0.6802063259297275,0.6677548778218496,0.6523357205314924,0.6272409590880941,0.5979792931728263,0.5431254489064952,0.483346917560741,0.4206569972074392,0.35369837604414145,0.28341079089529475,0.21620843583917138,0.15279233854647756,0.11529934214551929,0.14416716997632206,0.2034772664536011,0.26789482304030865,0.32942309945357207,0.38480543692668623,0.43842001563898214,0.5075427769311853,0.5755842679742964,0.6488321648735031,0.7345229793612431,0.8182334097651471,0.8589859667273025,0.8027932810226621,0.7276828131356197,0.6479199548316117,0.6384895175161469,0.6494268579626608,0.6421837998017936,0.6437344457479564,0.6127935967329698,0.5760711705927022,0.5660081109128845,0.6046664359722389,0.6345703585117961,0.6346929815742588,0.6388395000356375,0.6257732603972956,0.6017612198404187,0.5718414198617177,0.5391614213753899,0.48216146636374346,0.4148522381709123,0.35260169677336717,0.28487428036697504,0.21319506483003114,0.1409003065839305,0.07851352187299732,0.04919098400062727,0.09653052146199537,0.15551032651210184,0.21732896529065293,0.28100875824489235,0.33910916266938096,0.3934273674652575,0.4509289559195466,0.518599930550202,0.5863309085173982,0.6628705254024332,0.7391565951428805,0.8198352874279176,0.8209693206936828,0.7359755364285141,0.6558754345669227,0.6357776277795095,0.6342185621801824,0.6268514372816403,0.6009895733069037,0.5657058336784828,0.5599950591063572,0.542317471311413,0.49760879928830026,0.5038721386057328,0.5509545287832014,0.5760901835454748,0.5824493787173639,0.573058616272782,0.5474678913368527,0.5409404463318233,0.613023981061015,0.5899060439341193,0.5188278731975051,0.45751369999381697,0.39261828789470177,0.33245764562424784,0.2817431261264598,0.22020702712296658,0.1550012771418836,0.09266186315204061,0.03343802244559768,0.0,0.01381617193837048,0.0698204064776542,0.13902771141749493,0.20771504237536775,0.27612779371002083,0.3424966196324599,0.41139679020176545,0.4768470196797867,0.5205974078730542,0.5513040538807974,0.5754276215430065,0.5830617720530198,0.5806130159266101,0.5833956555650512,0.5625933401552452,0.52010717617647,0.49822073935586597,0.5197466741478756,0.559562119064035,0.5905257486862807,0.5871456695450636,0.57949658920764,0.5362875378962857,0.47527872893302736,0.497203439971299,0.5882085138818629,0.6163420666216279,0.5522824890558022,0.4856133440067014,0.4217632249309331,0.362351462601777,0.3067332002015968,0.24629293385640527,0.18337944514979987,0.1169314617113848,0.06779374758502366,0.06449629327689421,0.10434722191810364,0.16554478752882806,0.23688135866088422,0.30713191232978754,0.3701101185082567,0.4329458159013899,0.4984768537226947,0.5543990364051592,0.5825385517644739,0.6003725856999707,0.6208960582858121,0.6269245684224731,0.5799907713649326,0.5427921585265485,0.5406982736509167,0.5756243276545241,0.6037993324915141,0.6098358902391212,0.6126578584796778,0.5805531369144965,0.6114748220707147,0.678361351796321,0.7680432604172698,0.7647116504387148,0.680363120958926,0.6053204271569779,0.5332389990434636,0.462333773255043,0.39624238297394965,0.3346894086540042,0.2829022157177772,0.22290327239670327,0.1543386014889112,0.09640400864495069,0.05072172706399947,0.0482340337207694,0.09334996705839305,0.152885698353314,0.22618815995091013,0.29338440198521787,0.3603351826541876,0.4279841455348452,0.49365768436255997,0.5458793343028872,0.5722565527324381,0.597670617714513,0.6022927101814364,0.6075094532806709,0.6080063162978357,0.6045551982368618,0.573575827593445,0.5495500476356436,0.5390669752172041,0.5589583991029696,0.5966887074948681,0.6149880882904213,0.6078750217090934,0.6109709823789784,0.642004528389956,0.6857492796157414,0.6208942289186858,0.5463484241540575,0.4839226725586905,0.4182952226097727,0.3661684312783493,MI
0.43231309065358525,0.48962194831231587,0.5808103581130286,0.6765025075905791,0.7637415772158622,0.865487310463743,0.956098227769957,0.9550658178220099,0.8630316350042557,0.7464887580579962,0.6361065628009346,0.5290209241511552,0.42326874822316674,0.3299933924888103,0.2991613175378145,0.35827158552098526,0.391230035145695,0.3734154882328653,0.37635226613635764,0.3556108456864182,0.34054140037273095,0.3554499063385683,0.30536122704707935,0.28443720773416326,0.29432258605881234,0.3256937190543927,0.32268090434069485,0.31727265521065684,0.32308136235503904,0.3081136804107998,0.28578460147973983,0.29985604333612415,0.30114560958280423,0.2979281658410686,0.2902363855851342,0.28034727362717593,0.2628866793704643,0.2410131919704308,0.26453432912843056,0.30984023681756057,0.34503812613883955,0.3769680653284895,0.4021414313066036,0.4138356514020023,0.40944057150831314,0.3721294705531486,0.35342123792013647,0.3951969367436572,0.49239879557641286,0.5845898478645535,0.6787575231157525,0.7710482833328243,0.8666879272464691,0.8879518584304553,0.8025736647493464,0.6959569940087027,0.5864369150843851,0.4800508801690557,0.3686217728411316,0.2587696855468695,0.15866304799886288,0.1605791784020627,0.22582684817833432,0.2224482301149786,0.21574163634458898,0.2220469641273417,0.22454916386667723,0.24131716332176856,0.23527874254464232,0.19510065777423868,0.18297311137831107,0.2082828707764488,0.21046995760574427,0.2218731778064318,0.23836562502252834,0.22846381409441419,0.20649386986869978,0.1866270367698748,0.1940720312782993,0.1800408453994149,0.14127281926964264,0.12293652493636653,0.13534369558637982,0.1813575640918157,0.2177601810140617,0.23612398407489055,0.2605544434939775,0.30184646644493585,0.3445202828984031,0.3865465639753425,0.4110641763365428,0.40012800179529817,0.39049254960801694,0.3730518572284933,0.3983158865448506,0.48080110927774733,0.5777988524516959,0.6755026133573527,0.7757390044202337,0.8742191165519202,0.9686005580335779,1.0,0.9234666550307176,0.819264664170718,0.7143556431866238,0.6016390700383476,0.49320151678385704,0.3841492905046473,0.28452057575727263,0.2918152735389765,0.3569764359509051,0.40421454965439096,0.4429892026346405,0.45335894063394644,0.45142008106785614,0.4475670192200445,0.4322291747370346,0.37616587034455673,0.3259813867324177,0.3303496075138015,0.36004971076028625,0.3629816129033827,0.3501252866311999,0.3688453029193335,0.36789200368513564,0.3646014731282947,0.3513889048713712,0.33268839110733817,0.3169846676525343,0.27220332473850606,0.25530048529201244,0.26913075199184755,0.29029141288578764,0.31069018417332295,0.30161047049089174,0.2844238873408025,0.2832527705546801,0.2904734973737284,0.26483158996644374,0.236748154146305,0.2710808728670071,0.31673194018368633,0.364836999685914,0.37367116143604484,0.36875710372781123,0.3709999520898073,0.33708638572600336,0.27291723207994645,0.1774712673591079,0.09254843946509439,0.08413018964020047,0.16732015889579044,0.26868896323638713,0.3791771224017575,0.4830888406637759,0.5988093630860272,0.7165629946316696,0.7947125220702889,0.7301954448818795,0.6295159261109258,0.5308170184846288,0.4387399348551755,0.3590456702683906,0.30319569241003963,0.29303476582801746,0.31212833490946723,0.322055354583652,0.3336162848180031,0.29593449910293845,0.2488318981421509,0.20590462363944528,0.17679166850962513,0.15525285838712222,0.13171977454625328,0.08637597348089177,0.03861185600604644,0.03774046227315697,0.0634408419967194,0.0934839627100219,0.12098756397332888,0.125606692279161,0.12165898876456893,0.1399635812631681,0.15798604542222794,0.175429087098796,0.15126974874414367,0.1422850434095042,0.13366989359381032,0.09419996515184215,0.11150314162305275,0.14403896612277256,0.17227550975779016,0.1531411956369686,0.15181795534958953,0.15218463206613464,0.15807616391774193,0.10677198605188076,0.02063293422152146,0.0,0.07506264394414419,0.185876293497091,0.3037813915645349,0.4129099861857002,0.521650700448582,0.633068035464563,0.6795282025978904,0.6044482345384354,0.5113151313248498,0.4194641004379074,0.33578578576676055,0.28747353420561295,0.27595432588089075,0.3129930395013245,0.34653958930085693,0.337166668745696,0.31603583811455804,0.28516510975961573,0.25964786501607273,0.21816935173017304,0.1794293966444278,0.17607839138996795,0.19360982789682035,0.2177183277307444,0.21452065081894522,0.22599901496540564,0.22571395414102646,0.21761668050151028,0.234462120340035,0.2492962540644572,0.25399883301932125,0.24604220916148423,0.25501178755201526,0.23255092130634392,0.20695722276567352,0.20816946513444456,0.25352843358101484,0.2681023992373417,0.2819494634271664,0.3003734182286397,0.3064386793874996,0.2963277038064924,0.2142111285081998,0.12674640690019068,0.09168772301614636,0.1649982317676102,0.2782207505132135,0.3882934274902303,0.4955956005191706,0.6014251312339982,0.6970106661161846,0.6718584931178992,0.5793403501407437,0.4917529240043921,0.4116720254532784,0.3621043469793186,MI
0.43231309065358525,0.48962194831231587,0.5808103581130286,0.6765025075905791,0.7637415772158622,0.865487310463743,0.956098227769957,0.9550658178220099,0.8630316350042557,0.7464887580579962,0.6361065628009346,0.5290209241511552,0.42326874822316674,0.3299933924888103,0.2991613175378145,0.35827158552098526,0.391230035145695,0.3734154882328653,0.37635226613635764,0.3556108456864182,0.34054140037273095,0.3554499063385683,0.30536122704707935,0.28443720773416326,0.29432258605881234,0.3256937190543927,0.32268090434069485,0.31727265521065684,0.32308136235503904,0.3081136804107998,0.28578460147973983,0.29985604333612415,0.30114560958280423,0.2979281658410686,0.2902363855851342,0.28034727362717593,0.2628866793704643,0.2410131919704308,0.26453432912843056,0.30984023681756057,0.34503812613883955,0.3769680653284895,0.4021414313066036,0.4138356514020023,0.40944057150831314,0.3721294705531486,0.35342123792013647,0.3951969367436572,0.49239879557641286,0.5845898478645535,0.6787575231157525,0.7710482833328243,0.8666879272464691,0.8879518584304553,0.8025736647493464,0.6959569940087027,0.5864369150843851,0.4800508801690557,0.3686217728411316,0.2587696855468695,0.15866304799886288,0.1605791784020627,0.22582684817833432,0.2224482301149786,0.21574163634458898,0.2220469641273417,0.22454916386667723,0.24131716332176856,0.23527874254464232,0.19510065777423868,0.18297311137831107,0.2082828707764488,0.21046995760574427,0.2218731778064318,0.23836562502252834,0.22846381409441419,0.20649386986869978,0.1866270367698748,0.1940720312782993,0.1800408453994149,0.14127281926964264,0.12293652493636653,0.13534369558637982,0.1813575640918157,0.2177601810140617,0.23612398407489055,0.2605544434939775,0.30184646644493585,0.3445202828984031,0.3865465639753425,0.4110641763365428,0.40012800179529817,0.39049254960801694,0.3730518572284933,0.3983158865448506,0.48080110927774733,0.5777988524516959,0.6755026133573527,0.7757390044202337,0.8742191165519202,0.9686005580335779,1.0,0.9234666550307176,0.819264664170718,0.7143556431866238,0.6016390700383476,0.49320151678385704,0.3841492905046473,0.28452057575727263,0.2918152735389765,0.3569764359509051,0.40421454965439096,0.4429892026346405,0.45335894063394644,0.45142008106785614,0.4475670192200445,0.4322291747370346,0.37616587034455673,0.3259813867324177,0.3303496075138015,0.36004971076028625,0.3629816129033827,0.3501252866311999,0.3688453029193335,0.36789200368513564,0.3646014731282947,0.3513889048713712,0.33268839110733817,0.3169846676525343,0.27220332473850606,0.25530048529201244,0.26913075199184755,0.29029141288578764,0.31069018417332295,0.30161047049089174,0.2844238873408025,0.2832527705546801,0.2904734973737284,0.26483158996644374,0.236748154146305,0.2710808728670071,0.31673194018368633,0.364836999685914,0.37367116143604484,0.36875710372781123,0.3709999520898073,0.33708638572600336,0.27291723207994645,0.1774712673591079,0.09254843946509439,0.08413018964020047,0.16732015889579044,0.26868896323638713,0.3791771224017575,0.4830888406637759,0.5988093630860272,0.7165629946316696,0.7947125220702889,0.7301954448818795,0.6295159261109258,0.5308170184846288,0.4387399348551755,0.3590456702683906,0.30319569241003963,0.29303476582801746,0.31212833490946723,0.322055354583652,0.3336162848180031,0.29593449910293845,0.2488318981421509,0.20590462363944528,0.17679166850962513,0.15525285838712222,0.13171977454625328,0.08637597348089177,0.03861185600604644,0.03774046227315697,0.0634408419967194,0.0934839627100219,0.12098756397332888,0.125606692279161,0.12165898876456893,0.1399635812631681,0.15798604542222794,0.175429087098796,0.15126974874414367,0.1422850434095042,0.13366989359381032,0.09419996515184215,0.11150314162305275,0.14403896612277256,0.17227550975779016,0.1531411956369686,0.15181795534958953,0.15218463206613464,0.15807616391774193,0.10677198605188076,0.02063293422152146,0.0,0.07506264394414419,0.185876293497091,0.3037813915645349,0.4129099861857002,0.521650700448582,0.633068035464563,0.6795282025978904,0.6044482345384354,0.5113151313248498,0.4194641004379074,0.33578578576676055,0.28747353420561295,0.27595432588089075,0.3129930395013245,0.34653958930085693,0.337166668745696,0.31603583811455804,0.28516510975961573,0.25964786501607273,0.21816935173017304,0.1794293966444278,0.17607839138996795,0.19360982789682035,0.2177183277307444,0.21452065081894522,0.22599901496540564,0.22571395414102646,0.21761668050151028,0.234462120340035,0.2492962540644572,0.25399883301932125,0.24604220916148423,0.25501178755201526,0.23255092130634392,0.20695722276567352,0.20816946513444456,0.25352843358101484,0.2681023992373417,0.2819494634271664,0.3003734182286397,0.3064386793874996,0.2963277038064924,0.2142111285081998,0.12674640690019068,0.09168772301614636,0.1649982317676102,0.2782207505132135,0.3882934274902303,0.4955956005191706,0.6014251312339982,0.6970106661161846,0.6718584931178992,0.5793403501407437,0.4917529240043921,0.4116720254532784,0.3621043469793186,MI
0.8957615674855872,0.8338511269347575,0.7641283886431358,0.7218645102941887,0.7105831616232057,0.7116745838762868,0.6993992664602606,0.6777642362908984,0.6561861750433018,0.7001260854068452,0.739739113180137,0.7484634744200607,0.7684961703681381,0.7683272509688845,0.7544516743695131,0.7320762319988829,0.7151586323152999,0.7075662789554142,0.7021753347161357,0.69347487093115,0.6860205769775831,0.6929895534124166,0.700404056958944,0.7199605703985417,0.7224620386527483,0.6823839890474779,0.6341085493596168,0.5741475009992612,0.5181626165186808,0.4602987047074756,0.4052029665524819,0.3888069920247941,0.4189689301151256,0.4663230816761803,0.5034771517823171,0.5412006287736051,0.5746289112004479,0.6000259870042957,0.6130756034386522,0.5974115038978458,0.552404157689286,0.4881437275155054,0.41887254845969446,0.3498296469806421,0.2941218977990223,0.28481543904462114,0.35570942118795523,0.43796659927445525,0.5195640539059723,0.5934786438759976,0.6733537902806144,0.7532672728282375,0.8271421848540781,0.9030240519282202,0.9254988315948851,0.8668213184297566,0.7949902930723356,0.7281288683955172,0.6971194318392508,0.6869752677121412,0.6833468152213902,0.6797692119178969,0.6522766280097594,0.6295389096189667,0.6632329607477332,0.6734376013637768,0.6705302135214599,0.6710429299254017,0.6667493007702594,0.6615042169831784,0.6535345040924545,0.6497304615350852,0.6417391408318713,0.638544059800789,0.63745884273599,0.6288221903805586,0.63005769703471,0.6332554536533421,0.6381419414786185,0.6339152256795153,0.6037706903177216,0.5590667945579393,0.5042318419719394,0.44690381812254176,0.38673521952419376,0.346728549687519,0.36277957055806587,0.4138125414490821,0.4671156307414204,0.5241781971999222,0.591191729022364,0.6575918885880643,0.7037415542220309,0.7251069939329429,0.7332289127375948,0.7330653359623431,0.6986029979439459,0.6458465062151795,0.5815701686056252,0.5100484782566901,0.43929833776961025,0.36754090228061886,0.3256820390327879,0.3845337341936159,0.46671951238170184,0.548446355890928,0.6152187686330164,0.6795098662734456,0.7531800001561746,0.8208578341982453,0.9021030073880234,0.9747946427431793,1.0,0.9434483754670153,0.8709266972071883,0.801772212706449,0.7587998489415861,0.7370397429453224,0.7184879848578904,0.7139171236013659,0.7217886936381275,0.6912588029799633,0.7013420903046241,0.7271682898288447,0.7163597694567923,0.6986094917744547,0.6787935169822876,0.6581098703291555,0.6378393573056305,0.6480152158803951,0.6692755063884634,0.6831522487282453,0.6716993017899433,0.6388489479523414,0.6518222591284857,0.6714372614787283,0.6786818236108303,0.6927143653649477,0.7112537492477422,0.7343669701610227,0.7720520086582643,0.7610170923377626,0.6926687788544479,0.6105777337918026,0.5297217722819871,0.45612422054080337,0.375185367711417,0.2930566310860909,0.21737848789596703,0.14017440598375308,0.0861866745834261,0.12315393931951735,0.19649833205164047,0.2700163931210253,0.3451443666200411,0.41723895800802735,0.48654520839904336,0.5581989277523542,0.6252844790085079,0.6809778706196066,0.7020777966298439,0.6922352226748223,0.6672109814382892,0.6117452380323087,0.5391999039491557,0.47706793626400534,0.4235044080546999,0.3719261618266374,0.326869892123248,0.29936512802771387,0.31885985061390243,0.3715337814273112,0.428074147036404,0.48345148820039574,0.538749454215222,0.5840624094811724,0.6005974415290347,0.5985010652287344,0.5913015723931558,0.5839783307276598,0.594385161491344,0.5989352603217932,0.6054826372723283,0.6104773837796429,0.6157825744207883,0.6220905927464613,0.6276059684377489,0.6336972028466643,0.6338484683255357,0.6346795430678427,0.6323205498987141,0.5942404580333926,0.5818003152122304,0.6207130439626702,0.6446279118149247,0.6456905359788627,0.6517171548260297,0.6631150382356255,0.7008874639190776,0.7047216964528564,0.6285856825264386,0.5462365043930515,0.46387658849370506,0.3815166725943586,0.2991776300984439,0.22000216982702536,0.14561699193249722,0.06418579426416104,0.0,0.007663764505321913,0.07449275442507819,0.1471979120982676,0.22028755640601494,0.29531063561820936,0.3675464098144714,0.4411554754368876,0.5130747518473142,0.5610579778570604,0.5718248119086269,0.5508627099765444,0.5214103117154365,0.4827429225396429,0.44453940330625064,0.4014819579681532,0.35991938784597344,0.347118374314747,0.3807677456652441,0.43372020592730776,0.48985237667559756,0.5453655602342704,0.6058187157518116,0.6597065393174233,0.6815869251211117,0.6692297467923793,0.6560378642109701,0.6520981466866067,0.6501115879624164,0.6624085769350823,0.662982044864761,0.6730600673291782,0.6841422076164694,0.7057582836718419,0.7241886878116879,0.7217840250544754,0.7116914566368853,0.698109692084806,0.6505292010237453,0.604193805637077,0.6036044146454729,0.6459592303005013,0.6662007169162383,0.6706489178278388,0.6771471002418441,0.6872272313041594,0.7279969271299653,MI
0.45469366069818706,0.37815396053013206,0.2908658698644464,0.20816559336218154,0.14170139406614002,0.13840029853544777,0.20750630822043403,0.2796294799473802,0.3510385032855077,0.4178436901070941,0.4771894910300474,0.5216723798673781,0.5604278850849975,0.592266917230619,0.5446797966814749,0.5810350962687765,0.6774024192969961,0.7815904539088834,0.8713400546975123,0.8844359338771643,0.8067835211509857,0.7180483169154903,0.6597577657614582,0.6496790900101499,0.6431936466566128,0.6254290296227825,0.6237434913549649,0.6427005412325357,0.6505772339585745,0.6512070226171938,0.6608175452627654,0.6594711538876177,0.6675791333507446,0.6871403696664071,0.6830951901175273,0.6417588855694651,0.5755393454337181,0.4988562180926519,0.40994283098314943,0.32222798541102593,0.24171257299646154,0.16742322567663792,0.14725025352362575,0.20425811283139006,0.27233147909749644,0.34147668218432514,0.4056634619047772,0.45949463939448476,0.5025099090705392,0.5520809992922162,0.5872643925375587,0.5232876848739498,0.477971377985813,0.5538942741484307,0.6573688686292569,0.7574690658509193,0.8522553682333465,0.8771903145464455,0.8008561982429963,0.7058821729361804,0.6438995330814974,0.6277902350768487,0.5953449152883019,0.5592276971352295,0.5628684017518006,0.5756426055171611,0.5591913446772563,0.557166959673737,0.5614215078652172,0.5726814797557029,0.5846812353419728,0.5578466913737268,0.49451499771976737,0.4178469075020117,0.3369781030265826,0.2512202411935067,0.1653125725990061,0.08694762717724869,0.068360825106623,0.13529365337788213,0.21077435599795802,0.28241487418497413,0.3566212693892723,0.4295596187940989,0.48972027020863296,0.545878062252771,0.5960316540988702,0.6555194877375143,0.6467035599470017,0.6242431852654882,0.7119388828454056,0.8121715529693883,0.9143223855479587,1.0,0.989928926123611,0.9022804554093642,0.8106405489873323,0.7366598604497332,0.7124833612547805,0.6913724404699289,0.6729916250601242,0.6849175231635352,0.6971794480838494,0.696596594613732,0.6877759387221567,0.6856335602045602,0.6718182153176655,0.6745489152858726,0.676937591732536,0.6454886222210674,0.5808857316140088,0.5031208501915141,0.42132671751299355,0.34183827244285503,0.3094079168908077,0.3729508591303623,0.37771937635695263,0.3015210721237356,0.2002500870057533,0.1385849737157916,0.13704626413047416,0.20491940199598635,0.30726032144522075,0.379374112912648,0.3638390390051378,0.28677061272358695,0.23969430498752242,0.16968521772816714,0.10321880592432464,0.0858466693025628,0.13711146526951956,0.21124221773427654,0.20429496627259902,0.15923335775985503,0.18385106344866964,0.27832261606162323,0.370369451140218,0.4347748153527986,0.5205701285728441,0.5934298444577033,0.6336042764285224,0.6315697992598985,0.6350008993643881,0.6429168590334302,0.6479216348764907,0.6572351884705188,0.6497132899404736,0.6344728060737816,0.6255217402170623,0.646974549489578,0.6732103195757984,0.6833542832908877,0.7385113796166816,0.8080803400506777,0.7586175805663227,0.6546051919276885,0.5563675205720564,0.4500566792008236,0.34609026711015023,0.25763463937816544,0.2580808250471385,0.3457128372075944,0.4427264345472044,0.5293781258177752,0.5242099310535866,0.4685786538898582,0.41018839800383056,0.33877822395577284,0.2603651406433587,0.1889918266062649,0.11445844005601158,0.044817791187654166,0.0,0.032426663236165165,0.11023504118681227,0.19501474999342827,0.2753991598871701,0.35930112736117525,0.43642041113013974,0.5089241653524397,0.5393243214042989,0.525768830560192,0.5170021728623464,0.5154756679483716,0.5165496583212099,0.5299989762402433,0.5094084650519108,0.5010787604749689,0.5403968342596168,0.5804059189730997,0.595862473087001,0.6238865799439943,0.6822277298144508,0.6434203605326196,0.5406839897105336,0.4577039805837342,0.36090292084259556,0.25521409507252635,0.16334218443090376,0.14315759144777584,0.23124347603719864,0.33247015958417925,0.4303588978482047,0.4815426033658343,0.45214261340633355,0.4063227548238437,0.34507671232153436,0.2774127172959513,0.20696979197262433,0.14037042916376885,0.09348735428983868,0.10908366826671934,0.1736438631227042,0.25534911107790803,0.3419527498403081,0.4253656815829796,0.5074560307280396,0.5816087507133747,0.6362174674490424,0.645929688449566,0.6287637104148822,0.6252067621170903,0.6219689907206782,0.6093188742016169,0.6119339640675738,0.6023223570441876,0.5743759556556247,0.5722736867353264,0.5992811401523794,0.6129141761783123,0.6232657491867677,0.6842213467339762,0.731685588172212,0.65326904050427,0.5542443166432856,0.4505960384773213,0.3441161338061396,0.24609705306638463,0.1663147547503505,0.20208671396104005,0.29866726264603116,0.39607069682049856,0.4858340744687686,0.5018851306454049,0.465671333091521,0.4120113949737574,0.34742562346886374,0.2737642441010322,0.20198570275775296,0.13147544654883125,0.07809103971909348,0.0924413805140809,0.15761375532698718,0.23672115751568912,0.31254573193421,MI
0.6560135501772351,0.6474682274432655,0.669457010576477,0.6887729887126635,0.7007024020835129,0.70988664745538,0.7278764839069316,0.7340955370787663,0.7563005046908402,0.7969725397221028,0.8545636576572204,0.8896323020365076,0.8778410213575758,0.7987461019816617,0.7021669588919419,0.5939255537898713,0.4809098454888039,0.3787289391983695,0.26405121861447434,0.16389059302176756,0.10636444495488329,0.12230850311882024,0.1593956151407694,0.20158438431392378,0.2390375387726511,0.2626992588195485,0.27961855882242315,0.30383869211686454,0.3293398716210372,0.3301534232599552,0.2706031064475498,0.1976238506498751,0.23460138682952625,0.3379297499209275,0.4468072112017536,0.5542141191263377,0.6597590231472483,0.7456111822993337,0.730244595434216,0.6364301827084651,0.5421715222709755,0.47312766377720505,0.48347191222269936,0.49829497910142617,0.5042244784563548,0.5047225659944474,0.4969540554175982,0.505519930783429,0.5351042732215983,0.547073820426955,0.550763804436349,0.5477451612984154,0.5359766766303435,0.520628483275976,0.5088968827697182,0.49781435300409216,0.46826022485795127,0.40966288885064905,0.3468492655333604,0.29333752281788783,0.29438668298662707,0.3338330249233268,0.38263350054203027,0.433679719587579,0.4818860951293886,0.5289026296965456,0.5754981124114682,0.6149172288562434,0.6573339357163497,0.6707704797593168,0.6513534352560963,0.5789531238458676,0.5592938870940207,0.6474800781012187,0.7604637915468024,0.8626091026025335,0.9651570424769522,1.0,0.9268691252458785,0.8309142999133883,0.7703674946069632,0.7537352452287953,0.7379206777041847,0.7397136085887399,0.7264314628398463,0.7022407804449995,0.701655861832128,0.7169003591360101,0.7100727781447613,0.6979109538576123,0.6489720568032133,0.6195706959252831,0.611507526966895,0.5949311261735315,0.5838396311008256,0.561332949080577,0.5144489193666395,0.4440110193795648,0.37360954713810557,0.3101628281875328,0.2984305752263947,0.33076936142239566,0.3759940345194277,0.4154165243699781,0.4487772691390801,0.46064368635090736,0.4649996091452713,0.48489519175528706,0.4823951225710914,0.4321966473561605,0.3570260492738693,0.4043398565792491,0.5150644679948462,0.6172321281099356,0.7285813988709249,0.8234059511490033,0.8471936291648126,0.7757238318941435,0.6840347264824889,0.6621941392586739,0.6533314256194962,0.640591852924568,0.6310911341742496,0.6121533624835225,0.5900172525448024,0.6116004805497872,0.6301867474270102,0.6091657202756839,0.557787113873069,0.5349314363730566,0.5330510499365011,0.5199882161064817,0.5350645484089673,0.5492153394109605,0.572271598551318,0.5836672246352372,0.5707411017169925,0.5917025043200224,0.6499149937524304,0.598790611868806,0.49551744226889083,0.38604511144260023,0.2793390200026553,0.18272988184143024,0.14581974203712056,0.2115261755562452,0.3068921453723652,0.38325468508703864,0.4050092890210646,0.38651652280410875,0.3878291255436892,0.3904259260698777,0.3564309427225134,0.3174645685509403,0.2736236382833983,0.23370518177919752,0.2083875668180344,0.22938947246676467,0.2844416289177749,0.35259435543381823,0.4270912190734726,0.4733084269670953,0.49308863552598936,0.5088242750060763,0.5212544851630008,0.5373416548595884,0.5853542887261534,0.6217886377285979,0.627484924661557,0.622212230954017,0.6110463107901327,0.628400817951011,0.6434038076328172,0.6472534302110717,0.6690742676170762,0.6869691618662301,0.6949951622954482,0.7437174162292592,0.7711506238645764,0.6677506741323298,0.5562764453043854,0.4547275202789147,0.36551760251240806,0.36141754432054096,0.4433099817948354,0.5302620534511426,0.5809329778918024,0.5692854854740665,0.5290969614652794,0.4891646424946514,0.45258940744385123,0.3987598114744966,0.34552020406817974,0.29556380290114914,0.25148884879314437,0.21342824216983347,0.19485883053072683,0.2244701316379647,0.2777227844655754,0.3402518532261154,0.3992586734981476,0.420226949671191,0.43331499988108035,0.43993404192081176,0.4518092156959366,0.4459232568012861,0.4613200292190762,0.45544001051447003,0.4250771806993572,0.4250722874562407,0.42727284404477217,0.4281401993308971,0.42275414739842443,0.4168802739715254,0.4028569123574819,0.42873823791149235,0.48343156340166216,0.43119997064608473,0.3170763518518731,0.2139802235187518,0.10618181251352743,0.014590705353089817,0.0,0.07853855594351256,0.17307847672690313,0.24088985434976173,0.24053560670089436,0.21147927805924338,0.19848544861643092,0.17227985297178972,0.13688603827519108,0.1036460572083322,0.07638127323762367,0.04129914963351755,0.0339322079160751,0.06727075560121554,0.14221319588211623,0.24637597652772003,0.36264293527274916,0.47914341257722404,0.5915716999254701,0.6936254196122138,0.7854389821878298,0.7909715168085363,0.7430126373541648,0.6865594185111603,0.6602293927616656,0.6363225096678113,0.636923125830962,0.6222901074507443,0.6069587087844326,0.597802973239995,0.5752593253866745,0.5576545660397483,0.5835218674459615,MI
0.8001309969552883,0.7698936087378363,0.6971107326346786,0.5951526571832195,0.47934728494435985,0.36341286376267146,0.3545139152553438,0.4832850392522161,0.6234466483849825,0.7617864397962486,0.8762623947906638,0.8977278912691409,0.8420612000492347,0.7994473352820988,0.8205678976514692,0.8217244965278634,0.8129181410935811,0.7771670801040589,0.7670307884639782,0.7682934389070217,0.7515038507038407,0.7308916228493616,0.7030987923923928,0.6894943423752378,0.712015962149672,0.7329172232969272,0.7308684862032959,0.759908871401739,0.8096484322728612,0.8728214897722939,0.936412173885921,0.9671882290424025,0.9686301177296808,0.9360562949569471,0.8962205358791646,0.8609785358193105,0.8269354865675056,0.7890644829211415,0.7363281613749861,0.646885725321694,0.5218287703863607,0.3914087805247819,0.2947367516171848,0.3480382514930658,0.48487639390286885,0.6098706255457538,0.7394412701842685,0.8156752278141366,0.8365546554422036,0.7883890736342734,0.7685140232019005,0.7873997901000314,0.7827813600837885,0.7410313795962296,0.7456056627943868,0.7470162136103693,0.7269576641410347,0.686458287906238,0.6673480941853596,0.686229389901873,0.7129795719584999,0.7012890491181549,0.7286192064832706,0.7913820089624095,0.8451134144575811,0.9013906271048708,0.9640190838870084,0.9963409121518789,0.9713027838399118,0.9159677143781648,0.877387173813204,0.8384090283637597,0.8193034475773686,0.759408726994101,0.6711931801819522,0.5591283573119501,0.43681386972043157,0.3144478576616523,0.22579159862442566,0.29620058588283404,0.43431840273388245,0.5599640789926816,0.6929072621155057,0.8018409266435222,0.8575819164990537,0.8311366086172463,0.7996043204384193,0.8129988276035762,0.8262141880172145,0.8079517308102444,0.7968986449932398,0.8015513596944368,0.775538057135146,0.7610966642721118,0.7565023445422754,0.7821924407230667,0.7730615497172098,0.7882624175075752,0.8225167468908143,0.8799124179035025,0.9453588320104482,0.9827372676220385,1.0,0.9637316123348185,0.9156046218535008,0.8723510905706826,0.8356211591258131,0.8125175684330235,0.7764837276954122,0.705303347217562,0.5873336245659173,0.4643852002331541,0.34646191184923936,0.2701281612605819,0.36325282640999745,0.4856184839149891,0.590715757373462,0.6843560851412644,0.7776910570212543,0.8690301380216088,0.8706273913804288,0.8229422918319687,0.8058621282112912,0.8247605260315609,0.8298918015163479,0.7959359486937179,0.7541908372697197,0.7543725013936458,0.7529247233167147,0.7404381889017024,0.7462699195324927,0.6988107110905037,0.5744038572135142,0.4350846620223825,0.30836974798408034,0.17827614780756296,0.07720303711973742,0.08473237147004786,0.1797822815294805,0.3089968685189013,0.4317825238190047,0.5530958490312226,0.6619518550720702,0.7306069099435453,0.7608283479408877,0.7869154580388193,0.82700269288702,0.8703990045985885,0.9126576568945315,0.9189258030087761,0.8892917355180878,0.8268439775082141,0.7686811551492716,0.7283415140429241,0.7125374676623335,0.7049480846319915,0.696720977972531,0.682867047773291,0.6923332852894424,0.6887896394020516,0.7202711716193542,0.7077576855796153,0.7179876462888193,0.743452125436999,0.7471345781822372,0.7275483193299581,0.7102604184607277,0.7105698673701957,0.6411221814456876,0.5078950333425101,0.3826287742768,0.2482971815094861,0.10852050770483768,0.0017379781857198573,0.033783590960329235,0.13567518192192596,0.24755484516557447,0.36291971187551875,0.4863010737303135,0.6075747121762709,0.6995442288415963,0.7531627053426737,0.7567149933067485,0.8024450322120602,0.8434534897572479,0.8900865432008711,0.9005798942476995,0.845059060512162,0.7787952504510338,0.72843601201025,0.6647177654810026,0.6215890745166375,0.6273472545054917,0.6130190814822627,0.5970904539322679,0.6107897824804596,0.6461149839659539,0.6759153795447279,0.6831579194642381,0.6753689832384713,0.6676234382776092,0.7108262946246651,0.7057442851333326,0.7008179167568667,0.7290019443146778,0.6976533290728608,0.5695715495831797,0.43954951197589853,0.3105232642624509,0.1712417285951231,0.04989312311262051,0.0,0.07877248504712986,0.20539402229413906,0.3226737693184232,0.43552931234343717,0.5577540592675461,0.6661880371228732,0.731818414938783,0.7688416180820128,0.8010147642983498,0.8315034264372758,0.8721278119023812,0.9006309851033278,0.882837211257232,0.8280072022039682,0.7612117000854517,0.7121293885879232,0.6790017812616425,0.666956971103057,0.6569199740110587,0.6367582159423693,0.6328188182236327,0.652117033988743,0.6798156829152644,0.701340272955894,0.7128281750240357,0.6854273138900391,0.7181886484050115,0.7533439807136584,0.7533994362136349,0.7406747317303362,0.7506751088772252,0.7102035484983165,0.5787505023220456,0.4505018816599846,0.33334800866750003,0.23485925479218261,0.16689929122478508,0.22901809965701725,0.34424867631679534,0.46224607948499186,0.5796148209519871,0.6769623332109291,0.7325075917530381,MI
0.7964551913659075,0.879594874569912,0.9667354021852237,0.9940832544141647,0.9174871839490812,0.8268786911012147,0.7405795006952496,0.654612823320909,0.5620347141453941,0.4675643200876558,0.37578918615049917,0.28507845013715283,0.21533904522975233,0.24102991593191536,0.23941449399639247,0.19503583846126493,0.14940387258394905,0.18121002243499018,0.2023381853794608,0.1900760669325059,0.1753494790532295,0.17945586375268663,0.20726833039924575,0.2064392653931666,0.17588888037643247,0.18050040532283984,0.18679144677232773,0.18159467398231577,0.20463201481668913,0.25431601149129324,0.3325954296030478,0.4205306481178932,0.5109625962684992,0.6082331681525064,0.7000176413068373,0.7941394629236789,0.8843224080226602,0.9706724719424535,1.0,0.9297804165715,0.8337367702106842,0.736726771603605,0.6455542522286484,0.5486018019284375,0.45725467475393233,0.3646842019478307,0.2756461553128664,0.24062525061363038,0.23789980177376902,0.19875057417049113,0.18892982065415298,0.2325403293277566,0.2508693684813941,0.24043296459985974,0.2752662612418111,0.3207409000218333,0.32957656350853926,0.30993186349779145,0.2602725641335033,0.2374387348841498,0.22359688599821403,0.1981992868385385,0.20116035055916037,0.24105909530975955,0.3170278849212915,0.4103827661213786,0.5007422903584526,0.5772256274954524,0.6642372375790764,0.7541701057485288,0.8446174972741165,0.9336399600036289,0.9728697985624573,0.9026944102238801,0.8119522964549803,0.7154953006860829,0.6241104792247527,0.527602957014722,0.4288315311380968,0.33110940037258096,0.2412035089823381,0.19713284705788237,0.2301330285115406,0.21700630635399598,0.16216456737946694,0.13182009769885084,0.17660035213988134,0.19716350794466586,0.17415624209964364,0.14173828746664419,0.13275958329996507,0.1382570072097622,0.10502421348180246,0.054575306188465955,0.044985593007259794,0.06023146060241391,0.06777517850376391,0.09556393604787661,0.13426934630493625,0.21045076762675352,0.29932685538452053,0.3887370712395555,0.48082190970689753,0.5736635183525287,0.6645899418157217,0.7569209712672027,0.8482793897044147,0.9228261974881158,0.9020522147753627,0.8095824887211736,0.710827400218164,0.6127449435798207,0.5212870155245857,0.42595591326031457,0.33488423849651916,0.24248951755909753,0.1527238275807976,0.1314967228876096,0.17338424857030454,0.16748546470428427,0.13281951332602682,0.15486593062114662,0.20801181478583608,0.21750928386386015,0.19640149560212294,0.19287260756074276,0.21547447647380769,0.24827043994147568,0.24808437550243267,0.24088267290805754,0.2525504244011616,0.23078232150379563,0.20927878791332288,0.20234640461132058,0.21404766017695298,0.18541324916241964,0.1625285589529677,0.16297331008032812,0.18041671841138163,0.15488648307242547,0.09973287183971458,0.06912119474951361,0.10889372814248444,0.1290493664636183,0.06545392274402739,0.0,0.031392446305038346,0.11829296020211921,0.21635007303543352,0.31151977304426004,0.4038284230529623,0.49958856163750687,0.591157514333251,0.6745601830445103,0.6432116900387643,0.5534898547491758,0.4600411684233634,0.37003767983383207,0.2813627670745287,0.19476795228615273,0.1211411688527797,0.07567722539082067,0.04197373285089068,0.021867180935327912,0.02515006244251894,0.003082722527333992,0.017724947991385687,0.07008549124035834,0.0992146723676306,0.09437119538929095,0.10914120287112361,0.14288523338550552,0.1559870080621435,0.11724235233560742,0.08480542680333403,0.12143277250972861,0.180839043370278,0.17268099544931492,0.09470559691000124,0.05307482650548412,0.11893172838003041,0.2092619625220251,0.3001371047072323,0.39269098217244935,0.48649542860285333,0.579918097165363,0.6736451499309188,0.7515854384177634,0.7103847685922471,0.6204332969713486,0.5298153571984887,0.43853954442578935,0.35111693591952853,0.26733570323776745,0.19651288837149572,0.16410530309423055,0.1588414948867547,0.18481631065113358,0.2070723840891746,0.21231372063657128,0.2526157032868268,0.2902498138229279,0.2854253767686097,0.24321140187688517,0.20349524988964096,0.21072187075501514,0.19992430892488233,0.15457276071314396,0.12927886487901508,0.17421150100872462,0.2008210564176629,0.1412028844718345,0.06963253393063806,0.09310274768427851,0.17788293370454822,0.2718018102800086,0.362788486849803,0.4558315559265955,0.5486969524082865,0.6397628463952274,0.6643022671318435,0.5869964333885354,0.49753114460376446,0.4084577967624674,0.3187034700486515,0.23566355220152335,0.183886180735791,0.15290601073169863,0.14522901187698412,0.15254117739790507,0.1343679217281517,0.13943313704827198,0.17286996401666954,0.16103262056053813,0.1374599749515999,0.14203889016750004,0.15371232307913707,0.15993989910144757,0.12366382165742351,0.10030429779976102,0.1441997069615435,0.19696856461197165,0.1849031821716436,0.10558208757007037,0.06178732959975508,0.1180843208289164,0.20641135297119173,0.29690509667272735,0.3911131476187031,0.4825453566292195,0.579146612374879,0.6192480624736088,0.5420830715474296,0.4521931662938774,0.3694862058540431,MI
0.5631169086141634,0.6132883147638886,0.6566256621737692,0.6982131111964582,0.7483686565155292,0.7845810308573329,0.8137127332614327,0.8450700926544359,0.8311716504183826,0.8588941395643239,0.7998712954763887,0.7001776081173654,0.5762793730095002,0.461719326803542,0.41630230228017684,0.516853145707409,0.6197381227291014,0.7245463123944864,0.7614761344854708,0.651745596189583,0.6051892375060257,0.6230765198582526,0.6407037645169513,0.6032546470181739,0.6013941893181656,0.6593681499171211,0.6640906611711639,0.6815586128555049,0.646120924105178,0.6487495766176945,0.660948983446966,0.6631797174935636,0.6859628138813791,0.6856230609434544,0.6708477785038403,0.66878757655366,0.6494514685170092,0.6723748998704151,0.7173918791253264,0.7731369275756412,0.8265267047085016,0.8745351980766731,0.8746379234380708,0.8610478533855552,0.881267172147993,0.8944411952600158,0.8931126620115108,0.8340959395068133,0.8258632376071207,0.7686394052712844,0.6635722896507437,0.5601662352618728,0.44256962124783517,0.4262147662632527,0.5707433748013022,0.6830740158270538,0.797545733309641,0.8883383010131132,0.8376971862178566,0.7825201002736408,0.755224774467254,0.7743130300055796,0.7883751498608813,0.7001804047637261,0.6641197784272022,0.6989430586480943,0.6988796243796909,0.6774802422549406,0.6844499543354488,0.7530918726019245,0.7710970665582844,0.7769266282461791,0.7481834982844973,0.6579709427704481,0.5923727541135229,0.5635070824166757,0.5845080613930875,0.6565058999634887,0.7302070923058901,0.8138603502148181,0.8875632131619389,0.9384084571451687,0.9766593664095371,0.9945509180280032,1.0,0.9724588967486953,0.9227232302756958,0.826932137034512,0.7945418537933691,0.7734690180260531,0.6674088495864101,0.5551765703251119,0.44283812796638156,0.35069801594498173,0.42011591442243024,0.5419402964254703,0.64308621509816,0.7571999347410028,0.7856580247162555,0.7760966324204599,0.8039666731158253,0.7904783826116217,0.7785102027779356,0.7134036267695265,0.6930216307990795,0.7569057817128266,0.7877918559772832,0.7713053768377849,0.7500346683660855,0.738726303672232,0.7004194052018731,0.6869447256979937,0.6856521992044051,0.6808726254735129,0.6864881131770089,0.640940704837142,0.6200066155033834,0.6223124000128619,0.6793521507162072,0.7395267839083202,0.8056785757811413,0.8714566345167141,0.9149760514281269,0.9084418657272071,0.8461756294402658,0.772917946806138,0.7552292361725668,0.7353028533783581,0.6843646711594387,0.6101236091911231,0.5452458747100541,0.4852258770004383,0.4505899232380344,0.4643684934918646,0.5121040816022013,0.5237398967159281,0.537813072386272,0.5356530443482024,0.5772268069756503,0.5895140972143773,0.6112357072400085,0.6481419295191095,0.6269390509831707,0.578293554554425,0.540835896395869,0.5515889375607852,0.604588021976955,0.6449692397789795,0.6378507203069201,0.6124930635653474,0.5825314608225769,0.5249472211566442,0.40663818758561643,0.27103368965109187,0.13020363357138898,0.025478023617028,0.06417342890186184,0.21698197208281922,0.35574110400084624,0.4573888653855347,0.5668781965933434,0.615836204782668,0.6641403225877411,0.7561258332060392,0.8200801778455409,0.8361968999903207,0.8325094823222505,0.7964233604589506,0.7363017036144042,0.6521704634464864,0.5786870409517135,0.5060783551397083,0.43511780719594473,0.41094150444368704,0.4404668613321352,0.48136386358896655,0.5551241235003666,0.6231583587185856,0.6259746951900924,0.5966701528988949,0.5419343578175999,0.5269980684247342,0.5328106726732624,0.5464661336996102,0.5246039193442904,0.5091924033431932,0.5610961480478984,0.614761420171936,0.5948034779633291,0.6396391519647997,0.6723850361414412,0.6502259442091205,0.5586568607435183,0.4276009675454757,0.28668449506938476,0.13744419611663883,0.011498395269742723,0.032871968072989866,0.1639143569366146,0.3087762722443701,0.45307071419935596,0.55151030969565,0.6535792023105005,0.6488034730345538,0.6944061427802088,0.7428471938896042,0.7240307038248739,0.6816791413519168,0.7129639002073676,0.7217973112496079,0.6794746955017761,0.6581651886128723,0.5913351547880819,0.5506874668924775,0.5169784138101541,0.5015995714791295,0.5243311726868827,0.546144433268922,0.532861185190308,0.511880950964307,0.5195699420403459,0.5043710709608717,0.5194656824859729,0.5442923239700015,0.5261831231980896,0.4803934157685097,0.40526915984861045,0.425906079018044,0.49899888812042814,0.5029698931673554,0.47298888732895694,0.449635328922235,0.40389459988507603,0.43314257363489705,0.5086634756515886,0.43683567119800504,0.32436027683235213,0.2054834873482303,0.0621612503249267,0.0,0.08804065506115233,0.23105412384651736,0.38016202639074503,0.5155149016119207,0.6384117163336089,0.6786160397950036,0.6881316996326667,0.6832589869437928,0.6541323644798736,0.6374681211421054,0.6047896378787261,0.549600852845936,0.5104001117298669,0.4616084759856003,0.3998897960903225,MI
0.4276303632006564,0.43204546004721944,0.4732601943025987,0.4982729702984239,0.4993410172692152,0.5094829048143246,0.5257286145571647,0.5633973333427749,0.6576212675876536,0.7751857017173682,0.8871248118319706,0.8951587823094305,0.7994021179484228,0.6781752807760539,0.6092989047959021,0.5616897640903122,0.5580020718317287,0.5392194116147264,0.4773247137183554,0.4204977356817725,0.454199999653516,0.508397435986113,0.527168571000046,0.5353013618449829,0.5101010971142741,0.45097895723388604,0.40728887749223697,0.4342199818203105,0.46965280383101327,0.488578575023384,0.5096496047072638,0.5254824425678164,0.5476225151486567,0.5991160773266899,0.6996897152997121,0.8065890645047058,0.9224373911201607,1.0,0.9350267732387598,0.8082340496839264,0.6981092972497702,0.6145173986263845,0.5798813187179856,0.6093441798356007,0.5848421298067841,0.5276406350819518,0.47437114679234504,0.5116525590704737,0.5571331402412727,0.5613989998046613,0.5519005033049207,0.5226543777577337,0.4614589924111838,0.4257653016442693,0.45738137761274666,0.5032267028342887,0.5324463578961196,0.5562760928520647,0.5679679914828162,0.6100794786612616,0.6973778958151011,0.8125759034538178,0.9035525590664366,0.8574582614419688,0.7418352890433337,0.6240662877160172,0.5916923936631928,0.5866133527047963,0.5731646283230187,0.5166810849892602,0.4520136113093831,0.480320662208622,0.5433831131817062,0.5656447849001007,0.5759668175936326,0.5610364814074735,0.5131046271756619,0.4624150593247909,0.4479673625294134,0.4896524006534886,0.5311630246322556,0.5445895289400862,0.5664835037777998,0.597600385782826,0.6798327939863062,0.78447624359814,0.837668134850075,0.7719425778433537,0.6659158114034129,0.5960232292920371,0.5781776612737519,0.5679011450692415,0.5211574236468546,0.4593167014673547,0.4836322167598923,0.5480373185638152,0.5747249748650853,0.5688401288679765,0.5553848182570684,0.5107213860861757,0.46794375853459735,0.49570430182860026,0.5421205375677065,0.567133169856497,0.5907255757211995,0.6067311014488195,0.6563391831572365,0.7519486201299701,0.864760293578593,0.9250962037152877,0.8533122193949128,0.7324473116313936,0.6371618953442915,0.5875799688743566,0.5957746123487566,0.5825495512617298,0.5261862387536262,0.45952724677881784,0.46437801380891486,0.5250706890298207,0.5577971484311246,0.5575680800105225,0.5052580334260606,0.42717054327149295,0.4105810464388888,0.35680037431971545,0.24901808617438181,0.11799877250697177,0.012220644145657822,0.005795964609653037,0.09982232476775099,0.22455660632761543,0.2826787268881312,0.2104214388969483,0.08124813714690315,0.0,0.00029497126630317894,0.08241934611170487,0.21271419162080907,0.319644268160455,0.3750830676334531,0.43700021475948114,0.47074746111065213,0.46100494745564724,0.44836639798339517,0.3717264260099915,0.4123887579799339,0.5330889095388547,0.5899071998437146,0.5129127649959564,0.46671909822354873,0.44533845400260885,0.43061359646892816,0.3990860006886727,0.3512785108407499,0.3122690696625927,0.3318160226687743,0.38762498862004025,0.4304281081684356,0.440443562466851,0.43047355174151036,0.3835448404538755,0.31174366036162837,0.2818178520386345,0.3552335436008556,0.425515314005827,0.4573214568935362,0.4333798796835082,0.3833488658843871,0.41103162439702023,0.5223514305274968,0.6436859614885546,0.652253143317771,0.5481757226551638,0.4742232766578143,0.42371616793336964,0.4027922825756045,0.39144837244257413,0.3766304398786069,0.33641150174786016,0.3082535371334112,0.32304570571349167,0.38151947727265245,0.42060307131664665,0.4276104250952413,0.40245547796642,0.34823667597520735,0.3093897207623,0.3647522172088804,0.42187943189750277,0.45163933593185357,0.4245526606460861,0.45178411631575344,0.44736513814733625,0.5336199811840312,0.6377637584907965,0.6076871308823111,0.5247116880125606,0.44117288035254854,0.4116364238914767,0.3975103407283753,0.40372799862034325,0.3808854189033233,0.34465082185826246,0.30582865694108596,0.2910474026216341,0.3360495953216507,0.3860571404680777,0.4174186010348713,0.43030585157034595,0.40594016485257844,0.3506955011655859,0.343087353583706,0.4037498627764142,0.4632455767923185,0.47610789596239966,0.4680794015786125,0.42350141844402245,0.48728279843243083,0.6015968765288093,0.5842033376484808,0.4832261730984446,0.42337027636704017,0.3919605279744278,0.37131045587155986,0.3551710507698207,0.3338642003906602,0.291466736360408,0.27098279906641265,0.31133470220856685,0.3636301347028015,0.38706846122534033,0.3908069476397644,0.35951305316367543,0.2905114907523765,0.2823220138869602,0.35703264930730416,0.4147104761583802,0.44298900715683587,0.4136081311220865,0.4100198923145628,0.4533079034718881,0.5635372131111471,0.6848416557941861,0.6817207725940073,0.5685480833148908,0.4679155011121461,0.39757503037278896,0.3731189688478138,0.3677571454589117,0.36314181511767263,0.3566411258284439,0.32380322752906077,0.2944428236434531,0.3024203340365652,MI
0.7360287987884155,0.8116164347422257,0.8345391756025848,0.8284783707048615,0.8017586069532041,0.8083882435888348,0.8299395600168036,0.8009157702010348,0.8135853759491094,0.8334322822847855,0.8327399267442197,0.8561403006098831,0.8104221816018069,0.7281515477133111,0.6244882098218087,0.5507919081599417,0.5209259315669281,0.607335400949593,0.687300820670091,0.7817308178425706,0.8217201370009293,0.7982290522552078,0.8216183653925611,0.8037639328067709,0.7954978591712867,0.7794142128065622,0.7524329386733668,0.6577918577363993,0.5301789965350472,0.376841946178736,0.3152863179906644,0.45880344499309134,0.6148822620397918,0.7754003581184761,0.9040445774631523,0.9109147228375662,0.814531114709959,0.7608573639339551,0.6576401117638508,0.6094816035519668,0.667873384473928,0.7213261900454184,0.7520619066276608,0.7462291287500329,0.7609402813711728,0.7729190976263447,0.7921585148327428,0.7518740789126794,0.7564025312917297,0.7568546657882655,0.7729376443417553,0.7645916938683457,0.7571884651966525,0.755101382541961,0.6723579309707524,0.5651705937976783,0.47865982187746114,0.5131879319610957,0.6041154237149056,0.6845768519571931,0.7455832161196958,0.7407333767330768,0.7912931884496568,0.8120628050030336,0.858626139904143,0.8715116942050556,0.8361929191270101,0.7962205794630095,0.6883147355620722,0.5527148114991003,0.571332641174569,0.721494242700778,0.8689293967229967,0.9999999999999996,0.9970765527986214,0.8828305943259935,0.8045104271083532,0.712768968141154,0.6671904494472627,0.6864311413074282,0.7480488185936349,0.7409305764987413,0.7257805630573819,0.6981619828393746,0.6798825041302812,0.6473690959634593,0.6228132488036393,0.6252396361765276,0.6229806712951045,0.5897171652221602,0.5839449573136295,0.6260155343209122,0.6509061494687125,0.6392708105653582,0.6200708090198987,0.568980383323145,0.45968916133544946,0.47711462067719657,0.5549382390073601,0.649559513542576,0.6776271784207828,0.7023726888375452,0.7424234980359148,0.7414240100934282,0.7272523087623228,0.7668370550409667,0.7247348495719588,0.6938371280480653,0.6269287124450051,0.5198432185959381,0.5579414703466301,0.7098297590676599,0.8413273274039921,0.8603393039200449,0.7700833811495085,0.67969852640667,0.7195607911501196,0.6231060495519007,0.49829161194262683,0.4156375249864026,0.2471005274249598,0.07590473369173178,0.0,0.03964484505594701,0.18973472660962543,0.3660546367914268,0.4196267948074097,0.28641017466562024,0.13197830155331092,0.01965353177204321,0.03054260144447829,0.15583611169515477,0.2946857613203928,0.41949284959241107,0.3397290269641342,0.16148279724148917,0.027919352777807216,0.012048020841316287,0.1006485318268373,0.2758311528781352,0.4352231939769555,0.5056394154764008,0.5535632488747537,0.5432605260101808,0.5971673401150288,0.5771901728557087,0.5601433709456276,0.5467759253033369,0.56298390416918,0.5099509393641806,0.45610212830468244,0.36398930247966055,0.3172413606336244,0.3531271664632567,0.4696956291764809,0.49313442794021656,0.5021658384352921,0.5192684444739784,0.5079025254831264,0.45470774348908405,0.3867900336398473,0.4272883325530672,0.46955059560717105,0.48386494863536855,0.5030705298263167,0.533675148812994,0.5615800665891801,0.574837426213755,0.5776151096594604,0.591688881159667,0.614316225452312,0.570267288868266,0.4959760481164355,0.5220025252803269,0.5227539645808732,0.618834846533558,0.6737862785461926,0.7551142027968578,0.7329786665571834,0.5825296169628369,0.43888670958761766,0.29903783572985887,0.27760932242589753,0.3946186310720443,0.5516256237266899,0.6839503117159276,0.6909570762830985,0.6654303735709193,0.6942174926696363,0.6239557134976415,0.651757798128441,0.6268292850428847,0.6070889357496099,0.5587921971587,0.46605943446935116,0.3661392904703118,0.3354211326602776,0.3149357837047302,0.42119531861315407,0.5266411481096074,0.5726894175362118,0.584621879199132,0.6136011179283343,0.6330099422112787,0.6006315479755364,0.6388823517490896,0.5917690832098317,0.6220174426309382,0.6302340696234912,0.6541285638254766,0.6290558804416384,0.6328303469791563,0.589718367278603,0.5592958779243618,0.49252389437701316,0.4950032112901428,0.5626295941044055,0.6371214335651056,0.6976467487823448,0.7655546808532967,0.6534774987888015,0.4956673799544311,0.34248680851617763,0.19934453469164337,0.1308932618225933,0.23133609439830582,0.38635741858396333,0.53609124486553,0.6100592552759525,0.6323706703561878,0.6707018154470927,0.6453236533299331,0.6273863614448136,0.5731980709109092,0.6197966803317727,0.589639517262015,0.4991002458570519,0.4050864360719397,0.39401901540940587,0.43287857500798976,0.5388217840444498,0.6452455388155731,0.7057765015342965,0.6939664119343996,0.6917159526720202,0.6767125010854911,0.6474550864474522,0.658103628862468,0.6380951745171273,0.6342403743704499,0.6774791420705291,0.6467679835076487,0.6778064884981698,0.686481330624868,0.6061520458920513,MI
0.25700578407903674,0.18777785436360617,0.17224601206770007,0.24208697024138104,0.3477269465634434,0.47614508489463514,0.5968516896610598,0.7010102004879073,0.7938469021934589,0.8908495576034561,0.95582480897159,0.9867228699568358,1.0,0.9420934131192054,0.8823959215319919,0.8151362605399717,0.7658957838789728,0.7226345364548514,0.6709031443859033,0.6774638960753627,0.805946615444225,0.9270888871105551,0.8679220928178282,0.7125533963617503,0.537124287527063,0.3754343285976258,0.2943143020305561,0.3376952154431079,0.3537686224417058,0.3849009330283568,0.4322414784184092,0.4998394886608999,0.4423716066183898,0.3180900818028265,0.25948040728311916,0.2894439659793857,0.33722475862839296,0.34258367434915105,0.3427003292197348,0.35569987726302443,0.3897829312821699,0.40137692696238503,0.43665943921673556,0.4231428321870272,0.4380755984027287,0.4049543330529044,0.40961580704677747,0.3847479087012209,0.3742253379965801,0.34660799608990356,0.3425990433575157,0.34259270103507067,0.34050598929818054,0.31278910535704796,0.26775110962971826,0.20080454006968296,0.17012387673202767,0.24120046735432243,0.36476271223068313,0.48161212008618737,0.5998833822340695,0.6931199863119026,0.803641065058307,0.9079985851534875,0.9679823375578742,0.9574430008483752,0.9119204028988035,0.8640990649741438,0.778936032251897,0.7209059023785187,0.6971027897873299,0.6485673748773246,0.6140628205781917,0.6227145363206255,0.7146557162094576,0.8717505642602008,0.966829683992942,0.8976848307783092,0.7386450757800658,0.5596592758178467,0.39534676792495116,0.26350125780519207,0.29875964541815314,0.3114657893732149,0.34197498035151064,0.3944134680745748,0.43865560797670433,0.3809991788325018,0.28762380305104696,0.30109080692543966,0.34058035944022524,0.3633819783050649,0.3444353562088409,0.35957209806306256,0.40626222020592007,0.4140425040918583,0.4053483804917972,0.4059810033403508,0.3869415162947796,0.3694165137260592,0.37781685736442583,0.3781628767852414,0.3627651389776627,0.34302429291914294,0.33870320956206523,0.31261433027659624,0.3324993559274647,0.3273658665957724,0.3161089404528328,0.26843006890138277,0.20648752258767544,0.14909103275422453,0.17624865673500167,0.27264639275090996,0.377122349286366,0.49966546478880414,0.6325553154077532,0.7321433160638051,0.8320245326874129,0.9061018501035232,0.9391237688247651,0.9137039380058356,0.849806558518444,0.8028896789639992,0.7405513319403472,0.6927536956781717,0.6586105799812829,0.6059794314465083,0.5637620156947092,0.47964148490024705,0.49335401538371304,0.5397453525547684,0.5871546753917656,0.6351138486294419,0.6900681742538444,0.7499096371231797,0.8035576945799203,0.814874175628125,0.7373040152403894,0.6424428239967854,0.5377852184154355,0.4161380020971972,0.28912613033067647,0.1723421560848326,0.0775836084064423,0.015122317503300842,0.04204327587977552,0.09860334461980003,0.15412008340817795,0.20062780463928576,0.21807732265934643,0.19601046978866865,0.2173116604469607,0.22146172232786565,0.2411280334138759,0.2565914553312352,0.2565110809403981,0.2415899838102904,0.2601843692455805,0.27175301666840124,0.29144762922208134,0.2924951674728753,0.2843441463084444,0.2491562769812088,0.23632788691115003,0.23879834155859125,0.24090662233390425,0.20435201475217823,0.17852952523192833,0.17264860557701844,0.25973128635496145,0.2999058255002547,0.24522976423363563,0.2206830943768443,0.1936721116760145,0.1375959421142836,0.08785519816967025,0.16838186043719006,0.3302305104807832,0.45676695614426865,0.4228733766180337,0.4669511014536383,0.5083214796120172,0.546709194857721,0.56288535406678,0.5964665017207649,0.6513310868586233,0.7246867090123246,0.7893650844483648,0.8324711981436703,0.8391398150201503,0.7939192369810311,0.6888088591442054,0.5828819979816169,0.4705835861793499,0.3530970970568079,0.23337130856555,0.13092816185901235,0.03397630042744115,0.0,0.06271992798780701,0.12633208745372304,0.19442383948032926,0.22061863438991214,0.22500959530513676,0.23316581934059588,0.23418374316476154,0.22822911232336107,0.2608847669745993,0.26528605462764343,0.2823518625769905,0.29457745772055954,0.3192813303387343,0.3071429995064827,0.3065286135362717,0.26643225955201455,0.2469488010945069,0.2223169113940724,0.22095989031263663,0.21285795092221615,0.19835691266175193,0.14366193183573017,0.13169349524549112,0.17374313729433855,0.28452733950013,0.3030432420797089,0.2609832506134353,0.25664505434917917,0.2390267148652656,0.156847681278796,0.09142308721641967,0.1633427155985343,0.31908615212513425,0.45585031106890384,0.4232743090454738,0.47751684994969423,0.5523533618076328,0.5990468064098549,0.6377039639795115,0.6865827791872645,0.7542711419622199,0.8040814540349226,0.8576914869105128,0.8762849872349143,0.81571927987655,0.7474847452635016,0.6449784501724389,0.5312878705007016,0.41503860953489546,0.29434699881729465,0.19533192736975646,0.08724215987933803,0.04459650361738099,0.06566062692016406,0.12262558732904338,MI
0.8957615674855872,0.8338511269347575,0.7641283886431358,0.7218645102941887,0.7105831616232057,0.7116745838762868,0.6993992664602606,0.6777642362908984,0.6561861750433018,0.7001260854068452,0.739739113180137,0.7484634744200607,0.7684961703681381,0.7683272509688845,0.7544516743695131,0.7320762319988829,0.7151586323152999,0.7075662789554142,0.7021753347161357,0.69347487093115,0.6860205769775831,0.6929895534124166,0.700404056958944,0.7199605703985417,0.7224620386527483,0.6823839890474779,0.6341085493596168,0.5741475009992612,0.5181626165186808,0.4602987047074756,0.4052029665524819,0.3888069920247941,0.4189689301151256,0.4663230816761803,0.5034771517823171,0.5412006287736051,0.5746289112004479,0.6000259870042957,0.6130756034386522,0.5974115038978458,0.552404157689286,0.4881437275155054,0.41887254845969446,0.3498296469806421,0.2941218977990223,0.28481543904462114,0.35570942118795523,0.43796659927445525,0.5195640539059723,0.5934786438759976,0.6733537902806144,0.7532672728282375,0.8271421848540781,0.9030240519282202,0.9254988315948851,0.8668213184297566,0.7949902930723356,0.7281288683955172,0.6971194318392508,0.6869752677121412,0.6833468152213902,0.6797692119178969,0.6522766280097594,0.6295389096189667,0.6632329607477332,0.6734376013637768,0.6705302135214599,0.6710429299254017,0.6667493007702594,0.6615042169831784,0.6535345040924545,0.6497304615350852,0.6417391408318713,0.638544059800789,0.63745884273599,0.6288221903805586,0.63005769703471,0.6332554536533421,0.6381419414786185,0.6339152256795153,0.6037706903177216,0.5590667945579393,0.5042318419719394,0.44690381812254176,0.38673521952419376,0.346728549687519,0.36277957055806587,0.4138125414490821,0.4671156307414204,0.5241781971999222,0.591191729022364,0.6575918885880643,0.7037415542220309,0.7251069939329429,0.7332289127375948,0.7330653359623431,0.6986029979439459,0.6458465062151795,0.5815701686056252,0.5100484782566901,0.43929833776961025,0.36754090228061886,0.3256820390327879,0.3845337341936159,0.46671951238170184,0.548446355890928,0.6152187686330164,0.6795098662734456,0.7531800001561746,0.8208578341982453,0.9021030073880234,0.9747946427431793,1.0,0.9434483754670153,0.8709266972071883,0.801772212706449,0.7587998489415861,0.7370397429453224,0.7184879848578904,0.7139171236013659,0.7217886936381275,0.6912588029799633,0.7013420903046241,0.7271682898288447,0.7163597694567923,0.6986094917744547,0.6787935169822876,0.6581098703291555,0.6378393573056305,0.6480152158803951,0.6692755063884634,0.6831522487282453,0.6716993017899433,0.6388489479523414,0.6518222591284857,0.6714372614787283,0.6786818236108303,0.6927143653649477,0.7112537492477422,0.7343669701610227,0.7720520086582643,0.7610170923377626,0.6926687788544479,0.6105777337918026,0.5297217722819871,0.45612422054080337,0.375185367711417,0.2930566310860909,0.21737848789596703,0.14017440598375308,0.0861866745834261,0.12315393931951735,0.19649833205164047,0.2700163931210253,0.3451443666200411,0.41723895800802735,0.48654520839904336,0.5581989277523542,0.6252844790085079,0.6809778706196066,0.7020777966298439,0.6922352226748223,0.6672109814382892,0.6117452380323087,0.5391999039491557,0.47706793626400534,0.4235044080546999,0.3719261618266374,0.326869892123248,0.29936512802771387,0.31885985061390243,0.3715337814273112,0.428074147036404,0.48345148820039574,0.538749454215222,0.5840624094811724,0.6005974415290347,0.5985010652287344,0.5913015723931558,0.5839783307276598,0.594385161491344,0.5989352603217932,0.6054826372723283,0.6104773837796429,0.6157825744207883,0.6220905927464613,0.6276059684377489,0.6336972028466643,0.6338484683255357,0.6346795430678427,0.6323205498987141,0.5942404580333926,0.5818003152122304,0.6207130439626702,0.6446279118149247,0.6456905359788627,0.6517171548260297,0.6631150382356255,0.7008874639190776,0.7047216964528564,0.6285856825264386,0.5462365043930515,0.46387658849370506,0.3815166725943586,0.2991776300984439,0.22000216982702536,0.14561699193249722,0.06418579426416104,0.0,0.007663764505321913,0.07449275442507819,0.1471979120982676,0.22028755640601494,0.29531063561820936,0.3675464098144714,0.4411554754368876,0.5130747518473142,0.5610579778570604,0.5718248119086269,0.5508627099765444,0.5214103117154365,0.4827429225396429,0.44453940330625064,0.4014819579681532,0.35991938784597344,0.347118374314747,0.3807677456652441,0.43372020592730776,0.48985237667559756,0.5453655602342704,0.6058187157518116,0.6597065393174233,0.6815869251211117,0.6692297467923793,0.6560378642109701,0.6520981466866067,0.6501115879624164,0.6624085769350823,0.662982044864761,0.6730600673291782,0.6841422076164694,0.7057582836718419,0.7241886878116879,0.7217840250544754,0.7116914566368853,0.698109692084806,0.6505292010237453,0.604193805637077,0.6036044146454729,0.6459592303005013,0.6662007169162383,0.6706489178278388,0.6771471002418441,0.6872272313041594,0.7279969271299653,MI
0.8198604555528699,0.7768171543474582,0.7576836737487196,0.7728833333029974,0.7990868541989808,0.7847549271817762,0.7809941343420612,0.7657246416334749,0.7729183536493816,0.7789193058426327,0.7857548312448559,0.7948329645102241,0.80975563501514,0.7930561655099733,0.7852220810712351,0.7585654975053977,0.7344617001764453,0.7014950762554704,0.656642091437853,0.6124289991761551,0.6266780497292634,0.6866813835058294,0.7557389268868624,0.8227645750758508,0.8842182613039973,0.9431708563065864,0.9806086606707352,0.9885918025501046,1.0,0.9918527352002049,0.9488441488470989,0.8787403238733185,0.7929672338327869,0.7017312244815503,0.6159422443415763,0.5178180165941475,0.43002899581423604,0.42498219076095856,0.5123424123071834,0.6062875139552926,0.7018944329292736,0.7974123563705544,0.8789135526168788,0.8854794333023204,0.8617695481785912,0.8413686964485376,0.8613548710877401,0.8674267315326105,0.8388973096945325,0.8241694914302404,0.8218788723815869,0.828707155966312,0.8233893932798946,0.8217823298058837,0.8274986896910779,0.830456881596064,0.8152434426054627,0.7939903052767621,0.770109138741943,0.7361368725453907,0.6975632920320884,0.655438108411639,0.6464227661974058,0.699249504040909,0.7671573336462263,0.8346879910238978,0.895499908999756,0.9473277098757173,0.9677889854981077,0.9683497995239905,0.9673355735045237,0.9467273958916591,0.8840040049928315,0.8050350522619372,0.7173289671160261,0.6242397453179547,0.5243205869101835,0.43084393879050165,0.355451012697102,0.3912493218181039,0.4858466860697046,0.5838994086835725,0.6778526214704557,0.772270182599347,0.8383853915298478,0.8179275828232604,0.7791748106437519,0.7663005506039777,0.770020356704118,0.7961625124727245,0.7672740234763546,0.7504708889102818,0.7559812635270315,0.7482165875225721,0.748683325186525,0.754750641431408,0.7700228342463649,0.7727025732287567,0.7701208397989183,0.7572370799153916,0.735380593995778,0.7056851003947364,0.6675833458817566,0.6265737516297154,0.603611474188769,0.6500667603366583,0.7151105720733715,0.781528312556103,0.8478771306530781,0.9103896532155553,0.9454180158318728,0.9550517710994608,0.9667141079237078,0.9539429852825476,0.9183620071143599,0.8519958122889562,0.7656347612576284,0.6765654252471602,0.6096435132701736,0.5188732424324805,0.414326806620283,0.3382143510554063,0.2581569434703943,0.20919896652332337,0.2567012044545507,0.31643922736945473,0.3678934867610102,0.45926148584831683,0.5569259831952538,0.6511113272572331,0.7459675582135756,0.8299469530063437,0.8921276993781735,0.9117665643224138,0.9059463405395269,0.8863251695402838,0.8463248547364772,0.7767248898052124,0.7093564919723909,0.6449205612671896,0.5846275811104449,0.5441874601189034,0.5587686188834264,0.6019441807137249,0.640379518335394,0.6705041398580391,0.691646138264367,0.7157332216245917,0.7308619373066554,0.7226975408349032,0.7120682832774006,0.7002369240134874,0.695888565567405,0.7052662296548187,0.7030145182276657,0.6984653863480874,0.7214419328750497,0.7111298805107422,0.7140978550055554,0.7281458695234835,0.7327753500752947,0.6547824431478615,0.561314469299842,0.46041226674943614,0.3674555950783551,0.2753704927745333,0.18371971984253577,0.08311741791892491,0.0,0.01292896425711243,0.09973071462380068,0.18546938236486454,0.26010228589182516,0.33241282225569124,0.41534894403093636,0.513722645211554,0.6088903994020072,0.7064677213166175,0.7992213618605586,0.8775174073621206,0.9111278816908936,0.9214090859754194,0.926073109439316,0.8961396045060357,0.840091883807367,0.7791114233397547,0.711867527818904,0.64158665136436,0.5979560085228752,0.5966398565367927,0.6324813763405746,0.6725108895595113,0.7103933204427384,0.7370063715374666,0.762599794840765,0.7792676363702298,0.7807410117887152,0.7684934500198053,0.7698199780879449,0.7749658719751671,0.7803092905286912,0.7825528671637914,0.7889801608916316,0.8013033449796851,0.7884009665580969,0.8001973073894715,0.8227006473472533,0.7960294588924905,0.6992232092181694,0.6054286328293799,0.5086687816673625,0.4152604356902625,0.32248912428663656,0.22928325113017234,0.12796239415992527,0.07732707248327131,0.1430213001381242,0.23586685955948505,0.31660812548075157,0.39972011765574544,0.4897844176412538,0.5915904068134403,0.6858565332428106,0.7830421383879558,0.8668506861729597,0.9320367974996104,0.95741694203035,0.9420440168429911,0.9206823772652504,0.8885939770954701,0.8286190342578292,0.7632994170441361,0.69213079824469,0.6277386559829674,0.571875433582786,0.5460801416363652,0.5755501989384402,0.6238079687848814,0.6653504808815258,0.6940788674651821,0.7196752149377397,0.7373859076519134,0.7528806809906388,0.7471007941024168,0.7432447286563928,0.7349256686541712,0.7307278560864061,0.7186772599662445,0.722805145360923,0.7356609257825077,0.7328737326908321,0.7080720012206161,0.706367817239832,0.7184348552232023,0.7135863877949,MI
0.8943742313968692,0.9439938033803377,0.9682734220673153,0.9327308576096418,0.8761115079592101,0.7969738151344696,0.6898636231661417,0.5713083929907357,0.44780274425436684,0.32467351011188406,0.20429123764062673,0.16394055731145452,0.23955651630313657,0.32501046680660606,0.3922366407727309,0.43635999399657255,0.4492667119543561,0.5380609600654176,0.6795599387695459,0.8283953861289053,0.9537229170937565,0.9505676784849357,0.8858467205451772,0.8149035312390098,0.8005629026385233,0.8559709783164657,0.9148653817613805,0.9183432748119658,0.8866569788979164,0.8476593519122635,0.7958453381904973,0.7156322437997842,0.6003210523239391,0.47004991346901415,0.3468501652461149,0.22560561235166343,0.12306776159018051,0.1192625220050818,0.19653976453490696,0.2829626808916976,0.3695935463728648,0.4009835111598985,0.42774855927763467,0.5477752553567385,0.6981607407608967,0.8389064275672067,0.9196307582335987,0.862341197700923,0.8134246502573532,0.8099045971305538,0.7983867794797472,0.7935274301543465,0.7777624659013229,0.8220345940279739,0.8473464219987688,0.8487369692196292,0.8269265024136958,0.82510733934962,0.7877796802783785,0.7038725808557973,0.5988127540513308,0.4781768423226982,0.3684539423430855,0.24610897049405933,0.12952034891490172,0.07211678353958817,0.14957816256575374,0.2460596756236897,0.3313624240181001,0.38264516223209677,0.381237356164021,0.45461793404084405,0.5969016145718005,0.7502062386635577,0.8831498575452925,0.9052560873487283,0.8364634989924911,0.8222348561763164,0.8071013187411142,0.8194430021809898,0.8436308603554346,0.8724751185993194,0.9059193236850098,0.8990602269675745,0.8681437788257762,0.8074161148108141,0.6943592977732402,0.5681689644743346,0.44183403271786403,0.3180555011567079,0.20563103244954872,0.18968923960222783,0.26560524821386666,0.3425746662356164,0.375327517544084,0.3217682843910885,0.27043529959391854,0.382295833913485,0.5343662315745412,0.6782861664375766,0.827389511299522,0.9395516558761217,1.0,0.9630058685370901,0.9692986915848425,0.9377697836012007,0.8704206151502336,0.7748928887530662,0.6589106022571993,0.5339866490028462,0.4045053394702869,0.2803688116188976,0.17341491932078812,0.17583620567484282,0.2527550390263089,0.3399266617841228,0.41088741914484794,0.4112739427874721,0.41696184428720473,0.49969323423462475,0.6407591008143934,0.7774196946547813,0.8981455115439396,0.976722771875751,0.924303035825607,0.8910852966490914,0.8607603462634597,0.8067509298578486,0.8104813972124507,0.8031991808317396,0.7266489184648526,0.6128529835785823,0.47667851062015876,0.3484992187392093,0.19677229463447787,0.07666817842543461,0.05801337773573989,0.12669448197534328,0.24804594341392905,0.32074845885372927,0.30887262169961227,0.21891854568089641,0.13983468520100928,0.08119797161117548,0.1066879953087887,0.18766428418544656,0.2951879790016272,0.4215585996078901,0.5561653598693841,0.6826994354161608,0.7842085869514985,0.8645600952365502,0.8975539429989672,0.8848276739973082,0.8441116810423499,0.7163997139053162,0.5652835430410774,0.42126542199348416,0.2672593534702168,0.12627755205492797,0.01512768072563464,0.049865360368939626,0.16534604552853693,0.27122137454933437,0.29288718360307353,0.2154123409370241,0.1367807632492677,0.10935364037965778,0.1808126765931246,0.29745398301627723,0.42406779233267766,0.5615825736195958,0.6808851062614214,0.7781267284978384,0.8251006405856871,0.8380755457853213,0.8077299984339601,0.7798831102567263,0.7646363353011285,0.7476563460026617,0.7388871962780508,0.7391740497620898,0.7165713283200432,0.6011202257210067,0.46141804916412177,0.3449965791570584,0.259852999935545,0.2906332177645443,0.27709695467312523,0.19240948869630392,0.09842254196634537,0.010354107741432639,0.0,0.08342623224994261,0.20618956298543978,0.3387629816849622,0.46330282644232934,0.5792918270860126,0.6812582448673417,0.7345765201064198,0.7513148516647083,0.7785729622817823,0.7830668603275681,0.7472166901593553,0.7041235976281404,0.7150132675638399,0.7332234948948835,0.7451328639447796,0.7451876184788047,0.7453987970307359,0.7420567403393195,0.6200471251032083,0.47440546629646185,0.3618207483208149,0.2731582669478483,0.28959818750645816,0.27496385217968333,0.18843462053462634,0.10133096279142784,0.043630993376874816,0.03798493006450787,0.12291133959246103,0.23943935134902317,0.3719114077312513,0.49775368984306034,0.6167461933386047,0.7169034949735806,0.7803505625270608,0.8208579673738625,0.8520089130330732,0.8224843676721338,0.7591100659686427,0.7339041261182433,0.7741995406997608,0.8028049194033069,0.71140082059721,0.5602582693998297,0.43966180092967955,0.3539475582071945,0.34162522486260594,0.3199242150968855,0.2504892521446309,0.15924782452227504,0.08122634108485993,0.09716616410497769,0.19646202561913206,0.31447487042020716,0.4383749177068661,0.5608012717096704,0.6777973560478259,0.7857236571405837,0.848778485025512,0.8986264865121631,0.8787460967042655,0.8279344643358844,MI
0.2383548978912502,0.23009356768191958,0.21256597634217478,0.22702997174154693,0.27615486750889984,0.3292237726562799,0.37577480684833753,0.3991240186821552,0.3813666740126396,0.360814891416507,0.38150548813231344,0.4527336788607681,0.5356171297374632,0.6203015419503846,0.7007273334064963,0.7819179839711938,0.8617225573037834,0.9395143741335761,0.9656790140835478,0.9029242701439417,0.8239617015097411,0.7417096892254367,0.6590720713241707,0.5796292471192894,0.4951971429544455,0.4105207223030358,0.33022719721468374,0.24861330873561172,0.16384193323052432,0.08873597395184074,0.09727142840759417,0.1512704579801496,0.1691589357373633,0.1791235312625974,0.20006930744872942,0.21803389204549561,0.22093530783910564,0.23021738172293937,0.21890192337674308,0.19306699687996898,0.1803324680099352,0.2034354726890102,0.24207677317937915,0.29402601454055866,0.3411496860968535,0.3583785462335034,0.338127858444345,0.34681284652272426,0.40809292171228484,0.48248481314666525,0.5614832206670939,0.640918072393382,0.7230826671058723,0.802574296206557,0.8847495658143165,0.962685278308379,1.0,0.9400474265240621,0.8613953359092341,0.7783061173996608,0.6941865198705881,0.6178696154347225,0.5493954987928764,0.48145107172890667,0.4100765433094955,0.33222635185232674,0.24896984416199897,0.166725939877006,0.11953522501118008,0.16426419412034732,0.2009389458143367,0.20569512543417634,0.20201045503462312,0.23271212661842067,0.25265038900381653,0.2583591906400189,0.24892600411300236,0.2383155826265464,0.2177265747016015,0.23691449265256126,0.28348699663698285,0.334117254536882,0.3674130304248411,0.3674893074451271,0.3574168735629122,0.3919984634018061,0.460045433257545,0.5372754633701664,0.6161711294502024,0.6892867549479476,0.762128431768764,0.842956683650548,0.923422962953647,0.9986992001210435,0.9912241573909188,0.9180871428741038,0.835075896679814,0.753281706670476,0.6731555600887824,0.5885793748635688,0.5070620022494785,0.42668035166417106,0.34203910655118985,0.2601831939370689,0.18100372035044776,0.1365732605759311,0.18782341028279426,0.22416250367148072,0.21656238128070293,0.20781811366844627,0.2269141119420568,0.23937476963224613,0.2540681328329104,0.265646054424431,0.26192260373335374,0.2566294296330396,0.23337607204463917,0.25077013643871204,0.29133993592570273,0.33537256286153316,0.3543629122202505,0.33634403452774775,0.31138540973159157,0.3313824985879612,0.3942678788634133,0.47099664234468297,0.5497559262778862,0.6319024988707427,0.7120530821562021,0.7935820615458495,0.873665487903807,0.9495828447705037,0.9691904900913744,0.9010985795786772,0.8331210334174997,0.7691018712848676,0.6856984382342426,0.6008384003026543,0.5176655003577226,0.4404971237757347,0.36571995547839786,0.30420545660872755,0.2688123243844389,0.27539056977120824,0.30408117928131495,0.31141759322161344,0.27550832200929665,0.22590763571454664,0.1916382455867094,0.20577429590752927,0.22206511204903157,0.23361123057406696,0.21856613165082894,0.21275795698876454,0.20762497465988994,0.1910953700645288,0.16251906045233588,0.17141578910463728,0.177911338259771,0.13223510388106874,0.07150725580676887,0.04612146236891501,0.1063261614234483,0.1852443778517805,0.267836474425329,0.3526653029019997,0.43532106955508043,0.5147722311574057,0.5992007666206609,0.6803245957186741,0.6962286402217324,0.626819592688955,0.5440685766116826,0.4628947311007712,0.3903595290396049,0.3406219382501985,0.3210229516725611,0.33360347251307054,0.3258200952699275,0.28016087248168686,0.2298972803261088,0.18963014384200938,0.18414092584942598,0.20183706200950824,0.2188431279569496,0.22159593639664732,0.22033342763881647,0.19334200890281683,0.16611434702517514,0.17041004874092036,0.16483592347088605,0.11200323535209189,0.053111264707605965,0.040655321474781125,0.1056298147628536,0.1875204012155236,0.27183566011206817,0.3511452660996328,0.43401862776130007,0.5186090016276443,0.5985714741241268,0.6805684045740177,0.7630453097594236,0.7837501121591304,0.7116818184858971,0.6322352439275465,0.5478435139789677,0.46631791382524423,0.3928026037664183,0.32865522848945905,0.3010575165996465,0.31502229301242024,0.313646631654922,0.27121533899584116,0.21722700871446232,0.17073064855996178,0.14679260378546855,0.14593971200285227,0.17093049072738653,0.17995614220656275,0.1816471738131542,0.17405272255616744,0.1573379161133135,0.1321140915065533,0.13570709879317655,0.11429981137760703,0.05406032379960202,0.0,0.00019146988022877842,0.07105391163396835,0.15509511129928866,0.23556821714872656,0.31698926510488645,0.40178724235073604,0.48656169410895145,0.5676773068617209,0.6484320422898429,0.7274307174749648,0.7251154636177695,0.650627819798443,0.5680789437268481,0.4884889383838533,0.4104603448385895,0.33876478869379745,0.3071779260387013,0.33163930487089965,0.3525908616217741,0.3515307791885536,0.32352124520610426,0.2700777255977158,0.21533629671882415,0.1746816276636427,0.18004421357535283,0.19829755652695535,0.20730559342197008,MI
0.8226897508056062,0.82642432981349,0.8263816558711773,0.8335038105080718,0.8426275024189328,0.8484747878779261,0.851315304541061,0.8538039830030876,0.8635401587646757,0.8627396659733898,0.8321188834826615,0.7827401461417337,0.7213912472527185,0.6557984426479427,0.5834752948177587,0.5148693969663941,0.44658109850056593,0.3802343008175907,0.3143661950335249,0.2529902199306252,0.2347671166162938,0.28676139496845054,0.3462675533899834,0.4075597479929375,0.4662638536746321,0.5275173282977218,0.5858640891497814,0.6392879667161634,0.6859420822542744,0.7233022209922851,0.7229798301694349,0.6768967007468932,0.612649009249221,0.5426886003858208,0.4801495087534119,0.4128443080008085,0.3368741944312902,0.2685376130316858,0.26225174748133295,0.31445592487458185,0.3810909996681505,0.4565328857713219,0.530142291789525,0.6039435412777509,0.6773769144112477,0.7566693081690553,0.8333288521944032,0.89926892059372,0.9242361781489649,0.8942297369003654,0.8714576616159216,0.8494163515530219,0.8255076738690076,0.8346299820038344,0.8376514628209252,0.837799506703189,0.8339378088342676,0.8242078219915742,0.8221912943878963,0.8185502649622264,0.8161101806653371,0.8112345966966444,0.8106188955730508,0.8106239621127157,0.81215831780069,0.8179125022575163,0.8148046268423467,0.816051548567558,0.8117312839109675,0.8131446724234762,0.812462988097843,0.814632851041584,0.8160683138871915,0.8202089223299752,0.8239567433056795,0.8257937688331959,0.8259154025424674,0.830716072844831,0.8496764810900649,0.8768316535032196,0.8763195377656997,0.8435479248104581,0.7919724395775719,0.7335856713026011,0.6785166944242184,0.6066094902564408,0.5372778961698265,0.48124599829957126,0.4197507904762615,0.36278833074513217,0.362681242346658,0.4204989294083433,0.4813795392125114,0.5401762649457539,0.5981338485978439,0.6550494678660025,0.7102923843097019,0.750952768239635,0.7749505196026988,0.7517902591649054,0.6973019248697868,0.6299956888736055,0.5587567482859629,0.4811767085291897,0.4025839853409229,0.32996886061582653,0.26701485711707573,0.29818175706694194,0.3759844710616812,0.44832288195691306,0.5124341055904976,0.5814580000172601,0.6570581994323711,0.7306018421632322,0.8052235509915465,0.8772979070504722,0.9404784056736298,0.9938427125231787,1.0,0.9745947413326629,0.9472900717083875,0.9200253747260275,0.9269854307118691,0.9539215976612502,0.9472401962759848,0.9172780723280619,0.8857809791238652,0.885740993741989,0.9110461919715315,0.9420926682668121,0.9474391459844776,0.8884480066980173,0.8139403091733016,0.7387039999025183,0.6637782663718083,0.5892704201994269,0.5163962650443835,0.44025333047951876,0.36753515891787203,0.2888986622841222,0.21328913267377814,0.13870547106513686,0.06069903329990378,0.0,0.01483200236072324,0.08834169358746857,0.16654120717553966,0.23915587120815818,0.3132179544299284,0.3882203145933626,0.46336597518712586,0.5361238618111913,0.6072748060029124,0.6759695969236009,0.7295468613367796,0.7274391887661343,0.6861896082154427,0.6341317203540681,0.5726343093421388,0.5143098480831102,0.45522557043069056,0.39547555146141533,0.3383203228884738,0.3033044421725465,0.3275212997379585,0.3838119489220003,0.4520441064825981,0.5222914606576005,0.5905822444987444,0.6578061774606839,0.7244472384897048,0.784455905556318,0.8333874066949146,0.8452144574160217,0.8216750439211137,0.8043639262019923,0.7927313379464426,0.7923032741660551,0.7914638475190644,0.788282591389223,0.7847657036557166,0.7787227462838436,0.7815049892832745,0.7834374543176902,0.7822894420814349,0.7828480956334648,0.7871421619312872,0.783288352017805,0.7822241502065918,0.7823357024358158,0.7848473658900251,0.7877597271630273,0.7878294216349001,0.787965034316413,0.7924545008931679,0.797196823823291,0.806181287627249,0.8051633220926985,0.7924456337226137,0.7971803656195701,0.8247077453426955,0.8450956016916732,0.8651226957765089,0.8429539728178223,0.7734756752462807,0.7007224500941346,0.6271666329473206,0.5546103787485436,0.48073681210589514,0.4052830245337432,0.32564989643760966,0.2459369045807075,0.16818413843388091,0.09579669260074486,0.04076679419365725,0.06876644126683207,0.1289941906810118,0.19567837393264187,0.2672793182770855,0.33923007772272895,0.4125573731675013,0.4868452175216421,0.5594675984738543,0.6352184713954593,0.6860550087436091,0.6814097166756868,0.636729354380826,0.5842493931192191,0.5293925802766984,0.47147753311359686,0.40766230402583437,0.34527915935744324,0.2853843025074746,0.22732398069324733,0.1851827873935955,0.19776757007500867,0.2501861780966176,0.31363411982840306,0.3801608455787725,0.4509396528353874,0.5225718559916269,0.591865446324423,0.6571491426016299,0.7212574377236941,0.7813050015277304,0.8240644374587031,0.8307978210193697,0.8218238782967421,0.8209037793842963,0.8178125793547267,0.8162417112648442,0.8063565854763818,0.7982661699202843,0.7961948145473258,0.7923125667783805,MI
0.4132498404860262,0.48547428535971904,0.5439685709071255,0.5291277893591365,0.4781560261974568,0.4594863715739178,0.4828752512805915,0.49045667884494415,0.5540317182473916,0.6302327197405687,0.6948509499601742,0.7233778104568719,0.6997078265891884,0.7274893733733877,0.8166717340158817,0.9178801029625537,0.9999999999999999,0.9830359409255917,0.8930269148064628,0.7966625092547629,0.7028696367010755,0.6067650274197106,0.5089978595943813,0.41797092424703386,0.33096438368112835,0.2366869868574487,0.16240458557695925,0.1999823080976154,0.2897373356948866,0.3696016032909156,0.444521256195458,0.516603965276924,0.5328275669033612,0.49175963649818943,0.4492581840770723,0.4370693253847885,0.39958616356218435,0.43663724952427463,0.5104398057838092,0.5718910000312097,0.5982141371242881,0.6043939804676194,0.670952950597906,0.7644939151564775,0.8597848332110337,0.9287955279485921,0.8848613344825603,0.7901453880295845,0.6925207447860656,0.5997169863714443,0.5085286541991613,0.41119100906871153,0.3119677873367518,0.21309742671124499,0.1205972505555809,0.08796082545162631,0.1606960506595042,0.24953340227017728,0.33296156067208293,0.4093802512372483,0.4794405263375473,0.48961815589351365,0.442793503246803,0.40632964911616,0.41775148830535314,0.4377803980486822,0.5083095793133162,0.5809388999602662,0.6491080494020801,0.6776756602494475,0.6585007501837256,0.6829943117040199,0.7702514036490596,0.865513273636611,0.9420798653882437,0.9403877535779724,0.8524457066632668,0.7551603982184604,0.6601831219238682,0.5764324046779784,0.48939159234832774,0.3925942178259382,0.29539414770337,0.1975884962333937,0.12075926674981574,0.15842607905133088,0.24463214622014695,0.32443455402489285,0.4070605243574267,0.4760101484066216,0.49248880272960627,0.45459929918362507,0.4100384265095788,0.4295729355680872,0.4177888209446502,0.4498649325520653,0.5157266067521363,0.5683575067515841,0.5736286209667679,0.5720134038068249,0.6406421695834615,0.7353698960876197,0.8278300707189313,0.8709744646579337,0.8000218605650274,0.7027694988256544,0.6069012465966735,0.5167790240869555,0.42222050781713893,0.32445820687434257,0.23669776781262064,0.14792290198172175,0.06285444163954734,0.07606981727746576,0.16136308667411348,0.24525840244072372,0.32625415779544953,0.4065137364275927,0.46620661409014896,0.4547666248394965,0.42140853721886706,0.3921878236694142,0.3999116666859416,0.3722890001935205,0.297265248125839,0.26267708848996396,0.32040403512252935,0.32588124437782906,0.2652411142095298,0.2827240547242781,0.34935066226779565,0.31647989387727093,0.2596277681598774,0.29374309706692403,0.37319968308138607,0.39607611108992147,0.38971788788523176,0.3174700880515148,0.23305239254736299,0.1478478517138958,0.05908972654272626,0.0,0.03871292199474197,0.1296483248035586,0.22548639120139435,0.3221646197818545,0.4194839940084728,0.5148630578511929,0.6105603057451329,0.7055104698952962,0.73423127511487,0.6611859029330417,0.5752116876409473,0.5353402034511917,0.5464918551272692,0.5255239905187202,0.4633338070877412,0.39762970410334486,0.3374445945603092,0.35356965794319717,0.38540802147227315,0.3806425587211667,0.4239548867534756,0.41757279200471153,0.43468721738492844,0.4057828359312484,0.3288466304538741,0.24504354743272583,0.15737214249893638,0.08134982922423617,0.08565152927890696,0.16899471731242788,0.2622877155539195,0.3586350707740188,0.4566626611641994,0.5522424688894024,0.6433292007453767,0.7382938285326973,0.8063725632262696,0.7473150502090747,0.6608302374108607,0.6226862627084425,0.6431940495614724,0.6292227137921685,0.563949191012011,0.4880518163684874,0.41440350012572746,0.33934907786208146,0.31019827764683183,0.3680358082915126,0.37199348420716405,0.3980369786919665,0.4271163574430584,0.41206743860260475,0.34791246637580564,0.26889152807188965,0.1841841510399841,0.09161642216423849,0.03313964634337552,0.07600692155849742,0.168975695738402,0.26358435282576675,0.35937318400549867,0.4564248577418163,0.5503034239586438,0.6407448164868453,0.7359980013723867,0.7977192014098421,0.7287537122297972,0.6344861571964967,0.5734809505660489,0.5701477800548945,0.5445875875035634,0.48257252714577736,0.40709387100398875,0.34952256298737494,0.33771186742562775,0.4011408317497601,0.417643316799054,0.45327060193049074,0.4650381344722404,0.4736277278870703,0.4471247764025511,0.3718673424371016,0.29377363576625115,0.20847374524856221,0.12721870377018696,0.12099689162842908,0.20032091924809292,0.296152009260482,0.3967235837776094,0.4952944424834612,0.5924183100437422,0.6837719766500326,0.7755216361764657,0.8700181413242664,0.898168092378005,0.8156162037166789,0.7234641992544487,0.6652002311887449,0.6814248264569701,0.6890807938643563,0.632926568012174,0.5616458587409451,0.4872498716844734,0.4195281789848865,0.38637401712098585,0.43903143957703594,0.4289954452268506,0.44263329292206255,0.4769137885490585,0.4655395205247882,0.47661960390847125,0.40944957106087043,0.33480146227690255,MI
0.638133332107643,0.6826528041783231,0.7156521107679312,0.7362012710588872,0.7180971659521802,0.6379506850691565,0.5363535303244422,0.5529242323694463,0.6667253176793828,0.780432554773856,0.9053190754209393,1.0,0.9832024011260101,0.9178863743571801,0.8750307322845257,0.8914544134204969,0.8864513059274852,0.8445035303526605,0.861293581671811,0.8570473173782229,0.8492174946529292,0.8515358997553224,0.8504135461889257,0.8380669967610332,0.8238113515356464,0.8226787678068823,0.822678231017588,0.822678231017588,0.8224471286383137,0.8122518286039022,0.8030612011249447,0.8029663062891221,0.8097404757338889,0.8221723957555178,0.8228814272829634,0.8326339344284799,0.8375614426533278,0.8038010899882173,0.7456161071624376,0.6684092119436551,0.5817118859583355,0.49454328666923075,0.4122894035333502,0.3949525489126411,0.44523966770828105,0.5014618278155063,0.5541180413366784,0.608062750943041,0.6543741311038915,0.6808379806665039,0.7021164448859816,0.6995275231061675,0.649606834349342,0.5515691726881684,0.48029967472165724,0.5651092861102529,0.6786987668595179,0.7834986798871175,0.8760531909422107,0.9615623781135412,0.9375409374561463,0.8704854407050719,0.8465996719924123,0.8692338568363414,0.843288144137734,0.807190310223239,0.8022528214107063,0.7892939872096392,0.7831713038372095,0.7831536509391137,0.787852536902788,0.7980720144617774,0.7965472504927162,0.801072236621259,0.7973792019374573,0.8053907138670855,0.8204847916428264,0.8226741959467345,0.822678231017588,0.8226782941692701,0.8232472210618211,0.8356606708157508,0.8297379000348291,0.7824277853552504,0.7155948634938727,0.6372673158407394,0.548876130537602,0.45501242893283145,0.3783017914335005,0.3183536541274843,0.3422512281794421,0.3995013134066907,0.4500516593252386,0.5075951907323901,0.5373662774348533,0.5744484645549961,0.6030783266239008,0.6184203889618765,0.5905453805644196,0.5093455712300394,0.4095937415271371,0.4067707760873924,0.5161675522473335,0.6365298491265885,0.748339058801553,0.8409563721218567,0.8201669512153007,0.7533673144054069,0.7160522071703204,0.7025940171795848,0.6737060098571144,0.6426905322707634,0.6381185715240543,0.5929866740129306,0.5139092940769756,0.39298584005316606,0.27020948348826,0.19999998104583927,0.2084811251707328,0.2869663211299103,0.4111675932773853,0.5261209736663135,0.5560355501264302,0.4712762006079734,0.3465535555938324,0.23527336264051524,0.1959193104257988,0.21751032916146018,0.31253340388411877,0.43773957303401057,0.5415099289213177,0.5819964499063173,0.6304768190168444,0.6401303348325404,0.6522847424040332,0.689910210061528,0.6975238137706139,0.5967807012041266,0.48044297806643277,0.3569825988589135,0.2486667453828324,0.15336106630610047,0.04078078739267532,0.0,0.0841076753321115,0.1982239803888608,0.30908929081683434,0.4245414736401911,0.5229979501016881,0.5532195330596945,0.5312146004111251,0.4922142261046023,0.46490490408732565,0.40976803743668855,0.35745792967087464,0.3035610873172483,0.2543097770853109,0.25423060790088137,0.30752120944991823,0.39024429051579235,0.4700504995365664,0.5612842350459233,0.645723844254058,0.7194466083487443,0.7701272591210961,0.7742673762091732,0.7620324933164109,0.764291589840902,0.7570644003254805,0.7619543133984741,0.7622975473942923,0.7560042150560289,0.7454174320213225,0.7423881521805651,0.7441381839583121,0.7236470708613867,0.7349842120035235,0.7344628037078778,0.7288013487764111,0.7354365901395066,0.7391005336258134,0.7483478818082898,0.7423509747708463,0.7746052316639083,0.7932522824194841,0.7819621555891061,0.8063466910701709,0.8213974958530978,0.7245653602264994,0.5992680003231023,0.47328207262954924,0.35214824099327036,0.24020875378653672,0.12694539094593482,0.07750936817623977,0.15410391979087024,0.26522246797794,0.38120009217795525,0.49198205114351445,0.5961231624600356,0.6356029200551059,0.6297866387284636,0.6000892959158475,0.5506524317315336,0.4980878093141561,0.4405109324472898,0.389138332731946,0.3387866545734939,0.32606437106242137,0.3708302442941189,0.4474998989094803,0.5312852572830615,0.617385673831901,0.6984793815455212,0.761071593017359,0.7839089059947693,0.7752422366668319,0.7629804970799667,0.7555270993032899,0.7554458238430608,0.7554458238430608,0.7554471570034633,0.7569766260091932,0.7714814823752567,0.767518321173021,0.7690359043724406,0.7751678526682992,0.7754920410914012,0.7860441499165645,0.7948664119682638,0.7949940986712805,0.7942010902213514,0.7735553285560877,0.7760544222006689,0.8210157990298916,0.8143715572870329,0.8138961995864089,0.8437341118734918,0.8586365925151713,0.7634768071371263,0.6469702353947797,0.5322250542256266,0.40729899393416114,0.29460394379860455,0.1752948675221062,0.09809707191545813,0.15831574602324094,0.2679684102406559,0.38303510885897785,0.4936185813325831,0.6018063523136656,0.6666135649062825,0.6564788902064769,0.617535572836525,0.5704959040838293,MI
0.5769310308737379,0.624442443268096,0.6729306502278254,0.7084226795863324,0.7125684736623299,0.6870690762939908,0.6403198397044876,0.5777647420906709,0.512354010755216,0.44679990921951024,0.39340466791130074,0.4257807127346683,0.4950989186545715,0.5652918118966637,0.6342420998875258,0.7004733461910124,0.7702147380389566,0.8398605325385298,0.9059930539773242,0.972104508617027,1.0,0.9521205777334036,0.9098454561157603,0.8867909750103651,0.8558901753991841,0.8176608075406051,0.8303474390597296,0.8659649512023855,0.8760970168294293,0.8688251507720699,0.8659954983543188,0.8596139094889792,0.8692367532742917,0.8773350028753022,0.8781475597967225,0.8687282761543944,0.8308247868468883,0.7766283149825632,0.7190389260868641,0.6589716022502294,0.5983910939558998,0.5352451964323826,0.4735034731446474,0.4166671985096964,0.38955449832705563,0.430267236102914,0.48528387865245187,0.5400887321906591,0.5918612783595645,0.6376475060273941,0.6722755543118526,0.6875623507976389,0.6743049252345961,0.6306155851506949,0.5724930644601165,0.5079513743159159,0.4481475504750137,0.46347646832349215,0.5311507611795125,0.6010664308523259,0.6675746025632585,0.7360826987027642,0.8062113245549112,0.8740300996323933,0.9404056200811117,0.9834736679880851,0.9478058788904076,0.8976846059060546,0.8673452700663664,0.8294277723018273,0.8145198097205886,0.8495617778172784,0.8689284877499661,0.8682195430537583,0.8674628369265613,0.8608754787922623,0.8513084892669298,0.8534435894855561,0.8670966148139774,0.8704146685266396,0.8739575167744886,0.8508377787102959,0.8023777323874266,0.7482068636143633,0.7004206671715136,0.6418036604734063,0.5809238409624016,0.521108524052011,0.46164100873131947,0.4100949889581627,0.41356004375347716,0.46245259607538397,0.5155412750348198,0.5703632178211455,0.6199423441777769,0.6607434120999571,0.6889786452430715,0.7026370284947967,0.6991395769085709,0.6979559967672655,0.6497736508312504,0.5981079576539541,0.5408960366088742,0.47848082680505505,0.47587083663879753,0.539065047749556,0.5944965030515887,0.6429197783834655,0.6996335213923961,0.7481912594179703,0.8126538994971257,0.8820784269537658,0.9421783679637341,0.9336037122338419,0.8731472547334949,0.8044674447449323,0.7372636628483966,0.6695906733944066,0.5995248435118317,0.5319511172923426,0.4646399249138267,0.394539034597777,0.32433692057212776,0.2541348065464798,0.18393269252083172,0.11373149922570064,0.044332336645408976,0.0,0.035051160826787636,0.10235101645767997,0.17059869381903636,0.23728036673340436,0.30725106241244743,0.37618651849921597,0.442382703265302,0.5099172658321458,0.57198580677237,0.6159721989699587,0.6540094882709335,0.6271579401404157,0.6122129803376868,0.654004939176809,0.6629342056917402,0.6298738127136687,0.5840884826860504,0.5333243292548115,0.4771181218933785,0.42391731542640537,0.3803017211158493,0.3849310071011732,0.43482406775357824,0.49365515320266856,0.5557966050220171,0.6179421519985004,0.6781572262431341,0.7376369451983136,0.7943385737894288,0.8425375017508574,0.8564200963048023,0.85188631737803,0.8393532008832296,0.8329433361558274,0.8408320339557736,0.8513493802268284,0.851795399091757,0.8511592812448137,0.8374133639404744,0.7984138069604303,0.7951457400035771,0.8349027486581178,0.8678800751132754,0.8650960689078722,0.8087176356742896,0.739848126883524,0.6699755696686425,0.6035494866834692,0.5349261850583209,0.46474227971141197,0.3950361373907734,0.32884588851616,0.25981873597134014,0.1896274444104764,0.12017934311468925,0.05760034129131236,0.046861543091450214,0.1062829574586352,0.17414000004385993,0.24102191248048238,0.3110152195592693,0.3790542363954142,0.44572111385702823,0.5086301759883962,0.5690452509505062,0.6287828556796102,0.6643965716400115,0.6624963058503384,0.63077130842272,0.5878654166026687,0.5333991435462062,0.4787939731554744,0.4252018609134591,0.37615399366214947,0.36714764199618016,0.41236719193168875,0.4730505383693317,0.5331882461648887,0.5935242031770709,0.6540866555755052,0.7138861433578807,0.773488761389894,0.8272978663872557,0.8559768001763344,0.8628040394436214,0.8597749712277585,0.8489213145234367,0.844467290687835,0.8502716153106191,0.8537073963052721,0.8593222366273454,0.8363593336687412,0.798110934312487,0.7973729438395927,0.8385049364167927,0.8704349385890464,0.8899938721917595,0.9065101622336471,0.8674915090187889,0.8090423443004542,0.7435878156861306,0.6734551801802844,0.604232253250649,0.5381088292552716,0.4685340394655851,0.39834014663352707,0.32920351877172355,0.26305751719002496,0.19341884664631587,0.12368479024200324,0.06283506420739954,0.062352714333223924,0.12518235742848466,0.19531681911958554,0.2655189331452349,0.33572031579553746,0.4055148201675594,0.47175521940445525,0.5382618543848809,0.6004428508964004,0.65495060075735,0.6906225429172963,0.6931761087844157,0.6562539372113441,0.6081392959045533,0.5567618682180557,0.506911029509103,MI
0.6768444489713161,0.6607021651847331,0.6343120821178037,0.5422408002587158,0.4483848280522187,0.4365093769379662,0.4787833815630451,0.5371033831709937,0.6236056524964706,0.6293197224402176,0.6038580606089345,0.6288531447940828,0.6532560439726511,0.7025050483172093,0.7745233910680653,0.8755327515674898,0.9598919582672547,1.0,0.9840055517655957,0.9624713580017987,0.966836547893819,0.954831043299861,0.9946195142580763,0.9126394236236557,0.7531808134879379,0.6253327355699723,0.5153232130173784,0.5098127933168213,0.654756090036269,0.8037152127917402,0.8387473302681272,0.7913202273282307,0.7865449511066389,0.7060250811931192,0.6276242578718092,0.5360939034638212,0.49751382881629613,0.5679114705797126,0.6471365259774169,0.6605339545894848,0.6627883159260461,0.605540234282512,0.5683165142308368,0.5488394241094765,0.5583301573147663,0.6112398008051763,0.6846092588182735,0.7549812286622588,0.7872126654893332,0.7393263518795115,0.768911469539515,0.7966107281291483,0.7702960866335307,0.6584217543573612,0.533885088143343,0.4888203659908088,0.48635574962927386,0.5901118704318122,0.6101341532891444,0.5881443636642567,0.5533803085094977,0.4793092961748773,0.41831591022722847,0.4459243586171251,0.5250067135706091,0.5728369511581821,0.5574671566861902,0.5369705359614434,0.5523544896041805,0.5930172103026843,0.6516293203037726,0.7290534074010724,0.7950828350240204,0.8304908702842626,0.8162220241894929,0.833655799286956,0.8209408936707456,0.7254083465604815,0.5924434641217973,0.5298239574804207,0.5978740421134443,0.6856687986094361,0.6655365526833075,0.6854844582830459,0.6481151918432424,0.5831757320930846,0.5158693651528523,0.4643092268947724,0.5457779147693067,0.6324497262906066,0.6451638370859394,0.6087863252231953,0.6322426307590483,0.6005416330343349,0.6423016257694902,0.640122785921684,0.6870602749571715,0.7673443665583157,0.8541708181869536,0.8861207169358281,0.9092941621394486,0.9333805430704247,0.9379139553652021,0.937526414048425,0.8762302529639889,0.7400950411418279,0.6087212449554027,0.4846547017257299,0.5426830192267413,0.7005027245002102,0.7970051772126938,0.7782257540824125,0.7523815779123986,0.7023612406144002,0.608387226196955,0.5243506154938586,0.51313869726064,0.5494824409586432,0.5856943506707024,0.6149164131082223,0.6484095594856054,0.682528532835267,0.6077960393637696,0.5199831729556905,0.4081212814615025,0.4105144582554061,0.4450637429125708,0.4152638392560055,0.42040069662466717,0.36195798095683784,0.3928537804703165,0.48577487057702307,0.5661901913517937,0.654390506761179,0.6454781686251625,0.6294571415200769,0.5046223135282384,0.3485915540845417,0.25345313566993255,0.30653863659753533,0.4112603160141184,0.5648941739161151,0.6857993284053308,0.8059134999163611,0.798079080310429,0.7625751549096211,0.7760242339110626,0.7833884062482221,0.753158186512028,0.6633846897638467,0.5809255356936243,0.48554711782253346,0.5013792375961978,0.4806789003529497,0.45333094114247974,0.5155681232441021,0.4936365452641258,0.4483383566710266,0.518053106755735,0.46247975557161336,0.36074238855764573,0.30726199865869663,0.36393228979806835,0.4508705559910755,0.5168173548706019,0.5758757875633949,0.5581676081169098,0.4939710110770301,0.3370338916332205,0.1999044233867764,0.2056721230870755,0.3371641486765462,0.42479746324999734,0.5192625124671686,0.6681665436534256,0.7490028806168398,0.7236540590810128,0.7231925487905073,0.7259790013512726,0.6671028358782767,0.5865768799927684,0.5134533024391752,0.47176402175579124,0.4265350892233668,0.3910218193780226,0.4436558036152949,0.45708635854752266,0.4089986142146129,0.3305475135621636,0.2754304476358218,0.33571537560572473,0.41432705252223556,0.47613998053622897,0.49446274900493314,0.4574592551197396,0.3473423193699574,0.22921274273315895,0.07414821789103598,0.0,0.10239417746667723,0.260957030019771,0.38082944676319297,0.476214060829224,0.6049571570088199,0.6445997038344018,0.6579448086390691,0.6236128575673829,0.611248913348776,0.543250976057978,0.5251276040646076,0.4550349265770972,0.4010426786910495,0.4059810971618232,0.4690917571150903,0.4887643967309945,0.4989222034169529,0.4966122383637952,0.43741934447535424,0.3804110852423852,0.36724694191693885,0.3670261370361594,0.4487443693733413,0.5781789497088035,0.6539724911072611,0.6452940504561493,0.6698058099588842,0.5679589389878617,0.39257241300725454,0.26227591631632396,0.2895447809948051,0.3948083753116922,0.5117948141031068,0.6406112360795122,0.7839526854297612,0.856128595427827,0.8392867762480725,0.8161070534917139,0.8330323274627212,0.7633515993147455,0.6912709421569332,0.6210481357051467,0.5179581694465387,0.5109869077606142,0.506526348547844,0.5058050646294312,0.5135938291770827,0.5076936367527392,0.4388985564590895,0.3772374614943548,0.3115174022340943,0.31536293985942265,0.3979784538060791,0.4846919708261517,0.5033295651785927,0.5445960796086098,MI
0.6808125348066416,0.7076879037647557,0.7152881415307177,0.6908494244621657,0.6753004864044647,0.6401516616675402,0.6166361081505447,0.6529884250265692,0.6698667010083352,0.622392337543707,0.5476583426956512,0.4695360941378488,0.3932418097273711,0.326946810997492,0.30040376147996395,0.3743324917083317,0.460080196723313,0.5484350502699094,0.6333893514485365,0.7098074522058302,0.7959566957076496,0.8803445078393746,0.9255008119214951,0.882930948735297,0.8174039556719599,0.7735592338674884,0.7308997930035208,0.6829293114434862,0.653790681465414,0.6443650648698325,0.635067802560956,0.6000597441048958,0.5437411035822621,0.480294673071441,0.4169050494604356,0.3672657006558784,0.3853882761004912,0.4398987474721796,0.48422551281431914,0.4665227740363087,0.3944583980001555,0.31624451702342604,0.23821324394646926,0.18104887668933323,0.197480010230217,0.28082167053484297,0.372129909636739,0.4635265234833552,0.5547767696853274,0.6416390933321723,0.7286257532595184,0.8131882467289977,0.8630319046013128,0.8264279212412435,0.7654370851948797,0.7368438014906644,0.7071900313052999,0.7137723517164563,0.7540524973107141,0.7636388532890943,0.7745426948099146,0.7911376076187071,0.7633261834591469,0.7114098500924788,0.6492201113102005,0.5841869531992148,0.5505545839735193,0.588055811531216,0.6363106201092508,0.6486408204544343,0.5951633823341518,0.5211641596935466,0.44231456421642057,0.36498004189440336,0.2982459643376092,0.3001397043892644,0.38383113632585664,0.4688568293521225,0.5585809462755171,0.6497543528852714,0.736144047450445,0.823936236075465,0.9125162101704256,0.991508962698102,1.0,0.9332580668792345,0.8659386607898141,0.8174659957269776,0.7821208868412415,0.7437568641682686,0.746461138454992,0.7559870181166357,0.7307584899341211,0.7092736399377888,0.678065141089937,0.6298224547485358,0.56561079432849,0.4994497449015405,0.43558817169006736,0.38446950217958786,0.4012904165851212,0.4491465673942878,0.45645044042609695,0.39902860780439253,0.31860094539769124,0.2395193847110304,0.16963802212469004,0.13154573472216136,0.19052407709569508,0.2800983915654789,0.3650388420526154,0.45536321054272677,0.5467565197429178,0.6381219188062683,0.7267591012224726,0.8089346043461603,0.8432774147462931,0.7957097106108693,0.7340170196524269,0.702190988101864,0.6706377368275507,0.6631034073813764,0.6874386751460382,0.6945802184172787,0.7158000882638857,0.6990885956761446,0.6708833829284075,0.6585953596517486,0.6288583295817525,0.6156643485814979,0.6591212585341246,0.6888129071842295,0.7241819006151125,0.7488201079062449,0.6823249729453278,0.5932326348948083,0.5077163179569251,0.41884503573829157,0.3275264767479218,0.23944219283465817,0.15342032049414533,0.06692981616181715,0.0,0.028978920501988803,0.10265520720635846,0.1647357041029769,0.23075095217165353,0.3071538565823675,0.3821444595795811,0.4232844075648472,0.38635687757258896,0.3514041961980383,0.3735079753454731,0.431483290836856,0.49811592013055694,0.5665413824510637,0.6253571415871484,0.6686988033651968,0.6921740456113608,0.7190369026649444,0.7260761803035649,0.7002488955032091,0.7223346411222213,0.7644013215049517,0.8017665103350571,0.8490211770420799,0.880383137101485,0.8135451606633797,0.7231205633351594,0.6377364658348805,0.5486489463646123,0.4577789708449631,0.37237118832080895,0.2835869099870105,0.19770490959087939,0.12626216943829982,0.14416138704137693,0.22229173657762535,0.2979887274249813,0.3657836157700016,0.44301430622895155,0.5216527262408344,0.5913173404582579,0.5998029836986187,0.5537044144817149,0.5193573346476237,0.5485381471059569,0.6098712034894163,0.6726877647154528,0.7300919292336696,0.7603733561800843,0.7409283285025248,0.7321094707883566,0.7153893586838929,0.6717407735888683,0.6631877767292671,0.7024131702029546,0.7289040672647178,0.7693455757288774,0.7708683451379357,0.6955092845033743,0.6094622581162115,0.5216681007855282,0.43066968979373543,0.3448073332542969,0.25637613474623344,0.16654488961050617,0.08247417911786925,0.024460909735752434,0.06498836432367194,0.13767493395371533,0.19933819626845017,0.2760102985700179,0.35858777896912164,0.42900705587831545,0.4414810474464077,0.38766477154530343,0.3403848724498475,0.3335221381753428,0.3808553455593695,0.444217364059587,0.5111676084409413,0.5679065864554458,0.6060052507980884,0.6185844260568454,0.6285113136705125,0.6408323353081975,0.6900198976622884,0.7359622663242831,0.7774534355745821,0.8302563078569956,0.8223140541612812,0.7395624844318953,0.6512360058392794,0.5653717322689744,0.4746366028105178,0.38879673018264715,0.30100273949176204,0.21637368852509442,0.15155597706220592,0.18395145500766374,0.26043357225502617,0.33101186620572975,0.3990316043988493,0.4775452272434386,0.5601817227611658,0.627511320168332,0.6237533609365045,0.5856602038630647,0.5931321664302651,0.6313652982968805,0.6627389607835115,0.6886513646341854,0.6768390202554351,0.6455479462056326,MI
0.6462025240218621,0.6293709865594506,0.614004087814664,0.6063056200958061,0.6162233263133978,0.6215678451251938,0.6166276722813908,0.6120615258203672,0.6123949751863078,0.6157985075375716,0.6151893835346347,0.615217631654565,0.609211566009785,0.6038557056924774,0.6032117571882283,0.6070194216916627,0.6040268303092498,0.6010600344271031,0.5930254094363263,0.5709148754684472,0.5401779031802483,0.5015496924518472,0.45961685165674204,0.4156812681304186,0.3733956142795538,0.3326023956794557,0.2909194765462393,0.24848989822768053,0.20722248336263926,0.16674958256955108,0.12642337099818557,0.08595488274879237,0.04590089031971911,0.020433812081127045,0.03450836304812388,0.06654203197992326,0.09630595724965363,0.12587856268634956,0.1562832580751552,0.18893740951704863,0.2189683166777201,0.25376886550298616,0.29207397930804535,0.3330504222125157,0.37901154431142403,0.4225108318131322,0.4659005873816884,0.509852041607185,0.5529787375048507,0.5803932167628709,0.5888808697595862,0.6148811557956477,0.656637728995821,0.7011442407020874,0.7474344731093088,0.7933876561178661,0.8396728764225643,0.8782210219980382,0.9223765975041314,0.9711929629804863,1.0,0.97438130056022,0.9306235608320006,0.8869796012946345,0.8509792506838443,0.8081942534298827,0.7695817685133686,0.7336844648451573,0.7056535301731832,0.6911430229335069,0.6737708992380704,0.6590956150568505,0.635407422197996,0.6320461670996946,0.6429069759377686,0.6383921174064338,0.6286691927632864,0.6190036771269327,0.6077062062211014,0.5940084895460549,0.5864450283328135,0.588853823221043,0.589453422896824,0.5983060094935642,0.598730108643132,0.5871039236781503,0.5755678768357655,0.5694805091138633,0.5742501537719105,0.57013396992571,0.550055436449185,0.5197175631039621,0.4860051192170718,0.44966709100195623,0.41081969896651915,0.36662655527746146,0.3273967202662217,0.2908735115791157,0.2607910677118147,0.25165936778391385,0.2768588552931234,0.30932397615905527,0.34397243406820865,0.37965825225224203,0.4117478679205985,0.4408714296991805,0.4692964746438302,0.49755773685992266,0.5195290243033788,0.5418292364570829,0.5624630527991077,0.5787599918162265,0.6095934273796482,0.6525349442516126,0.6971375508648991,0.7416629892484077,0.7899321546788287,0.8346413341555936,0.8801618205603063,0.8920896833350078,0.8520287930350436,0.8065480132398242,0.7691520109549086,0.7412315365405326,0.7138660900610447,0.6994322785184628,0.6826468991547394,0.662139645278053,0.6445930416130587,0.6525870546644728,0.6604075403112397,0.6579494554937086,0.6542409500723225,0.6372942898991789,0.6349791819810293,0.6370070916584087,0.6338862018456981,0.6166781437975624,0.6169990273262447,0.6376132269352695,0.6595165020865308,0.6784337719080022,0.692266525942081,0.7125789464467542,0.7414182814711516,0.7598309853839706,0.7248084508239887,0.6804900379901568,0.6361275451830131,0.5927174145534824,0.561525468499187,0.5476045960674314,0.5286547763612071,0.5061984231844519,0.4836255004821628,0.4574800589937069,0.4273933361084683,0.39708859720293077,0.36567231720344173,0.33178077199599865,0.2948036377087464,0.26261863358340687,0.2352806035379995,0.21941776506990607,0.23401507873520155,0.2620425561928179,0.2972854680692514,0.3388325972196995,0.3780974577689753,0.41813889266623194,0.4554659240379304,0.4909249966346916,0.5239560349332832,0.5507996591031856,0.5510078823502762,0.547515270178897,0.5561081022875418,0.5663147377548619,0.5776169195491374,0.57683071803895,0.5704208573394511,0.5695636871375722,0.5709134224258849,0.5799076087541,0.5941482674809753,0.6043515075297567,0.6124995629378827,0.6226521641754958,0.6168171535219753,0.6053524274296946,0.6183540070284623,0.6416209425648294,0.6573146852279665,0.6747085475507879,0.6898089514076808,0.7147182874366069,0.7490020113977507,0.7851135646388969,0.8077954163759538,0.7733957936354976,0.7273328676320374,0.6809086979248207,0.6322426877715233,0.5924088283023405,0.5684600431581321,0.5591815139026499,0.528511981547058,0.48398606285341605,0.44103912671140244,0.39852111552931846,0.3553141984993635,0.3154035614324132,0.28267643188809866,0.242016931327806,0.2072152913698515,0.17688113868316868,0.14629817255322808,0.11358600008342479,0.08399835547163159,0.0554162054669286,0.024979421289657244,0.0,0.0038073812853105515,0.035687686154636133,0.07288871317756307,0.11125094959309911,0.15056266756557823,0.19179135366175015,0.23310402516116402,0.27467311272084427,0.31754175928988626,0.36310855145253995,0.40496393777585127,0.44587738146736067,0.48644969007595495,0.5257835103000306,0.5575979248962453,0.579380274792886,0.583183686487809,0.5863534775097479,0.5831944705892602,0.5801041890861276,0.5880908178086652,0.5916521560010268,0.5950603064694462,0.5918423254358911,0.5920872044424397,0.5946811896917823,0.5959991126010316,0.5990299040522367,0.5966593886806792,0.5843566749594225,0.5916895608231398,0.6086791313113034,0.6249458105207317,MI
0.45469366069818706,0.37815396053013206,0.2908658698644464,0.20816559336218154,0.14170139406614002,0.13840029853544777,0.20750630822043403,0.2796294799473802,0.3510385032855077,0.4178436901070941,0.4771894910300474,0.5216723798673781,0.5604278850849975,0.592266917230619,0.5446797966814749,0.5810350962687765,0.6774024192969961,0.7815904539088834,0.8713400546975123,0.8844359338771643,0.8067835211509857,0.7180483169154903,0.6597577657614582,0.6496790900101499,0.6431936466566128,0.6254290296227825,0.6237434913549649,0.6427005412325357,0.6505772339585745,0.6512070226171938,0.6608175452627654,0.6594711538876177,0.6675791333507446,0.6871403696664071,0.6830951901175273,0.6417588855694651,0.5755393454337181,0.4988562180926519,0.40994283098314943,0.32222798541102593,0.24171257299646154,0.16742322567663792,0.14725025352362575,0.20425811283139006,0.27233147909749644,0.34147668218432514,0.4056634619047772,0.45949463939448476,0.5025099090705392,0.5520809992922162,0.5872643925375587,0.5232876848739498,0.477971377985813,0.5538942741484307,0.6573688686292569,0.7574690658509193,0.8522553682333465,0.8771903145464455,0.8008561982429963,0.7058821729361804,0.6438995330814974,0.6277902350768487,0.5953449152883019,0.5592276971352295,0.5628684017518006,0.5756426055171611,0.5591913446772563,0.557166959673737,0.5614215078652172,0.5726814797557029,0.5846812353419728,0.5578466913737268,0.49451499771976737,0.4178469075020117,0.3369781030265826,0.2512202411935067,0.1653125725990061,0.08694762717724869,0.068360825106623,0.13529365337788213,0.21077435599795802,0.28241487418497413,0.3566212693892723,0.4295596187940989,0.48972027020863296,0.545878062252771,0.5960316540988702,0.6555194877375143,0.6467035599470017,0.6242431852654882,0.7119388828454056,0.8121715529693883,0.9143223855479587,1.0,0.989928926123611,0.9022804554093642,0.8106405489873323,0.7366598604497332,0.7124833612547805,0.6913724404699289,0.6729916250601242,0.6849175231635352,0.6971794480838494,0.696596594613732,0.6877759387221567,0.6856335602045602,0.6718182153176655,0.6745489152858726,0.676937591732536,0.6454886222210674,0.5808857316140088,0.5031208501915141,0.42132671751299355,0.34183827244285503,0.3094079168908077,0.3729508591303623,0.37771937635695263,0.3015210721237356,0.2002500870057533,0.1385849737157916,0.13704626413047416,0.20491940199598635,0.30726032144522075,0.379374112912648,0.3638390390051378,0.28677061272358695,0.23969430498752242,0.16968521772816714,0.10321880592432464,0.0858466693025628,0.13711146526951956,0.21124221773427654,0.20429496627259902,0.15923335775985503,0.18385106344866964,0.27832261606162323,0.370369451140218,0.4347748153527986,0.5205701285728441,0.5934298444577033,0.6336042764285224,0.6315697992598985,0.6350008993643881,0.6429168590334302,0.6479216348764907,0.6572351884705188,0.6497132899404736,0.6344728060737816,0.6255217402170623,0.646974549489578,0.6732103195757984,0.6833542832908877,0.7385113796166816,0.8080803400506777,0.7586175805663227,0.6546051919276885,0.5563675205720564,0.4500566792008236,0.34609026711015023,0.25763463937816544,0.2580808250471385,0.3457128372075944,0.4427264345472044,0.5293781258177752,0.5242099310535866,0.4685786538898582,0.41018839800383056,0.33877822395577284,0.2603651406433587,0.1889918266062649,0.11445844005601158,0.044817791187654166,0.0,0.032426663236165165,0.11023504118681227,0.19501474999342827,0.2753991598871701,0.35930112736117525,0.43642041113013974,0.5089241653524397,0.5393243214042989,0.525768830560192,0.5170021728623464,0.5154756679483716,0.5165496583212099,0.5299989762402433,0.5094084650519108,0.5010787604749689,0.5403968342596168,0.5804059189730997,0.595862473087001,0.6238865799439943,0.6822277298144508,0.6434203605326196,0.5406839897105336,0.4577039805837342,0.36090292084259556,0.25521409507252635,0.16334218443090376,0.14315759144777584,0.23124347603719864,0.33247015958417925,0.4303588978482047,0.4815426033658343,0.45214261340633355,0.4063227548238437,0.34507671232153436,0.2774127172959513,0.20696979197262433,0.14037042916376885,0.09348735428983868,0.10908366826671934,0.1736438631227042,0.25534911107790803,0.3419527498403081,0.4253656815829796,0.5074560307280396,0.5816087507133747,0.6362174674490424,0.645929688449566,0.6287637104148822,0.6252067621170903,0.6219689907206782,0.6093188742016169,0.6119339640675738,0.6023223570441876,0.5743759556556247,0.5722736867353264,0.5992811401523794,0.6129141761783123,0.6232657491867677,0.6842213467339762,0.731685588172212,0.65326904050427,0.5542443166432856,0.4505960384773213,0.3441161338061396,0.24609705306638463,0.1663147547503505,0.20208671396104005,0.29866726264603116,0.39607069682049856,0.4858340744687686,0.5018851306454049,0.465671333091521,0.4120113949737574,0.34742562346886374,0.2737642441010322,0.20198570275775296,0.13147544654883125,0.07809103971909348,0.0924413805140809,0.15761375532698718,0.23672115751568912,0.31254573193421,MI
