0,1,2,3,4,5,6,7,8,9,10,11,12,13,14,15,16,17,18,19,20,21,22,23,24,25,26,27,28,29,30,31,32,33,34,35,36,37,38,39,40,41,42,43,44,45,46,47,48,49,50,51,52,53,54,55,56,57,58,59,60,61,62,63,64,65,66,67,68,69,70,71,72,73,74,75,76,77,78,79,80,81,82,83,84,85,86,87,88,89,90,91,92,93,94,95,96,97,98,99,100,101,102,103,104,105,106,107,108,109,110,111,112,113,114,115,116,117,118,119,120,121,122,123,124,125,126,127,128,129,130,131,132,133,134,135,136,137,138,139,140,141,142,143,144,145,146,147,148,149,150,151,152,153,154,155,156,157,158,159,160,161,162,163,164,165,166,167,168,169,170,171,172,173,174,175,176,177,178,179,180,181,182,183,184,185,186,187,188,189,190,191,192,193,194,195,196,197,198,199,200,201,202,203,204,205,206,207,208,209,210,211,212,213,214,215,216,217,218,219,220,221,222,223,224,225,226,227,228,229,230,231,232,233,234,235,236,237,238,239,240,241,242,243,244,245,246,247,248,249,250,251,252,253,254,Target
0.4527199184186087,0.45877636625404195,0.4499748708243617,0.43100836265919995,0.420594693435305,0.42905682629502595,0.44363556620231803,0.4589256396268556,0.47006149188222046,0.4639274779161716,0.455066343126974,0.444803299582481,0.4160263177096638,0.3780350836425356,0.3366280612030018,0.297280366822659,0.25323000659985995,0.21485104598581872,0.17187757320676755,0.12726377764704322,0.0873770204320542,0.046470454240319925,0.012295405764858325,0.01754780249000565,0.05301402338388539,0.0928614486937126,0.13719729269033143,0.17610748826667078,0.21833947845517365,0.26287796867898094,0.3022257783765695,0.3439172261462212,0.3886176876820898,0.4333406853389353,0.4780636829957813,0.522786680652627,0.567509678309473,0.6122326759663185,0.65691380318193,0.6980179499774485,0.7379047071924375,0.7825240901212315,0.8272457642045005,0.8709797715087805,0.909055866020909,0.9527866448465471,0.9891334591384743,0.9723512751059905,0.9302653704768545,0.8920556369329483,0.8512397098855103,0.8116232671440656,0.7683857500857018,0.7302064588101204,0.6879200505196496,0.6505957192428459,0.6180383133434372,0.5997656748884129,0.5997520339608705,0.6131596066005413,0.6157353967482407,0.5949865263078816,0.5702747883202984,0.5460974419309782,0.5264508543228977,0.5095162938570686,0.4992861729470114,0.48578758302023906,0.46299045742082534,0.44010845585172353,0.4266517705331746,0.4190152730586779,0.4003934284342646,0.37554801815686145,0.35949921047611244,0.35704243834626614,0.3661935329107394,0.3859758543205146,0.39990966226575775,0.4159494753603691,0.43275133383751696,0.4376659742649186,0.4234634746910414,0.4103611623847997,0.4147898510616038,0.4278226825086785,0.44385157137862696,0.4555519493151211,0.45383304394446855,0.44345760490191244,0.4283471363796797,0.4036045114561452,0.3633885374240552,0.3251628881271734,0.28196789624283214,0.2382109011682222,0.20013480665609384,0.15640079935181406,0.11170166138952176,0.07001021361987048,0.030845772555477602,0.0,0.013624845666278529,0.05294922669902902,0.09143428387013663,0.1357602901691527,0.17976494323734638,0.21794885584760026,0.2613316636260853,0.30605215354637416,0.35077515120322034,0.3954981488600665,0.4402211465169118,0.48494238342454754,0.5285410678468706,0.5666056453396228,0.6105132064484032,0.6552342347550938,0.6989682420593742,0.7370443365715019,0.7808048051109094,0.8255269724835835,0.8702422688670867,0.912825565415578,0.9431887147810764,0.9784621833188137,1.0,0.9654158398454614,0.9272032412000971,0.8841110337596366,0.8442277500094441,0.8033051252014186,0.7639798648666055,0.7225691132353963,0.6838355944518196,0.6465390842359057,0.6119538033980824,0.5916278460296619,0.5991757466895514,0.6150924388185962,0.6295037904100887,0.6282405821987297,0.6070574475077338,0.5834640307710187,0.5619885754578077,0.5414730441612904,0.5317175039128818,0.5219610576147385,0.5029133227521095,0.47849568742751136,0.45064073450812836,0.4348462196150781,0.4265008823066506,0.4080911951140115,0.38248095833666607,0.36346880365256673,0.34936583234138985,0.3516428382537339,0.36650255542375254,0.3817875051796683,0.3967684393768277,0.39371508856637283,0.40017498251688866,0.4141982618912464,0.4301344346634993,0.449893766776052,0.45965063909906856,0.45578348658805423,0.44556658779402436,0.4352951492994622,0.40541271283064073,0.36450740804593373,0.32231728829866657,0.2834070927223268,0.23897331213138806,0.19619899818876785,0.15770633809343015,0.11341699577027942,0.07157226999267496,0.04469001294731756,0.061881721603256556,0.10238229110609087,0.14054366759536696,0.183924714624642,0.22752089131040842,0.26558546880316103,0.30948744254287164,0.35246026954534415,0.3908392301593856,0.435060685316183,0.4792007645369042,0.5174385861962217,0.5606327816671112,0.6053522147883427,0.649903909940147,0.6892517196377347,0.7309431674073869,0.775643628943255,0.8203666266001012,0.8649183217519055,0.9042661314494943,0.9459099585315468,0.9803059498546588,0.9614108003474634,0.9192258072461089,0.8811647032181534,0.8375660187958315,0.7928626524126824,0.7509009334336049,0.7121028443537322,0.6738094252034313,0.63773329096894,0.6130564218106828,0.607448561540758,0.6203959963231466,0.6365726751680444,0.6324270679587093,0.6080535274083055,0.579905063575939,0.54954013496767,0.5266820020533672,0.5098855554626814,0.4990478308908918,0.4905523682800189,0.4675169374532785,0.4420000658885318,0.42684061423707853,0.4299647489507482,0.42471032428963384,0.4021457456544376,0.3843922189906398,0.3693100097756997,0.37092771461063345,0.3853149337724254,0.40407710231455096,0.41419628908089023,0.40891319162834316,0.41523292984061577,0.4368046904711159,0.4543592577022316,0.47322416415393576,0.47712621553115253,0.4731432456546546,0.465283413837532,0.46008004757465637,0.42627375679396995,0.38191874849160723,0.3425516177155591,0.3008664425972062,0.25627242473409784,0.21638566751910837,0.17528152072359104,0.13060395804359393,0.08752471826357577,0.05991518396865114,MI
0.4272334637374988,0.3934872812707124,0.35804687462719187,0.322631009695991,0.2837901156239324,0.24406105236163977,0.20116277070552258,0.16753712569787105,0.13989859682633465,0.10549130358358916,0.07216296519469934,0.0400882648139671,0.01533567687997861,0.0029590289552117177,0.01528260862838815,0.03353099607779386,0.049189102547290364,0.0700348168168623,0.0835220590331418,0.10164635264889332,0.12382258661334378,0.14148497343494082,0.15642716467198214,0.17168100766658778,0.19011269372003703,0.2259155939048303,0.2617563483836176,0.2967532885219417,0.32598050774932785,0.361413964178396,0.4019820806325254,0.45378546226990846,0.4953984146936956,0.5446388961268731,0.595129098942285,0.6359244272038276,0.6880212261056009,0.7338726269753106,0.7785611077924841,0.8309434605242045,0.8722470870592285,0.9202790539294252,0.9576778151903946,0.9829922823150121,0.9738907090271356,0.9349289083169139,0.8904972273987211,0.8551884006713402,0.832354550387032,0.7987324329335572,0.7588056880753857,0.7228206464466624,0.680462646855474,0.6423418467201434,0.6232099211926725,0.610959851589501,0.6102755673809943,0.610350539479632,0.618397064111905,0.6349842432392139,0.6285244755382178,0.6153602844583181,0.6102670228282707,0.6050522430238559,0.5809956165949597,0.5558689212687531,0.5562326703881073,0.5691781159894411,0.5913342920799396,0.6079342111566581,0.6102725429891973,0.610275525184337,0.6102620804647225,0.6058737160757519,0.5949051472754312,0.5946249146923019,0.5946249146923019,0.5946249146923019,0.5946226175273273,0.5925991345783621,0.5820560191937361,0.593491822061877,0.5946247564548379,0.5946249146923019,0.5946249146923019,0.5946249146923019,0.5946249146923019,0.5946249146923019,0.5945987356658624,0.5889845594032561,0.5647204112318307,0.543740796980964,0.5189981985575143,0.48588593890805853,0.45819115446969594,0.4205268525728889,0.38026028435328785,0.3401942573593639,0.3059110918913146,0.26778712075657385,0.2323426512193758,0.19695523821643768,0.1619295010867705,0.13372639091159133,0.101587790326088,0.07300431845401478,0.046701366352913,0.03169044329225912,0.032908732873603075,0.052483861985753055,0.06257604136796235,0.07524331080268931,0.09285004865626023,0.10493624053720874,0.12429558569805366,0.1418372244795303,0.16361373784788835,0.1872932101806577,0.2120176783174328,0.24717675213348622,0.28255020500648653,0.32284481519453445,0.36572885858814486,0.41420459016657896,0.4562407736273091,0.5087670261391888,0.5521027081230123,0.5990640777438125,0.6374274286201795,0.6639686969318572,0.7114768856619982,0.764225093018958,0.8063531372143204,0.8548867303772938,0.9023681117436921,0.9453999482601709,0.9874744873864039,1.0,0.980244361844965,0.9362221423004544,0.8997123421038355,0.8609228956743422,0.8326840446831603,0.7939405586209256,0.7585941159950949,0.7220669219867468,0.6823042557055068,0.6430838005619113,0.6341896518032981,0.6415147108556205,0.6416710340388687,0.6500735965367705,0.6571751803085886,0.6572245325491863,0.6549887711501943,0.6387896284665455,0.6341923302997099,0.6268923773487494,0.6003453199798972,0.5675308332051445,0.5413695926586937,0.5478069291982024,0.5693528524605131,0.599734788718028,0.6141924852577381,0.6255363195433272,0.6255824042272233,0.6146558232891262,0.6102923001301077,0.6141281425695024,0.6246681718047529,0.6128846967186949,0.610277265284505,0.6126702338055918,0.619732648409471,0.6103254997932823,0.6014433756544437,0.5946570988205591,0.5946023152232498,0.5897540395341809,0.5888576895416193,0.5945557725633588,0.5889552123682575,0.5791285543045817,0.5789742015856691,0.5784375438384739,0.5623716143897375,0.5375186603302109,0.5164451598977906,0.4835254927361574,0.4560110731080407,0.4217350660451311,0.37684951994533344,0.33579155870443245,0.300334228065108,0.2632635718280807,0.2269055019865438,0.19410183782943724,0.1592682280112787,0.12873006038693768,0.09705533579222614,0.06319473147037646,0.032390858549359525,0.00562323785885388,0.0,0.008237695539472067,0.021192991585529786,0.042689027818971326,0.05719390819167369,0.07700093424542098,0.09403608638689143,0.11434542195340569,0.13909539489928502,0.15999359888178022,0.18267607743156766,0.20326949478965028,0.22976851765388417,0.2582638119271321,0.2796065552946194,0.32687587434211807,0.36740366854632045,0.4147905418512612,0.4569565338468484,0.5086260627960941,0.5490134287425907,0.5997469799862238,0.6379588943317671,0.672873652856989,0.7131973847567536,0.7652145165860671,0.8154091877027017,0.8563398299576224,0.9086451836595142,0.9581687244973898,0.9836235866523788,0.9806178443373601,0.9488921121632568,0.904359955886231,0.8651857343975324,0.8425410663782942,0.8129675387629631,0.777405766453052,0.7370150365496637,0.6928708928201974,0.6531045194028344,0.6417185960415974,0.6415772026595139,0.6431308871236681,0.6558032801842075,0.6572265876396806,0.6572075740373702,0.6524028119474092,0.6412174217162092,0.6277963895507632,0.6077668780145116,MI
0.4272334637374988,0.3934872812707124,0.35804687462719187,0.322631009695991,0.2837901156239324,0.24406105236163977,0.20116277070552258,0.16753712569787105,0.13989859682633465,0.10549130358358916,0.07216296519469934,0.0400882648139671,0.01533567687997861,0.0029590289552117177,0.01528260862838815,0.03353099607779386,0.049189102547290364,0.0700348168168623,0.0835220590331418,0.10164635264889332,0.12382258661334378,0.14148497343494082,0.15642716467198214,0.17168100766658778,0.19011269372003703,0.2259155939048303,0.2617563483836176,0.2967532885219417,0.32598050774932785,0.361413964178396,0.4019820806325254,0.45378546226990846,0.4953984146936956,0.5446388961268731,0.595129098942285,0.6359244272038276,0.6880212261056009,0.7338726269753106,0.7785611077924841,0.8309434605242045,0.8722470870592285,0.9202790539294252,0.9576778151903946,0.9829922823150121,0.9738907090271356,0.9349289083169139,0.8904972273987211,0.8551884006713402,0.832354550387032,0.7987324329335572,0.7588056880753857,0.7228206464466624,0.680462646855474,0.6423418467201434,0.6232099211926725,0.610959851589501,0.6102755673809943,0.610350539479632,0.618397064111905,0.6349842432392139,0.6285244755382178,0.6153602844583181,0.6102670228282707,0.6050522430238559,0.5809956165949597,0.5558689212687531,0.5562326703881073,0.5691781159894411,0.5913342920799396,0.6079342111566581,0.6102725429891973,0.610275525184337,0.6102620804647225,0.6058737160757519,0.5949051472754312,0.5946249146923019,0.5946249146923019,0.5946249146923019,0.5946226175273273,0.5925991345783621,0.5820560191937361,0.593491822061877,0.5946247564548379,0.5946249146923019,0.5946249146923019,0.5946249146923019,0.5946249146923019,0.5946249146923019,0.5945987356658624,0.5889845594032561,0.5647204112318307,0.543740796980964,0.5189981985575143,0.48588593890805853,0.45819115446969594,0.4205268525728889,0.38026028435328785,0.3401942573593639,0.3059110918913146,0.26778712075657385,0.2323426512193758,0.19695523821643768,0.1619295010867705,0.13372639091159133,0.101587790326088,0.07300431845401478,0.046701366352913,0.03169044329225912,0.032908732873603075,0.052483861985753055,0.06257604136796235,0.07524331080268931,0.09285004865626023,0.10493624053720874,0.12429558569805366,0.1418372244795303,0.16361373784788835,0.1872932101806577,0.2120176783174328,0.24717675213348622,0.28255020500648653,0.32284481519453445,0.36572885858814486,0.41420459016657896,0.4562407736273091,0.5087670261391888,0.5521027081230123,0.5990640777438125,0.6374274286201795,0.6639686969318572,0.7114768856619982,0.764225093018958,0.8063531372143204,0.8548867303772938,0.9023681117436921,0.9453999482601709,0.9874744873864039,1.0,0.980244361844965,0.9362221423004544,0.8997123421038355,0.8609228956743422,0.8326840446831603,0.7939405586209256,0.7585941159950949,0.7220669219867468,0.6823042557055068,0.6430838005619113,0.6341896518032981,0.6415147108556205,0.6416710340388687,0.6500735965367705,0.6571751803085886,0.6572245325491863,0.6549887711501943,0.6387896284665455,0.6341923302997099,0.6268923773487494,0.6003453199798972,0.5675308332051445,0.5413695926586937,0.5478069291982024,0.5693528524605131,0.599734788718028,0.6141924852577381,0.6255363195433272,0.6255824042272233,0.6146558232891262,0.6102923001301077,0.6141281425695024,0.6246681718047529,0.6128846967186949,0.610277265284505,0.6126702338055918,0.619732648409471,0.6103254997932823,0.6014433756544437,0.5946570988205591,0.5946023152232498,0.5897540395341809,0.5888576895416193,0.5945557725633588,0.5889552123682575,0.5791285543045817,0.5789742015856691,0.5784375438384739,0.5623716143897375,0.5375186603302109,0.5164451598977906,0.4835254927361574,0.4560110731080407,0.4217350660451311,0.37684951994533344,0.33579155870443245,0.300334228065108,0.2632635718280807,0.2269055019865438,0.19410183782943724,0.1592682280112787,0.12873006038693768,0.09705533579222614,0.06319473147037646,0.032390858549359525,0.00562323785885388,0.0,0.008237695539472067,0.021192991585529786,0.042689027818971326,0.05719390819167369,0.07700093424542098,0.09403608638689143,0.11434542195340569,0.13909539489928502,0.15999359888178022,0.18267607743156766,0.20326949478965028,0.22976851765388417,0.2582638119271321,0.2796065552946194,0.32687587434211807,0.36740366854632045,0.4147905418512612,0.4569565338468484,0.5086260627960941,0.5490134287425907,0.5997469799862238,0.6379588943317671,0.672873652856989,0.7131973847567536,0.7652145165860671,0.8154091877027017,0.8563398299576224,0.9086451836595142,0.9581687244973898,0.9836235866523788,0.9806178443373601,0.9488921121632568,0.904359955886231,0.8651857343975324,0.8425410663782942,0.8129675387629631,0.777405766453052,0.7370150365496637,0.6928708928201974,0.6531045194028344,0.6417185960415974,0.6415772026595139,0.6431308871236681,0.6558032801842075,0.6572265876396806,0.6572075740373702,0.6524028119474092,0.6412174217162092,0.6277963895507632,0.6077668780145116,MI
0.6932475209443701,0.7016202936529068,0.7079778095052338,0.7088684773976922,0.7091042959592793,0.7135137125138147,0.715031309232752,0.7158517092570529,0.7206596547525201,0.7212001805641455,0.7213481431881608,0.7253345081949902,0.7275948966883468,0.7320354635630468,0.7335268982091747,0.7335295819047258,0.7322878220259583,0.7212665912393446,0.7102639317173133,0.7117942022972954,0.7150747279214658,0.7216966372745579,0.7390645280037142,0.7486604751727111,0.7522287196760118,0.7567286197865544,0.7553739119272795,0.7334798559639897,0.7076142998372237,0.6810185921455868,0.6522999018315598,0.631470456154976,0.6115839938990069,0.5914775294700283,0.5653088698443899,0.5360508201056853,0.506746010828812,0.4774412015519385,0.4481363922750654,0.4188988907234046,0.39299532435808693,0.36635630145702747,0.3370827709807761,0.30777796170390304,0.27847315242702975,0.24916834315015657,0.2198635338732834,0.1906287536203944,0.16475065512362203,0.1380847878574707,0.10880991257899397,0.07950510330212068,0.05024311006151444,0.024101094478628626,0.0007695679600570049,0.0,0.021972443277691545,0.04912648322364571,0.07841705345273192,0.10772186272960521,0.1370266720064784,0.1663314812833515,0.1956362905602248,0.22494109983709798,0.25424590911397116,0.28355071839084445,0.31284465201325695,0.34026360921881915,0.3654457557978532,0.39460435990296205,0.4239091489620068,0.4532139582388799,0.4825187675157532,0.5118235767926265,0.5411283860694996,0.5704331953463732,0.5997380046232464,0.6290428139001196,0.6583476231769928,0.687652432453866,0.7169572417307393,0.7462620510076123,0.7755668602844854,0.8048635635199954,0.832514153269905,0.8575101705742738,0.8866205255002646,0.9159250639346888,0.9445189929728914,0.9492305478183549,0.9220573793403914,0.8965790381834513,0.8696890708414009,0.844871499064761,0.821776067259447,0.8054665671701611,0.7977567043965501,0.7952098937012164,0.7952431128796529,0.7988497559388337,0.80646288886762,0.8089352224900208,0.8099623857822762,0.7989654025026212,0.7840094100974098,0.7655622401624029,0.7486352370392881,0.7287736009313897,0.7099945581171502,0.6895461480766254,0.668788651006668,0.6488287390258822,0.6365818738254178,0.6405467690206567,0.6546489369676814,0.6696038430099182,0.6855391401752925,0.7013027785371978,0.7098998463530254,0.7151779257894184,0.7203276346376986,0.7251425395694682,0.7273501480669191,0.7273430616678778,0.7248585491934887,0.7212756780780178,0.7210748279890908,0.7171341447110511,0.7136390981878347,0.7091222938183434,0.7078888358869408,0.7028556213991853,0.697582459000109,0.6891273357474221,0.6748756254262909,0.6661163043082623,0.6602328541264978,0.649056012339221,0.6529215855905525,0.6706087687231026,0.6834869689832213,0.6892579056882765,0.6909750818904937,0.6952987781746133,0.6827531077619022,0.6542945548035619,0.6269752375282164,0.6016876666402863,0.572536737996405,0.5432319567804827,0.514061119379898,0.4887671233855131,0.4614707951740171,0.4321783278173619,0.4028735185404888,0.37356870926361563,0.34426389998674245,0.31496960007395025,0.287686113246577,0.26236758092452095,0.23321025934608264,0.20390546941557997,0.17460066013870668,0.14529585086183355,0.11599152859214362,0.08723506397838382,0.06274001693597603,0.03435772274346738,0.01152995958446651,0.011801326610353824,0.03730261771931509,0.06659357842270625,0.09589838769957948,0.1252031969764527,0.1545080062533259,0.18381281553019913,0.2131176248070723,0.24242243408394537,0.27172724336081866,0.30103205263769184,0.3303368619145651,0.3596416711914381,0.3889464804683114,0.41825128974518466,0.44755609902205784,0.476860908298931,0.5061653482305831,0.534917258999011,0.5594647128856258,0.5879154877829031,0.6172193388700936,0.6465241481469668,0.6758289574238406,0.7051337667007137,0.7344385759775869,0.7637433852544602,0.7930481945313335,0.8223530038082068,0.8516578130850798,0.8809626223619529,0.9102674316388262,0.9395712826437645,0.9681941323603396,0.9922355910602836,1.0000000000000002,0.9738717698076484,0.9479582709550036,0.9213395627721295,0.8937190084949758,0.8687774268232158,0.843240775628203,0.8219288063245795,0.8071670985774866,0.801566350956896,0.8020574114460963,0.8082034691542404,0.8135400357199589,0.8179277213814709,0.8185207217538961,0.8085386407231601,0.7956960724547513,0.7808912459797652,0.7630268729166474,0.7449724911539468,0.7250324692792198,0.7044035696830827,0.6838000960763428,0.6613258068848896,0.643525302060286,0.6355961444344586,0.6408500342509248,0.6577238978232726,0.6788562278003105,0.6964781488618824,0.7106923767098177,0.7222815795990776,0.7284379101827041,0.7331608792970807,0.7335317583146217,0.7335318677697629,0.7335318677697629,0.7335318677697629,0.733531658639438,0.7331083077480525,0.7283956152895645,0.7273496171550458,0.7250387081698071,0.7213012539992447,0.7212006478208945,0.7212006361433558,0.7212006361433558,0.7212005336598799,0.7208203774807007,0.7128536707040816,0.7034195306915555,MI
0.9032295772385084,0.8964137269054342,0.8919580969122982,0.8923602286496564,0.9008203684235689,0.9073888250017941,0.9088148115749235,0.9063583962334625,0.9013284608581653,0.8970989983549233,0.9066498211552483,0.9200962537230004,0.9369975192686804,0.9416812023966779,0.9359277311191658,0.9076774183058649,0.8689619019613999,0.8334285968360144,0.7964930466732446,0.7571124235126998,0.7177234104780859,0.6805547309223098,0.6452269749888775,0.605986241310117,0.5665775777400869,0.5271688969801518,0.4877676608271666,0.4500530011463396,0.41987709056304323,0.38914270390400785,0.35837289327627386,0.32321682377772487,0.28436001761351715,0.2534465756541759,0.2201709485063177,0.190503207357977,0.15629711467031576,0.11932354564522085,0.07994162737161531,0.040601559778126406,0.006635314785111174,0.0,0.0281151065806039,0.06377771066968235,0.10309167494238008,0.14250035570231512,0.181778104219194,0.21726158765256087,0.2542415566159556,0.29362652071499296,0.33303520147492793,0.3724438822348629,0.411852562994798,0.45125923781898436,0.48976295146771687,0.5242534329716516,0.5629796655334788,0.6023874087674108,0.6417960895273458,0.6812047702872809,0.7206134510472159,0.7600221318071508,0.7994308125670858,0.8388394933270211,0.8782014167111352,0.9146078173785896,0.9480831629473374,0.9641668702582686,0.9691915958655857,0.9768462825021005,0.9722191237806255,0.9552926640120136,0.9328539274939065,0.9098113665752814,0.8859982114270302,0.8614815531624915,0.8360171685419611,0.8132825169044682,0.791963189908351,0.7806340787133752,0.791408082322822,0.8175481967765155,0.845123885425809,0.8713641711699853,0.8948850142926985,0.9106565086577085,0.9170431136853279,0.9218458515101664,0.9222399437226925,0.923109389117162,0.9296149408403487,0.9374059207970062,0.9417181398692711,0.9453510318648115,0.9484502433801676,0.9504082250420651,0.942517031825274,0.9323280247514243,0.9345835264168472,0.9441013857490315,0.9556426706898609,0.9610789461063391,0.9586152313484047,0.9346376594499186,0.8959610530071245,0.8565529806634167,0.8171586440283217,0.7797418449899715,0.7446188418805272,0.7054267756480631,0.6660181348908039,0.626610734102336,0.5879881137562746,0.5535180869946509,0.5148905946511474,0.47548328911819016,0.4360746083582555,0.396665927598321,0.35726506767813015,0.31954423490761075,0.28467212610361564,0.24553969462929037,0.20613108182570733,0.16672240106577269,0.12731754104729176,0.08911696844200673,0.054577952913813454,0.021457776573055226,0.021657931985775286,0.055415194356811026,0.09476828246094299,0.1331460458588561,0.16765734096022994,0.20648900349599408,0.24589709518320657,0.28530577594314116,0.3245932420796658,0.3601205522067086,0.3970481015611095,0.4364319409558194,0.47584062171575403,0.5152493024756895,0.5546579832356242,0.5940666639955594,0.6334753447554942,0.6728558501784885,0.7097877318544195,0.7453248116293111,0.7846015097681723,0.824010190528107,0.8633824543225324,0.9000574749273511,0.9355071264808752,0.9659700888742135,0.9847845758557245,0.9963254372960915,1.0,0.9923459170650419,0.9757054843389403,0.9532087728224148,0.9261163249240962,0.900008962812451,0.8754275486990004,0.8499332093576699,0.8269442500010538,0.8055709413122407,0.8000287952521236,0.8135546646536942,0.839366578984869,0.8687066183067313,0.8961135786599372,0.9198076623384239,0.9370729429726445,0.9440463803054677,0.9450486593223306,0.9481995512475228,0.9483310022270699,0.9514875600886217,0.9569442201142639,0.9584005322538987,0.9592016699854506,0.9609392898590157,0.9554891022018237,0.9446151019014652,0.933704877948166,0.9361600296909278,0.9519925354486369,0.9607374335382812,0.9574158005068922,0.9556366232522611,0.9351418678802341,0.8974404428628151,0.8606278716467219,0.8249956897071478,0.7856990313178335,0.746302520254374,0.7087843766386339,0.6737450049643396,0.634572816984589,0.5951641855452207,0.5557556712221206,0.5167041471139733,0.4819546529816846,0.4440311773854285,0.40462933977260784,0.3652206590126731,0.32581197825273844,0.2864035898818375,0.24745338314953164,0.21290596282923868,0.17468237991077828,0.13527713248012557,0.09586903478509867,0.057091735181998754,0.030812702384722362,0.04444649560643085,0.08000151304355663,0.11935030813155051,0.15875047241385587,0.19654224379531687,0.23138060462489607,0.2704765843163213,0.3098851539041634,0.349293834664098,0.38869941404673525,0.4269881436466543,0.4615141518082887,0.5004203424290771,0.5398286804367108,0.5792373611966456,0.6186460419565801,0.6580547227165163,0.6973991808203314,0.7336026049572995,0.7698325213343897,0.8091808877291945,0.8485081869611371,0.8845065497964766,0.9207940678192903,0.9483211252090324,0.9528136511848337,0.958568352187757,0.9529083754281238,0.9370177853984833,0.9174190267341458,0.8925541565362738,0.8658285850347844,0.8418257990814766,0.8153201414540334,0.7878478375685384,0.7688471507131794,0.7564364641817363,0.7616425860312281,0.7827198136378166,0.804151596083048,MI
0.335396965981821,0.27734526359851275,0.21595489188999384,0.16167533539972467,0.10051596276829278,0.04405898123565555,0.009128195896312752,0.04215362186870619,0.10356072037228636,0.15857439600848777,0.21833369917910717,0.28095606507864757,0.3435933986245656,0.4059051032584362,0.4553171609831639,0.47884627283204195,0.5214078138876128,0.5801206957788603,0.6427317754971509,0.7053691090430694,0.7680064425889876,0.8305574652258334,0.8880916335140305,0.944784546589154,0.9799751520028062,0.9403487870822491,0.8847810296186045,0.8327043607095452,0.7899068881722819,0.7568419837232179,0.7351966514766568,0.7158615489325342,0.6971361603522985,0.6736094047034433,0.6425054755198834,0.6074445466537397,0.5710233099411288,0.527004561529262,0.4835356100785888,0.43344635204384807,0.3897505794761065,0.3455070157107778,0.3090694370016709,0.2824695085743725,0.2985461093761095,0.34091815700051886,0.38840339974748606,0.43820730236696304,0.4864331918276694,0.5364594272851779,0.5846495544056554,0.627676947792009,0.6654554086135751,0.6807176645577295,0.6769164620743586,0.6705630636331139,0.6717912514276276,0.6823177305481325,0.6916248353603252,0.693759611547222,0.694267923095917,0.6677135792830124,0.6433873805068886,0.6227477170497326,0.6410528977429639,0.6773836087080749,0.7034770775785071,0.7307682217438616,0.7498609630298396,0.7567649879182785,0.7316708773972411,0.6793634442755108,0.6175636048119788,0.5604060908934805,0.5030544126541525,0.4405232304590092,0.38040180381840627,0.3320476504360299,0.2901227416263217,0.24629690136013815,0.19257235696131958,0.13380719307251754,0.07938478362975387,0.042251258524746316,0.06856663287066311,0.1264334482479872,0.18104780980936042,0.24306455535082194,0.305701678331356,0.36833825130192177,0.43009995298645265,0.4844598216174185,0.5453000144643434,0.6079332568605298,0.6705705904064485,0.733206490191928,0.7947090586330714,0.848961733670792,0.9101674069490919,0.9722185452104333,1.0000000000000002,0.9481751742813451,0.8890653667963668,0.8370023333715899,0.7944260684961042,0.7574472278598194,0.7377093607897793,0.7188729202911581,0.6971622095039707,0.6748272341033379,0.6467440673548936,0.6105888318076653,0.5743763007950029,0.5350740499773263,0.49371196825884334,0.447376104437023,0.4041735092421366,0.35803389544505526,0.31251662451877027,0.28168283489882473,0.2892741340682865,0.3248756773312542,0.36995445919174585,0.42605505815796607,0.47799557165090234,0.5281283820202372,0.577513265472184,0.6206385196582427,0.6583384264269951,0.6795401358905371,0.6808146547291829,0.6730655106617942,0.6713734493425976,0.6805138150772136,0.6928624818807605,0.704703577659308,0.7059067092920024,0.679866220003468,0.6453435392723548,0.6280486833653687,0.6418849668554027,0.6772685954877276,0.7097386757608519,0.7403285473721408,0.755062966567019,0.7517769412020976,0.7363338248175382,0.6859561265171934,0.6321536986251608,0.5711853061369794,0.5159445024985847,0.45647450804485534,0.3939109732708632,0.33572218097350914,0.2793661488148662,0.2173929570510662,0.16245112162268138,0.10324272291218928,0.04882919280183318,0.002010350490048829,0.020603430032984038,0.07977377258555673,0.13648884931624372,0.19428463768607007,0.2568548688377288,0.3194922023836462,0.3821282057360631,0.44367391414152424,0.497939807189794,0.5590892527094198,0.6217237809128204,0.6843611144587392,0.7469607570237338,0.8055565595473342,0.8615382569230914,0.9236519581714864,0.9596284512624604,0.9217186401582589,0.8794094056830988,0.8358186499081213,0.7921510315235678,0.7577863079861034,0.7378878448808839,0.7185458578614881,0.6998472642215365,0.6749694336532193,0.6457108411605892,0.6131278669587643,0.5772902125255102,0.5309139737017681,0.4858293844278412,0.44011910302597834,0.39900857155038927,0.3590048752154089,0.32551024094255676,0.3182051245216444,0.3499253860109037,0.39390746383161446,0.44388107206876204,0.4936746879571048,0.5410084951040706,0.5879843272364327,0.6338377938552724,0.676191323980843,0.6918595680866892,0.6889198539159669,0.681671620333675,0.6816975097477602,0.6890989836664478,0.6945682966438627,0.7029367008394756,0.7041309385281953,0.6829111129074732,0.6560787408283562,0.6314241386477832,0.6422520587966887,0.6733574137312999,0.693058446197409,0.7266350297403534,0.7385559681888674,0.7412935555219387,0.7044232287984582,0.6519305910332596,0.5925026084962177,0.5381628338784366,0.47731891140508087,0.4198167388062424,0.3628097639925567,0.30031354278461553,0.24137952141642538,0.1856844939270259,0.12364412946079262,0.06822283924917616,0.014374536092445434,0.0,0.0464821126867605,0.10073246035690553,0.1625127898463925,0.225145626717405,0.28607770974928437,0.34042353534821945,0.40210716718503114,0.4647437968409509,0.5273811303868692,0.5900184639327879,0.6526557974787066,0.7151609215361447,0.771884022940478,0.8296798113103019,0.8922249213848594,0.9446789713163433,0.9195506456849227,0.865996439311872,0.8121899831631036,0.7731626802436844,MI
0.24276523514732884,0.2090422817703188,0.17303426990687254,0.13945855196282753,0.10477480384111604,0.07120869410247355,0.03460177886646176,0.00754652405906836,0.0,0.0211540683657081,0.052586608551109304,0.08667529464193435,0.12077126024478269,0.15544944392397142,0.19045578005450048,0.2306580208856036,0.2716103531337444,0.30613633955533825,0.334143898159311,0.367408505357081,0.403745924002921,0.4424286638355759,0.4784771006103229,0.5176432239342345,0.5515297760084436,0.5792444925251284,0.6136464062782468,0.6506896033729156,0.6885360314155241,0.7242083405589631,0.759864484030112,0.7946985813963713,0.8307276155128883,0.8644027923581884,0.8999906425601288,0.9302609055899024,0.9487149320445972,0.9490256715543391,0.9434702436414925,0.943025183620179,0.9430249464831967,0.9430434553115369,0.9455825496321929,0.9504843551154373,0.9544315857858182,0.9577290659909564,0.9476961504985274,0.9311833122320482,0.9359079104752505,0.9507036352939754,0.963311807278267,0.9719480948611531,0.9829912853875847,0.9999999999999999,0.9851124724324302,0.9459556586859464,0.9097047421182219,0.8698047301733259,0.8281479749718496,0.7891568638267631,0.7521592173509041,0.7106391133025377,0.6689574621426285,0.6288788787479432,0.592725326119503,0.5514764027268267,0.5120618707537389,0.4880100426107581,0.5073074297457616,0.5425513100966602,0.5837938851317866,0.6249636647082341,0.65975398902788,0.6788337703642174,0.6718034461822543,0.6540231154422279,0.6299213414790864,0.6035511647621278,0.5750685630860707,0.5440696130939694,0.5128034036072112,0.48082752036451826,0.4462815538890199,0.41253961571305775,0.3737084004904301,0.3381292731148925,0.3034121112732223,0.2689177400888657,0.23502401146221497,0.1992214112675026,0.16580612039245402,0.13247055136321417,0.09984140703876376,0.07188369284265228,0.0613112391560936,0.08043097457675485,0.11037326292427085,0.1425753320604659,0.17738581367714512,0.21343974913019437,0.24934900921502734,0.28484626724997486,0.3203782417405384,0.35744349960374044,0.39460429385331497,0.4307533161944327,0.4690635899321335,0.5051940561519541,0.5464741948526665,0.5876202521414707,0.6235561500581038,0.6606111130207754,0.6965355775215049,0.7323649140778982,0.7685711051839598,0.8045613177211784,0.8377894305049051,0.8703378090134538,0.905901977549393,0.9358503791242304,0.955005681371932,0.9536060273126422,0.9447429756029936,0.9430300891093252,0.9430249464831967,0.943025036854059,0.9434116503594568,0.9488874850978847,0.9522567748639564,0.9577473560273905,0.9545144229750645,0.9425546768651821,0.9242523497179495,0.9264681670876868,0.9432616181438326,0.9569043620427368,0.9672618269554772,0.9761350450647684,0.987555072941552,0.9598009859406059,0.9237699595860008,0.8841139213982433,0.8479755528496234,0.8079147873161575,0.7662324488730025,0.7249498777071363,0.6888102911634454,0.6487419711264492,0.6070608703675743,0.5662961032176473,0.5329039316710548,0.5268382949088549,0.5623160392562853,0.6038868305725097,0.6411230078321958,0.6707400132448654,0.6822201774272684,0.6714086048459004,0.6488801107445076,0.6229133386940923,0.5947642409646209,0.5648896242757427,0.5344301611996608,0.5016059833086476,0.47016896207634673,0.4367423951459011,0.40207413162018213,0.36699263384348346,0.3288138353349964,0.2939172250890648,0.25921911168091305,0.22539615677399172,0.19204782858323488,0.15870470498886136,0.1260697140914897,0.10190208377981058,0.10109008276414488,0.12436426218404484,0.15684225540071484,0.1901716067386725,0.2237781419521292,0.2586062139310339,0.29579845389940873,0.3317519405187267,0.36787325179384933,0.40392188953021224,0.4412142301014542,0.477282480032468,0.5155857737893889,0.5515623581950123,0.5877308826321265,0.6272731197515434,0.6680074446028282,0.7037890202404739,0.7404782874900514,0.7753106228706607,0.8101033327838235,0.8448683913301457,0.8783138844932309,0.9091497887428076,0.9357121447444207,0.9486383880066843,0.9423723128929798,0.935952820098145,0.9354485037368564,0.9354481168620371,0.9354481168620371,0.9354556781342803,0.9372617335736372,0.9426760514602087,0.9423059893647868,0.9352555302592757,0.9199239394324498,0.9177879655530744,0.9322175828189222,0.9475634790255033,0.9566832915947664,0.9661436118554966,0.9771017675127324,0.9652203803599538,0.9303095489470753,0.8905808887434757,0.854515589634203,0.814303734030139,0.7726291844455205,0.7328742628248203,0.696499651079031,0.6551351321575191,0.6137614282213112,0.5773877209828774,0.5385393560407427,0.5156659012073684,0.5346191286356062,0.5748524264960603,0.6165333469848201,0.6560055248804998,0.6739840172495967,0.6682446595623287,0.6519420778442607,0.6248109350636822,0.5971113006848664,0.5702479278618188,0.5394103161488614,0.5081472738163377,0.4761728033564563,0.44755679263206705,0.42122475303438445,0.3882199544800471,0.3541004590440201,0.31493224563905364,0.27978215910483994,0.24511343875282088,0.210854259272378,0.17747907654217132,0.146082089270133,MI
0.23869525977364253,0.26850450013009447,0.3033679012227411,0.337435206158927,0.3757087824473226,0.4132438208752606,0.44755860815348353,0.48602412434059133,0.5231375898775996,0.5577381018688135,0.596157950057377,0.626555909321979,0.650158075696462,0.6873002186815318,0.7214506816430633,0.7593152720694889,0.798176384462151,0.8365662277900543,0.8694618735836845,0.8981867102099315,0.9335100653711905,0.9639309636451658,0.9684535504641905,0.9370773330172439,0.9008038615394225,0.8776305502178889,0.8630876803273335,0.8462251289935969,0.830891616623123,0.8223494556932902,0.830298872710246,0.8288353223822025,0.8203635469125707,0.8055827005276237,0.7953242106162957,0.7899145143997199,0.7916379374275768,0.7921872227625248,0.7752859476469849,0.7465590360649488,0.716291036215079,0.6842843514379491,0.6511735221451977,0.6174101260598774,0.5829034040826306,0.5485969952647274,0.5138090664117516,0.47934104696857244,0.44343472043326443,0.40922923963228824,0.3722829946950201,0.33811203237890347,0.30383046401603925,0.268667819774525,0.23402042709246434,0.19850035310196884,0.1626532657440432,0.1256074899599467,0.09218213190102781,0.05894934897248566,0.027220306374084235,0.006300217778462347,0.01813158760407213,0.04258436259989956,0.07021027783671602,0.0953048173089342,0.1168160276374875,0.13451420215845783,0.14737780663541217,0.17355221131702908,0.2063997590313747,0.24095773618387067,0.2774717801187006,0.3158430738287457,0.350031059021432,0.3877697057947989,0.42660955771271775,0.46327978903282013,0.49823975463505094,0.5369134591680829,0.5730689807592353,0.6084799309457731,0.6450727272522194,0.6798094821680516,0.7131074331765133,0.7410867791954172,0.777649413302095,0.8165019235601256,0.8551610680914996,0.889860076845888,0.9268356489233631,0.965659482430913,0.9992730573362802,1.0,0.979356255545379,0.9466767357148476,0.9118830898996333,0.8873961973019766,0.8708840799552371,0.8505609551647488,0.8329665979957712,0.8240375165469318,0.8349248526074855,0.8444197501114175,0.8400277520258665,0.832003878607128,0.8215020213536341,0.8068303541468496,0.8012945779623595,0.804488768104322,0.8071311139398039,0.7994687844544879,0.7747252816675092,0.745563728371442,0.7150232137440602,0.6837410469949121,0.6512234469080453,0.6161285883190408,0.581935187498452,0.5477120204311725,0.5125540851120514,0.4779271992434366,0.4432956111714296,0.4069975739285768,0.37286851072754296,0.3362705638516373,0.30241831214152,0.2685395374338609,0.23095198360894748,0.19238692054746348,0.1580929344792002,0.12474377187721869,0.09135954311102784,0.05806321857295743,0.027316695072884867,0.012831916849126601,0.032128777198866476,0.060044395390545346,0.08966314667625869,0.11568397722418983,0.14015780532328764,0.1633024141821336,0.17759588615822913,0.19383354614563947,0.2247760623703277,0.2581423565308703,0.29328896401449495,0.3300736747244189,0.3648472569727887,0.4035086155111756,0.4421453804426259,0.47674881041644196,0.5138350720800382,0.5513460459584714,0.5854596580905984,0.6167856737499935,0.6398910718762427,0.6767917348609365,0.7156518549330613,0.7545160277210516,0.793370713227624,0.8304843234130086,0.8649279246820005,0.897505368870426,0.9260831900406865,0.9583779158836141,0.9631199875669552,0.9349335058244479,0.9002803816593423,0.8709271817799147,0.855991819456025,0.8401117610996607,0.8292016034815595,0.8187243681770027,0.8305909951597776,0.8350673516585942,0.8335606694621585,0.818872861465018,0.8092521060209505,0.8018409386293943,0.7898184606915293,0.7821685095209134,0.7761556049295322,0.7739492742046028,0.7736155737698771,0.7576745645602219,0.7324594485925204,0.70217015795857,0.671067435136014,0.6387895184819969,0.6053927603595062,0.5712878304414939,0.5348352033070656,0.4968815619853803,0.46278631444179047,0.42723458368718586,0.39191176800649524,0.3561467526828141,0.32130158647557777,0.28748078761990475,0.25353134000376903,0.21708801667046868,0.1830683011179431,0.14824532967958853,0.11485976198566589,0.08236065693334299,0.04910266911541733,0.017965693835711005,0.0,0.01661372390892707,0.04078087769251976,0.06598047554760239,0.09016812747419972,0.11147451440265072,0.11996863468007818,0.1369532609716802,0.1658267854452769,0.19921078903835993,0.23715970310673223,0.27160037275739085,0.30893869418594627,0.3477950802214141,0.3866592530094051,0.4255234257973948,0.464227341916347,0.49917664378351173,0.535833169527878,0.5720907594452669,0.6037096410484715,0.6299196440897064,0.6661960316931981,0.7026918068309524,0.7377933781179593,0.7765308597750087,0.8153950325629995,0.8540778796995618,0.8886603475831512,0.9171143429406661,0.9417983718770944,0.9393340939608534,0.9119277325718491,0.8845905381494654,0.8548217976409735,0.8402339484358969,0.8252672922689195,0.8045576648616992,0.7856997358598332,0.7843566942498486,0.8024064324084013,0.8130175045420809,0.8131120775350711,0.8073032932529149,0.7986695241877673,0.7903421215437276,0.7786398102590073,MI
0.617061446544434,0.5910561450986553,0.5759822551754665,0.5625995698646209,0.550811053341562,0.5445957262928527,0.534268775659912,0.532989937378469,0.5300889490043834,0.5368776314818617,0.5602642126364823,0.5889728838007264,0.6201798220570025,0.6530500728700477,0.6845007667109149,0.7166889872467663,0.7530088137827633,0.7869065007969687,0.814348967976732,0.8379804316810837,0.8325899344850614,0.808234101349212,0.7789560050851663,0.7462509163080118,0.7161143782381321,0.6876664872637146,0.6639366708425971,0.6433225044800153,0.6267693341176217,0.6163655641777788,0.6096877565944916,0.5882641251673753,0.5604569212336972,0.5270007541677166,0.4926391094028491,0.4580649666282027,0.4201580545157458,0.385551525913491,0.3485740225778193,0.31091933426033364,0.2766691045094057,0.23923063130090633,0.20485182067739832,0.16760359102772293,0.13215165219813985,0.09624705743116996,0.06868888553299601,0.09124534193553457,0.12938696286779783,0.16469640747297837,0.20064108823924248,0.23541651109239875,0.2721251482917277,0.3105417932522518,0.3488244487915528,0.38378666979929427,0.42030431661727913,0.458659370855309,0.4944118730756201,0.530090659143112,0.5684555647255924,0.6061208459706149,0.6403983729768392,0.6782011476843297,0.7166305108155111,0.7548884513473317,0.7897509674437448,0.8263870025717404,0.8637964744084854,0.893994522238341,0.9270430399439475,0.9633353107732883,0.9949115870215621,0.9940933876147717,0.9641335902732124,0.9296453285223143,0.8928654708250019,0.8583525677185311,0.8228111680206187,0.7872039570421101,0.7488770235951223,0.713040975616285,0.6854629042884592,0.6758600279144591,0.669184962012265,0.6612688070045802,0.6535093533625964,0.6358180817882595,0.640577110944625,0.6489601781695529,0.6486422956095539,0.6429871062395243,0.6388577833764293,0.6310857427999816,0.6201589739175755,0.6112756630464389,0.6180742179497274,0.6456721397764407,0.6762658789430238,0.7095935337911028,0.7405942078711145,0.7684337551400271,0.7927247051466808,0.7905327936412747,0.766109776401849,0.7367554579776177,0.7075502489962846,0.6765592208100009,0.6477494183982346,0.6204887573762623,0.5975743450336173,0.5760920697754843,0.5577935619805492,0.5408323559209274,0.5233716183498858,0.5031557863845451,0.4739808267782854,0.440962861767965,0.40725219013937225,0.3709931767579217,0.33510887482843593,0.2995894937687477,0.26126695295139296,0.2252061703864539,0.1898317025534973,0.15253971917494535,0.11818337093236764,0.0817032494997838,0.047048015615458294,0.009744679628110986,0.0,0.034138159267763146,0.07254789937466749,0.1090870459336577,0.13713393004862123,0.16973806335694752,0.20432766167455813,0.24199106942805942,0.276291773288665,0.3138237356772215,0.35094721148978775,0.3854588749720164,0.423568899916032,0.46127961559719294,0.4955474476071335,0.53331413167344,0.5717433910121283,0.6100192266100686,0.6449378701713857,0.6815041770873287,0.719916508033986,0.7583255085892104,0.7947658432924765,0.8298018416786335,0.8672194694476991,0.8935290657010524,0.8832964807955042,0.8477551561545718,0.813453591871214,0.7767465921449443,0.7425312870756877,0.7071821780791547,0.6751995051566304,0.6678789906250031,0.6755376904299486,0.6712835510012398,0.6644459944524894,0.6556751000141481,0.639722305306367,0.6470551522010568,0.6465932064966813,0.6337731023801418,0.6246177022932953,0.6069013513217101,0.5915245456691554,0.5760779081289606,0.563863936802792,0.5486829872301076,0.5385794616224111,0.5529070507341247,0.5800997489968107,0.6093000739262653,0.6403441050278933,0.6698153478282547,0.694847689806068,0.6986833433077868,0.6782276137503116,0.65052516665927,0.6237350003872617,0.5939941941027889,0.566102322396602,0.5399483383974084,0.5192731491467601,0.5119641175404896,0.5137729368807029,0.5028181649455306,0.47828124280950474,0.44552944716970583,0.40916314014909566,0.37080260096010903,0.3349202396910345,0.299376706029502,0.2617259591176441,0.22747097263414634,0.18988148161616686,0.15550532457697264,0.12620395403337437,0.09397523112450279,0.06010092574382325,0.05949530006838055,0.09330974343227999,0.12876404483733156,0.16693233804928126,0.2017732652564031,0.23811810270332517,0.2725602832848422,0.3096010378933535,0.3446013458807708,0.3810703326007982,0.41945874306940295,0.455943517030787,0.4909434897672644,0.529221730211688,0.5676116990580908,0.6036216410108302,0.6390486366974171,0.6773948097408229,0.7157540883150633,0.7512760296651357,0.7871824985238727,0.8255665057682846,0.8630058670179013,0.8907176764692886,0.9242845071149857,0.9626215596877661,0.9971817782539432,1.0,0.9724954816296805,0.9382237424558886,0.9033379151782415,0.8682785362103547,0.8321225359573503,0.796898775904413,0.763364069367503,0.7349339444585721,0.7252841909344574,0.7130155690775029,0.6965657865764818,0.6799353759300331,0.6665085234288115,0.6444045295120058,0.6464874370569911,0.6587184395304104,0.6603439426552995,0.6546717176958399,MI
0.07592839402307505,0.10496617410114872,0.15255279142648814,0.20587734774051336,0.25768258032855984,0.31446725220941607,0.3662954475031739,0.42387878742173446,0.4834526908527672,0.5368895364293795,0.59242170089217,0.6465084273218418,0.6914678378719046,0.7500551811396194,0.8038039221485782,0.8590446329519525,0.9186426010908293,0.9721414105177262,1.0,0.9741912177473795,0.9213075429152924,0.8634628530570714,0.8118212680479671,0.7529044339611719,0.6931432822856065,0.6344585580475717,0.5829114908845283,0.5245980974083739,0.46484598396986465,0.4081329605297743,0.3672267094712991,0.3268745280459733,0.3207200563863615,0.3142072382504608,0.3007499644597533,0.27885176097464925,0.28609597681993093,0.2986816106880894,0.3082457751392744,0.31157419567702527,0.3112105987483391,0.3000213460544643,0.27639157261401315,0.2379258422923931,0.19399817410164122,0.144755432204285,0.09820936335414099,0.05894028361498216,0.021402969665121896,0.0,0.01396674652793184,0.040360287966249686,0.05711881297240806,0.07663339684078507,0.09793309361924663,0.13105151250082203,0.17472121145608632,0.2228565352316043,0.27981217745966713,0.3333674998741458,0.3718408627419758,0.4269299480365083,0.4866685718492323,0.5454233144616731,0.5969979524330769,0.6552141198033037,0.7149405623669698,0.7708831620896777,0.8239918965537676,0.8822457984936238,0.9336966580530253,0.9824672560188779,0.9745664027616794,0.9242505005478794,0.8646825466067165,0.8070778903883871,0.7552523135648821,0.6961340963626133,0.6364909158086389,0.5824930988281096,0.5276770646809856,0.4740295827020429,0.4242291721591869,0.37636139094614873,0.33371532028823103,0.3170289247709792,0.3148432606170275,0.2982668284808021,0.2860081174898208,0.29604621102837014,0.30299101601599343,0.3095909913959525,0.3119885927092201,0.3093981494987892,0.28562589498449986,0.25031879048503614,0.21263383758503762,0.16718007137268742,0.12614662975252644,0.0822791942415606,0.04166476080687476,0.00993088840663181,0.017194640524189175,0.038074659141431155,0.060083631390653425,0.07954562196130355,0.09480990307708259,0.12429080532934678,0.17280985191234177,0.22592694561231674,0.2815564457403268,0.3362848697646317,0.3904735185762176,0.44996409023516026,0.5035885332541139,0.5589595286911222,0.6186685521424709,0.6772226824029528,0.728667113379946,0.7798864622190811,0.826135859632164,0.882553947123446,0.934200262627952,0.9750512123724473,0.9611260484675435,0.9115861341999767,0.8569125992413262,0.8063572258371647,0.762717183483911,0.7057798533494468,0.6538838994303346,0.5963674544818502,0.5366122393960131,0.4768795620318884,0.42149922453098543,0.3810451107210324,0.3430281399774766,0.334440900257329,0.33748175161116367,0.3248872908105829,0.3009793678696182,0.31134145637323574,0.3225967767800144,0.32297942090827236,0.32802388005006655,0.3312891398723592,0.31854902273006225,0.2949851716505809,0.25736650657722104,0.21481541675364024,0.16793744125991106,0.12623446748453482,0.08457236411074032,0.04746558117316857,0.03045227405773887,0.046008850675878676,0.06883070018977078,0.08259655077457717,0.10186059758348787,0.12412416698273931,0.16148885462944929,0.20962943392048872,0.26212373903746955,0.3205190518249379,0.37207989722097,0.43036528122080964,0.490088271902009,0.545907603305952,0.5991285898324197,0.6586659353500126,0.717417891679788,0.7689918424527868,0.8270339408653702,0.8805174919772263,0.9357528652091172,0.9760656908255365,0.9541990651932792,0.8994515764626785,0.8415637480505889,0.7898940531809497,0.7309464522292912,0.6712810753575047,0.6168641268278425,0.5626329864420008,0.5100717338003546,0.456756229410213,0.4086004989367098,0.3664841999248942,0.34487085132227024,0.33827071011510346,0.33460174486525296,0.31509421823794814,0.31729406780364444,0.3277842184073134,0.33756716156632116,0.3473507235367679,0.34281132339454823,0.3188462981904454,0.280608960819428,0.24404385459344624,0.1995743949624431,0.1614437817365335,0.11430070965645411,0.06998452160096313,0.03227049304057772,0.018467464425295788,0.03384660169485776,0.054884240733390266,0.07598452101414632,0.08896350010948595,0.11707713548891863,0.16330177309366012,0.2165429151853544,0.26871749660464617,0.32509508678026267,0.37745193076317984,0.4368106085777115,0.49601053761994995,0.54793094076215,0.6053597375073911,0.6651122444468687,0.7233378022551609,0.7749067089457098,0.8336487927999734,0.8910689093389124,0.9405582549161671,0.9636073259192441,0.9340854914160235,0.8822410688612674,0.8286315125232799,0.7734585864648005,0.7137803817005062,0.6577219378497241,0.6047359357648654,0.5452100009340919,0.48544938168899954,0.4276910893927517,0.3859711840124098,0.3402102210563227,0.3168603872362932,0.30991534318089564,0.3020879317579137,0.28248158248093413,0.2873513576039848,0.30367869172523343,0.3060363674849955,0.3111236263772248,0.2973459710148394,0.27615530489188056,0.2449672075565168,0.20060099277485488,0.15516965791615123,0.10795461496116232,0.06657570443472483,0.0280570107958531,MI
0.5695049780970205,0.5628409378903987,0.5464235986827908,0.521096294787607,0.4924219500850622,0.46467687178751715,0.4326437509640375,0.3988934606818486,0.3682090366415316,0.3345377016270177,0.30039630393315875,0.26666921326129533,0.2281959682429595,0.1928834571062441,0.16200791889143895,0.1267162690392536,0.09483292405103971,0.07198314982099951,0.0504130304650634,0.02563370662687814,0.01752880738529261,0.03260709735069445,0.04907395068742071,0.06394001261391558,0.0785618503899419,0.09904467169392905,0.11498745907796182,0.1247369892470982,0.1344856345523564,0.15348614143507677,0.17652158588555578,0.20968265285857868,0.24524160332206724,0.28061634072194575,0.31732710752309345,0.35742843288012627,0.39371974008951227,0.42959017253981746,0.4695996598335286,0.5051448591033227,0.541768792896081,0.5818679752923368,0.6182561034409344,0.6540318579128048,0.6941117536620645,0.7313630380854155,0.7663305152707498,0.8063483951787054,0.8454602448141628,0.8791948879132916,0.9168647462250203,0.9501381655194732,0.9733405711569576,0.9571719575366278,0.9234147625108049,0.889733770254425,0.8510594922571302,0.8158486492222063,0.7788990530810747,0.741588123471522,0.7067523723468734,0.6705821818754512,0.634884639081752,0.6016180719722961,0.5809523917859347,0.5741793664212511,0.5751568270986731,0.5693962048602663,0.5597090537188489,0.5368403878362298,0.5374993095703091,0.5517510952140723,0.560949352900781,0.5629019298288893,0.5683231982410153,0.5669154921546458,0.5763312204724165,0.5753499562805324,0.5686766084067423,0.5610236042215377,0.5529572283772752,0.5439816191308111,0.5367691304647835,0.5372033092748738,0.5439664286789163,0.550942174576537,0.5580102500601036,0.5591676985083929,0.5724331757242858,0.5778478765580526,0.5765200147327088,0.5594524429610799,0.5366083248281261,0.5050783768612062,0.46967032339277015,0.43938161400416353,0.40838421516530166,0.37473398838777205,0.34089431340685894,0.30733510859287305,0.2748839570256978,0.24210580136649162,0.20878591705431226,0.17380880178590008,0.14513111013346736,0.113878916488525,0.08156541570055831,0.053171908331018036,0.03461390736320469,0.039547548130034915,0.0508104766676194,0.06846175070169624,0.08153562498376288,0.09613296775224622,0.11163963570980351,0.1265424951640648,0.14257317559530347,0.15228104890107463,0.17790621874956636,0.21100417708080998,0.24335429040621825,0.2805685888911491,0.3145425096153367,0.3530693952246373,0.39254958740714896,0.42613013614129125,0.45796126869297105,0.4890820523575019,0.5289890577344594,0.5691715357441527,0.6086954240240079,0.6424107917722488,0.6813926911630914,0.7215396759282737,0.758315087833719,0.7937121110533996,0.8335787662264851,0.8680925642000319,0.9018940126911079,0.9350649516704947,0.9487363282442289,0.9261927836947883,0.893283060733191,0.8570213136876477,0.8219553572866247,0.7860397055125201,0.7500907133839216,0.7151004203772304,0.678031188545535,0.6424709839784677,0.6082883315355117,0.5935683792081687,0.5846867078476801,0.5778412418501462,0.5688691667982257,0.5645367253200437,0.5477771917617518,0.5452233295732731,0.5621490895833356,0.574489590519351,0.5659504053335795,0.5661154328826257,0.5625486028838314,0.5612828164395474,0.5602168056218597,0.5493812874081361,0.549021460325108,0.5481005632090195,0.5377610747190744,0.5332521347770478,0.5359818130097953,0.5468224228893652,0.5497287021629922,0.5602835631782261,0.5711458393188491,0.5778240850852403,0.5845686490410424,0.5929707618988052,0.586769677842458,0.5681318678009493,0.5390466532700855,0.508876387676312,0.4795391647993017,0.44651855397122775,0.41377738214236626,0.3813066210710905,0.3477526395359063,0.3124020655293587,0.27904951803510425,0.24591011628496484,0.2124808171831405,0.17871862140747052,0.14647475439606872,0.11100181181688917,0.07637705046103149,0.04766621805168492,0.01826165417532677,0.0,0.0012900918248571758,0.019757634388851364,0.03739922080436375,0.057969547131755395,0.07234430105042189,0.08931942179562813,0.10539411678395672,0.12020549621004939,0.1356915987879399,0.1541099800863186,0.18020232803514347,0.2135780006792014,0.2501970740449633,0.2903412440632218,0.33052412766486894,0.3703355586676278,0.40447986059632535,0.4427462313400812,0.4815291179773218,0.5132161533672663,0.5403709152706198,0.5784819135842101,0.6169621378759598,0.6509398168562595,0.6907012921240407,0.7308447207270368,0.7674264907540576,0.8030128892690604,0.8430884990967651,0.8805004966859269,0.9151582612943348,0.9498463110898236,0.9846333978079929,1.0,0.9764293949670486,0.9426740654114991,0.9060105627115624,0.872028241993098,0.8323216801265358,0.792560366012518,0.7585826870322181,0.7201192106925378,0.6828755741596007,0.6481136617161936,0.6142480912585209,0.5985623420581834,0.5993730663956989,0.5946359383651558,0.5898589344139855,0.5777472335596507,0.5661572881976509,0.5761487390961291,0.5968652466342474,0.5937797378414242,0.5915936713742871,0.590646261728667,0.5888826962527938,MI
0.094501973549034,0.11598634511760442,0.13940048202043454,0.16430751457693893,0.19364263562843587,0.21752883383274935,0.2427462459974662,0.2669206818886155,0.28879025815184656,0.3135459119332452,0.33489433152581605,0.35644310729123696,0.37669019639584256,0.3995405769699424,0.419617255478434,0.4358954113790353,0.45259729162673723,0.4713923910018488,0.4890934271614752,0.5025483967811218,0.5155988994514394,0.5305759758640071,0.5581197356251234,0.5898763493448035,0.6245001592274485,0.6535978370901586,0.6873398171847721,0.7222063751239601,0.7518323888814459,0.7848420816093461,0.8195635901473203,0.8488015633572362,0.8823353012675358,0.9174505522068152,0.9521139491560585,0.9716545819635803,0.9609267513783358,0.9371939984950816,0.9090607955152631,0.8778067855188058,0.848200708861324,0.8152810784799863,0.7840895336642403,0.7528592096924832,0.7215996001294552,0.6923379879963735,0.6700472310827231,0.6447415802222304,0.6263882507990618,0.6180824463327429,0.609610398530921,0.5972027517919559,0.58366215194957,0.5710728373964337,0.5558895879131688,0.5405023131956973,0.5281045714127891,0.5298390978352295,0.5296139781570927,0.5249478391130561,0.5242281853997187,0.5181230612168225,0.5169843744836363,0.51847720734053,0.5253763554599767,0.5319887826337405,0.5327210583249408,0.5354292867383886,0.5423462658784058,0.5450266104118694,0.5491903375617994,0.5562180573412122,0.5603562128918097,0.5713769236319767,0.5790640208120653,0.5879034738409191,0.5997975883244021,0.6073312441716413,0.6113212764549824,0.6151957380039749,0.6238764959174216,0.6323448683697489,0.6349129624332316,0.6371836768196556,0.6482355015268345,0.6452042971211432,0.648638440736173,0.6494176271011841,0.6384256600258277,0.6267106549611264,0.6068197815327446,0.5854635760314654,0.5585396762325713,0.529650153547481,0.4963456394045648,0.4680674778128985,0.4396178135406691,0.40871824191453776,0.378131985766904,0.34798898290983715,0.3181142510071354,0.288940340676629,0.2601751096873187,0.2291316968933833,0.19907531345004958,0.1700548516815007,0.14219173384281325,0.11542988030663148,0.08985233766212675,0.08550421650478779,0.10310896588801033,0.1280357678604761,0.14952854834282336,0.17358401158736558,0.19810973515849817,0.21943437110283115,0.24478376094640042,0.27091050585333665,0.2954570946323657,0.318565023823013,0.33871536734877605,0.3568111262953487,0.3746311426354668,0.3930671150058721,0.41729694192252753,0.4379222797190797,0.4550479514683802,0.4721006082281475,0.4923496590099853,0.5100123109681386,0.5263196718753876,0.5512405032162339,0.581109014047806,0.6156357142278307,0.644826901516896,0.6784300534886337,0.7133419093192269,0.7431330865436211,0.7759324288738217,0.8109511800432151,0.8415825380412233,0.8734528015661954,0.9085119781809422,0.9401205765426485,0.9705008012080224,0.994929048299292,0.9999999999999999,0.9764117297930751,0.9463544958435773,0.9146605732351497,0.8853637344775293,0.8522675650086987,0.8228926128692103,0.7898563378940001,0.7604223256212282,0.727993161075608,0.7010711423170922,0.690607346715644,0.6965102153952679,0.6978085676462352,0.6953797698101948,0.6884248156622951,0.6773888037758115,0.6671837394316814,0.6729527421523881,0.6816873334962067,0.6799737925002148,0.6730328143289112,0.6668068348982225,0.6663702657222089,0.6663699071723662,0.6658514051853482,0.6580149976828128,0.6509676110365495,0.6506452225815554,0.6514574302643853,0.6569336786105663,0.6505495149378516,0.6396622451433606,0.6229643818654752,0.6021337678996922,0.5800590450736113,0.552317198338048,0.5258066252426258,0.4993744478888936,0.47118857767674915,0.441683189704554,0.41295007048472676,0.38388004247515906,0.3525408442326664,0.3232150474794838,0.28844008923445685,0.2544194489827404,0.22542247676140137,0.19316631765804748,0.16407184961308752,0.13537939862178372,0.1058651187929539,0.07491679739591273,0.04653360247090388,0.020274062409896154,0.0,7.400224340481376e-05,0.0198703485913998,0.04263463292701586,0.06499259872734964,0.08812736403615873,0.11364666147890667,0.1361802925065112,0.16046850217878117,0.18421650968555814,0.20615289574964646,0.23334473026406,0.25556544322878716,0.2778825353824924,0.2982206148793317,0.3157570971570428,0.3308317588565811,0.35223639270167995,0.3724207733872972,0.3887229956758066,0.40369476367125456,0.42118657191977216,0.4388628291345581,0.46312658990418687,0.49758574623172935,0.5327050272435249,0.5674579956128937,0.5967427339385448,0.6302070577874074,0.6652870069800015,0.6967859626124623,0.727757265518462,0.7628164075434986,0.7966851430887484,0.8257417007532025,0.8598789217483921,0.8887587158110631,0.9127593722751867,0.9113402428912879,0.8880671368553151,0.8682156498277517,0.8463568088579972,0.8151482439542178,0.785608456033959,0.7507625109205841,0.7157982370761896,0.6856655776746933,0.6537331609795228,0.6266319875523428,0.6124895744267248,0.6150142693217072,0.6191677243989825,0.6308416013671304,0.6376850701305848,MI
0.6932475209443701,0.7016202936529068,0.7079778095052338,0.7088684773976922,0.7091042959592793,0.7135137125138147,0.715031309232752,0.7158517092570529,0.7206596547525201,0.7212001805641455,0.7213481431881608,0.7253345081949902,0.7275948966883468,0.7320354635630468,0.7335268982091747,0.7335295819047258,0.7322878220259583,0.7212665912393446,0.7102639317173133,0.7117942022972954,0.7150747279214658,0.7216966372745579,0.7390645280037142,0.7486604751727111,0.7522287196760118,0.7567286197865544,0.7553739119272795,0.7334798559639897,0.7076142998372237,0.6810185921455868,0.6522999018315598,0.631470456154976,0.6115839938990069,0.5914775294700283,0.5653088698443899,0.5360508201056853,0.506746010828812,0.4774412015519385,0.4481363922750654,0.4188988907234046,0.39299532435808693,0.36635630145702747,0.3370827709807761,0.30777796170390304,0.27847315242702975,0.24916834315015657,0.2198635338732834,0.1906287536203944,0.16475065512362203,0.1380847878574707,0.10880991257899397,0.07950510330212068,0.05024311006151444,0.024101094478628626,0.0007695679600570049,0.0,0.021972443277691545,0.04912648322364571,0.07841705345273192,0.10772186272960521,0.1370266720064784,0.1663314812833515,0.1956362905602248,0.22494109983709798,0.25424590911397116,0.28355071839084445,0.31284465201325695,0.34026360921881915,0.3654457557978532,0.39460435990296205,0.4239091489620068,0.4532139582388799,0.4825187675157532,0.5118235767926265,0.5411283860694996,0.5704331953463732,0.5997380046232464,0.6290428139001196,0.6583476231769928,0.687652432453866,0.7169572417307393,0.7462620510076123,0.7755668602844854,0.8048635635199954,0.832514153269905,0.8575101705742738,0.8866205255002646,0.9159250639346888,0.9445189929728914,0.9492305478183549,0.9220573793403914,0.8965790381834513,0.8696890708414009,0.844871499064761,0.821776067259447,0.8054665671701611,0.7977567043965501,0.7952098937012164,0.7952431128796529,0.7988497559388337,0.80646288886762,0.8089352224900208,0.8099623857822762,0.7989654025026212,0.7840094100974098,0.7655622401624029,0.7486352370392881,0.7287736009313897,0.7099945581171502,0.6895461480766254,0.668788651006668,0.6488287390258822,0.6365818738254178,0.6405467690206567,0.6546489369676814,0.6696038430099182,0.6855391401752925,0.7013027785371978,0.7098998463530254,0.7151779257894184,0.7203276346376986,0.7251425395694682,0.7273501480669191,0.7273430616678778,0.7248585491934887,0.7212756780780178,0.7210748279890908,0.7171341447110511,0.7136390981878347,0.7091222938183434,0.7078888358869408,0.7028556213991853,0.697582459000109,0.6891273357474221,0.6748756254262909,0.6661163043082623,0.6602328541264978,0.649056012339221,0.6529215855905525,0.6706087687231026,0.6834869689832213,0.6892579056882765,0.6909750818904937,0.6952987781746133,0.6827531077619022,0.6542945548035619,0.6269752375282164,0.6016876666402863,0.572536737996405,0.5432319567804827,0.514061119379898,0.4887671233855131,0.4614707951740171,0.4321783278173619,0.4028735185404888,0.37356870926361563,0.34426389998674245,0.31496960007395025,0.287686113246577,0.26236758092452095,0.23321025934608264,0.20390546941557997,0.17460066013870668,0.14529585086183355,0.11599152859214362,0.08723506397838382,0.06274001693597603,0.03435772274346738,0.01152995958446651,0.011801326610353824,0.03730261771931509,0.06659357842270625,0.09589838769957948,0.1252031969764527,0.1545080062533259,0.18381281553019913,0.2131176248070723,0.24242243408394537,0.27172724336081866,0.30103205263769184,0.3303368619145651,0.3596416711914381,0.3889464804683114,0.41825128974518466,0.44755609902205784,0.476860908298931,0.5061653482305831,0.534917258999011,0.5594647128856258,0.5879154877829031,0.6172193388700936,0.6465241481469668,0.6758289574238406,0.7051337667007137,0.7344385759775869,0.7637433852544602,0.7930481945313335,0.8223530038082068,0.8516578130850798,0.8809626223619529,0.9102674316388262,0.9395712826437645,0.9681941323603396,0.9922355910602836,1.0000000000000002,0.9738717698076484,0.9479582709550036,0.9213395627721295,0.8937190084949758,0.8687774268232158,0.843240775628203,0.8219288063245795,0.8071670985774866,0.801566350956896,0.8020574114460963,0.8082034691542404,0.8135400357199589,0.8179277213814709,0.8185207217538961,0.8085386407231601,0.7956960724547513,0.7808912459797652,0.7630268729166474,0.7449724911539468,0.7250324692792198,0.7044035696830827,0.6838000960763428,0.6613258068848896,0.643525302060286,0.6355961444344586,0.6408500342509248,0.6577238978232726,0.6788562278003105,0.6964781488618824,0.7106923767098177,0.7222815795990776,0.7284379101827041,0.7331608792970807,0.7335317583146217,0.7335318677697629,0.7335318677697629,0.7335318677697629,0.733531658639438,0.7331083077480525,0.7283956152895645,0.7273496171550458,0.7250387081698071,0.7213012539992447,0.7212006478208945,0.7212006361433558,0.7212006361433558,0.7212005336598799,0.7208203774807007,0.7128536707040816,0.7034195306915555,MI
0.8070402213357795,0.7746409444529643,0.7355272368101702,0.6995319847992039,0.6622396140466111,0.6283334292187557,0.5978715012840334,0.5602750996001022,0.5349658034875591,0.5261244230655326,0.5142187013195894,0.4970652986313464,0.4880984567518043,0.49971146820483336,0.5186898830811655,0.5204559919114946,0.5129444623205122,0.5039929058753017,0.49514311015058166,0.48053760053765826,0.4644480604807948,0.4566268569812857,0.46304566273187064,0.47756002667272823,0.4948970517460676,0.5076321312520973,0.5135443298959368,0.5002352729311947,0.4764765794266941,0.44706796546400285,0.4147307267497411,0.3807240725630021,0.34660953098969394,0.31247769901455036,0.27740043075064036,0.24186060385045183,0.20859215635194672,0.17958658086794155,0.1456184839861444,0.11177004708058369,0.07900710384455611,0.047477568696652095,0.02032458252605529,0.017913896714814137,0.044676533102217975,0.07477145778351946,0.10091197196851487,0.12746152476889305,0.1516251844269474,0.17512310098835748,0.2005853791011013,0.22534943781691485,0.24740103227333154,0.27280549660038256,0.30468899920624337,0.33573487539591773,0.37063915087453303,0.4078827998960748,0.4458443539810901,0.48276599980296964,0.5235881672481688,0.5645133627110435,0.6054384848684413,0.6461022944858406,0.6822378974830412,0.7211975480438904,0.7621118178229966,0.8029016374027256,0.8396525751994435,0.8778879188326232,0.9185852797170999,0.9548703814296102,0.98979408278527,0.9992574284319842,0.9717071012811291,0.9334572911665124,0.8971068983095865,0.857473615551295,0.8236189018676083,0.7887974284884824,0.7575293863341084,0.7251781577970249,0.6888813037908161,0.6532642355927174,0.6183033405967322,0.5847199696317598,0.5565726464654541,0.5439567933316598,0.5315429670487217,0.5181415655189603,0.5069325305664831,0.51372884652735,0.5260938372755735,0.5317842934899724,0.5280118909975806,0.5205665469249936,0.5116315532596933,0.5026030177561767,0.48668118568424346,0.4693165338818863,0.453435605695528,0.44460265268299937,0.4513557112139417,0.4678484054362704,0.4824331202937935,0.4904615226030913,0.48245437045638595,0.4610589242544316,0.43108184290335094,0.4001867687813334,0.36754026602116663,0.3334050362117713,0.29817024829943106,0.2640296730950593,0.23096018601496393,0.19495527318524575,0.15936573903853624,0.12187927493131545,0.08878348521153157,0.05485441700284288,0.02326014644898189,0.0,0.009231129804523786,0.033789664909463446,0.06379310856408371,0.09141067874383879,0.11919090195131332,0.14184936997542852,0.16521887336033347,0.1887011701043424,0.21209960255106663,0.23556841777601156,0.2645759729446684,0.29470957162395117,0.3298523784816736,0.36725522907253993,0.4039438478186932,0.44208583614582486,0.47914994400684296,0.5170159424188403,0.557749809109543,0.5943869927400036,0.6327472670279519,0.6736472375009084,0.7145724405471081,0.7554976435933076,0.7964228466395076,0.8373480496857064,0.8782709768259074,0.918172378444529,0.9528367535341373,0.9862998885267418,1.0,0.974024380904779,0.9376444434746243,0.8969161919806437,0.8601242546525525,0.828397318180365,0.7898229824240617,0.7539045657839214,0.714049488524831,0.6785007592038899,0.6391505980830228,0.6073117599476603,0.5708546120837275,0.5364425900436134,0.5177889493595031,0.5043594009335524,0.4844217414940628,0.4682848227658254,0.47264445373545216,0.49544145720467947,0.5053310140077745,0.5108695236870855,0.5121739964140981,0.5117048529996708,0.5038986403301116,0.490105101712907,0.4781092211470732,0.4656118217031391,0.4483673661495393,0.43430984968842345,0.42330198498583216,0.43163266414866297,0.44997061713593633,0.4664771611916565,0.4842167894224294,0.48983793662989505,0.47683598021024376,0.45235186815019834,0.4241371088926176,0.39185106915648227,0.3590937786036028,0.32481528976227536,0.28601415886776227,0.25151380189257133,0.21687539234146336,0.1822448190339343,0.14814975383381346,0.11447167802278346,0.08110815107337621,0.04975063432875282,0.019959337383880893,0.008433741078351376,0.0328358191958682,0.058330420244636416,0.08282784366305351,0.10356856621350052,0.12005029427957281,0.13664593199263453,0.156152796276253,0.17908675701065535,0.20651108581677413,0.23216169135170484,0.25183860304040206,0.2381155364467984,0.2581356475893388,0.2685724018742255,0.2805259228791126,0.31063588116502516,0.330119686771037,0.3109790296761259,0.2880539416004104,0.3068270697150608,0.3349917313864821,0.3441619869206367,0.36729580409431284,0.4025840100716451,0.4416922107010124,0.4776125835324707,0.5051933101622736,0.5434489465738366,0.5843558854001099,0.6252478494008875,0.6633525863360348,0.7002168127124362,0.7410291475769639,0.7819076994273302,0.8196890136311152,0.8563025989592374,0.8916223755131074,0.9223439243107361,0.9223348292003439,0.8922282584351864,0.8526444535532085,0.8130786706781343,0.7776441948909976,0.7420418491733367,0.7029873278552738,0.6621388240628943,0.6246486972212306,0.5875125070594742,0.5538793089104892,0.5243766536735139,0.49226126841710016,MI
0.6985796611639012,0.7052102181786364,0.7040205603065248,0.6836464659009336,0.6435254535436423,0.5949298110781644,0.5578119854958279,0.5124870317970933,0.4648917824539318,0.4149319431737204,0.36244763799557655,0.311593903738387,0.2595253313405359,0.21837536526683632,0.2417329922166085,0.28815338555690495,0.3357318729857459,0.38319298620898357,0.4273478767649568,0.4724091896158156,0.5217151653085657,0.5697510218833639,0.6182980346403142,0.6692711055430014,0.7226997874594254,0.7724806372069282,0.817496711024807,0.8643673701571915,0.8771698221575368,0.8293595166117378,0.7695579261939522,0.7344879802455921,0.770928611118167,0.7771078489090992,0.732627604077374,0.6762756852393046,0.6183283591622393,0.58606922315026,0.5824267839440356,0.5761123341852665,0.583289455945186,0.5763302249542013,0.5686912939243125,0.5695379595409256,0.5538211673615343,0.5238162402592688,0.49037027524824217,0.4558035885166418,0.41254008617838633,0.3685390537022748,0.31866520127614173,0.26603333589797895,0.208286151966377,0.1530436440992664,0.10293205245349268,0.06800461453974638,0.08855397391576036,0.131447195806369,0.18030363420296225,0.2328370560644275,0.2841666599590946,0.3376637843324235,0.39116221327703515,0.44492098268180147,0.5005594131776163,0.5541763120466656,0.607693748637826,0.6618075179520162,0.7163302733814871,0.7648917565580595,0.8236177104511466,0.8828530166312298,0.9336221043535644,0.9349299408429077,0.8850723940642224,0.8269142222551553,0.7693300800882399,0.7782112985477443,0.7946953957628142,0.74940011558873,0.6902441144520777,0.6326136257337824,0.6159880890893501,0.6287426326470651,0.6521125360285149,0.6444026025581178,0.6111005932604712,0.5749760059859372,0.5347631192814222,0.48884923355458576,0.44721139008606037,0.40137071585597317,0.351421301913567,0.30123859774429507,0.251009894467664,0.19874161807498059,0.14571228791917967,0.11199935283816909,0.13888584418306782,0.18406619060454377,0.23353827637341262,0.2837368150905204,0.33391840509685267,0.38415884141355483,0.4365679986989479,0.4941362360616368,0.5531305372186186,0.6060100769884997,0.656413712808136,0.7089136556831008,0.7572221063018707,0.8064729456249868,0.8600533979532756,0.9174897626006591,0.9728807372776036,0.9999999999999998,0.9556585258462535,0.9186962209027498,0.9581207852980282,0.9779527342596943,0.9384477242201721,0.8811245769335787,0.8202339251926885,0.763080468635233,0.7161061519555718,0.7257916221799887,0.7562193172231113,0.7649392749258064,0.743424404079559,0.7057672236408743,0.6630363442203506,0.6190114373170974,0.5775914718625998,0.5329874199901357,0.4836489479022481,0.42460723698544545,0.36981146556229616,0.31856207099527656,0.2684451496884377,0.22455301449097687,0.227070972292984,0.26861914486279215,0.3125104880297367,0.36128438927679896,0.4088949468511136,0.4508467707765489,0.4987999001189587,0.550376931516477,0.6057490578134941,0.6584114929883713,0.7105581075693836,0.7671959742454766,0.8248528006867801,0.8736867672954245,0.9269685647653809,0.9720275418936335,0.9695739512155004,0.9177998637450864,0.8780983632846777,0.9164370442189098,0.9185636509582664,0.872503835460315,0.8142038749389384,0.7560739004582857,0.7111500638131305,0.6866658364189846,0.6559173943966241,0.6152603894171842,0.5709510694089881,0.5241709651678483,0.4715573422334278,0.44090827558154544,0.45162856616063074,0.47114596273551546,0.4682682504013267,0.4445184392754402,0.41179868917596263,0.3707951065359405,0.3312056722133059,0.2883233884738734,0.2374429508622662,0.18455416642498945,0.1274689059998626,0.07491284048813718,0.03052099073379866,0.0,0.024474975722721393,0.06560248792574974,0.11596810481081898,0.16420468165451751,0.21425505169348513,0.2644467237322572,0.3161313595563169,0.3696807384068206,0.4231714593803775,0.47462853188280074,0.5277695785087102,0.5777865388873187,0.6320247681204012,0.6894028724251064,0.7470152151956031,0.8058146201331156,0.833266322305912,0.8001852801857778,0.7734638119072963,0.8039954297764333,0.7865461453125782,0.7312277582245252,0.6739666990621764,0.6136641433892793,0.5758684174737538,0.570070570330252,0.5583241542468806,0.5422891850051721,0.5207547166429827,0.4907802877929146,0.4529775245396812,0.4091781624098165,0.3657234362974826,0.31801224077566914,0.2647223640566474,0.21338098383656123,0.16003052288425645,0.10598832408549264,0.05363676097190595,0.038461313871476,0.07976278686225591,0.12679830319122276,0.17033247488248682,0.2149070095799035,0.22971011775716477,0.2296113136712883,0.2529323139191546,0.26415957461181483,0.3012342082275812,0.3527047180563432,0.36325721054202,0.31776128877450116,0.29041825692798984,0.3201185337204018,0.36306873698539266,0.3843341304011614,0.38996575492949925,0.4109819194106916,0.457804713324774,0.5082913281264971,0.5618353467189656,0.6165437120665567,0.6644397169807268,0.718406827748568,0.7745969782236355,0.8347151035085207,0.8542133625498638,0.8127152438301424,0.759140934586463,MI
0.44487608447888105,0.4347244142515827,0.4284443901897208,0.43492143587476617,0.4492473742134646,0.45729980678290416,0.4623389770516293,0.4503868538836575,0.42590179539456585,0.4000364789548043,0.3699487208846075,0.335515160557617,0.2994778765463233,0.2607082219540764,0.2211522095501426,0.18385072598265828,0.1473838760938666,0.11026987113780495,0.07520137053737641,0.041998950591513706,0.011604366583834236,0.011822310922003365,0.045778043032843385,0.07847983521453372,0.10986027050317837,0.13997535046399068,0.17052756552730308,0.20266417841467654,0.2306165559932496,0.2611356115986885,0.28818798822232283,0.3052651255678003,0.3215909851810528,0.34743674549900816,0.3828873631599823,0.4178619353624071,0.44741713112157044,0.4884379988527767,0.5305597437673437,0.5709336722581313,0.6156346401093353,0.6560215743021878,0.6981686532324121,0.7425590613705622,0.7817909689718896,0.8254878524212066,0.8678172130479618,0.9078863933573413,0.9467863061885673,0.9610859551953372,0.9320681296133912,0.8875901208725461,0.8425725193691578,0.7981352766246679,0.7588487754327613,0.7152025868377221,0.6706049785564414,0.6311182854906783,0.5878350037200701,0.5434525193502209,0.5042255346613529,0.4604735150532582,0.4176984264663839,0.41383043007734965,0.4473856176542499,0.4746917945649405,0.47683712995994965,0.45743375325354907,0.4405760770725202,0.4248831797178856,0.43068735489179755,0.44813487753461834,0.4566909893345543,0.4488027054473358,0.43312457510736957,0.4337587817552997,0.4460930524801636,0.458877388187759,0.4697525183735003,0.4666741802293164,0.45261956995319585,0.4295980734713698,0.4007341506611577,0.3662271837773461,0.3314625418619863,0.2954715723278607,0.2594422797322449,0.2233691796067392,0.18607060019435995,0.15017193834969644,0.11537627609486378,0.07952291250248844,0.04634740903331991,0.02913853483379525,0.05383238747867081,0.08655890154486334,0.11765809777714531,0.1509275185517276,0.1830543180795463,0.21509569135906847,0.24525127979533834,0.27369283965906566,0.30023338466139715,0.32336035100320193,0.34556591445558027,0.3632390278771873,0.3904398746719209,0.4270778542361968,0.4668099202524829,0.5079689388643596,0.548299180862851,0.590315940476341,0.6309895824322462,0.6727888564217817,0.7175767399750856,0.7576882491782841,0.8001381694963858,0.8443953028076312,0.8835942592225476,0.9263136939703931,0.9634781862028245,0.9721322794779699,0.9402882250559688,0.8986739435076336,0.8546626354379139,0.8154906952222238,0.7713506019622847,0.7270134147519922,0.6878477500965583,0.6440765299832747,0.6031342010775211,0.5615846644007225,0.5166379295705918,0.4740378494602129,0.43432538461947345,0.4099386037473116,0.4383139272217478,0.47422286598913166,0.49446581754083807,0.48530832538311164,0.4652497599905834,0.44726947339950107,0.43380690436071734,0.44695059307457163,0.4645029740085318,0.47037320343258227,0.4589777639731816,0.44798440115254956,0.4473053221468617,0.4566022503638216,0.46885585336849833,0.4798678409040751,0.47689366302577163,0.46221976227799644,0.43436547677353565,0.4016151927071523,0.36922522726323415,0.33360581632454833,0.29812059261108037,0.2630670741713883,0.22607132709211153,0.19078946081512083,0.15489795724200595,0.11742821126809666,0.08038177720218953,0.04830207964424038,0.03929076263935294,0.06457318706837478,0.09656190412330168,0.12781441689509432,0.1583450309703458,0.19399201183299275,0.2262390586839529,0.2549456955713545,0.2817269824578996,0.30441921432340346,0.3271651442673176,0.34445576694645275,0.36864149349340747,0.4005383707804273,0.43763288156768865,0.47836840440061423,0.5186082269305343,0.5536917928536778,0.5875102097277298,0.6308738882903204,0.6751534117339799,0.7143564628489867,0.7582367610558611,0.8032526775173545,0.8482709492413181,0.8931197052960531,0.9334081291987912,0.9740806127873098,1.0,0.984220202474531,0.9430325008710541,0.9038034068122536,0.8593686998468864,0.8153978277418374,0.7786409946314368,0.7457958946898857,0.7023621472465775,0.658656759573639,0.6194230484419174,0.5749947428199769,0.5301937617415118,0.4901020058896075,0.4476117683522778,0.4036851496578173,0.3876842756243497,0.42314313132839265,0.4550621354722073,0.46998686424034264,0.4578569020349956,0.43846621544571973,0.4191758478532739,0.4034019293261779,0.4132452238264168,0.43185175586938884,0.4327736618621716,0.42586108491157826,0.4100710529295659,0.4106877193918814,0.4213056800398094,0.4356587886062211,0.4415997566298002,0.42963578226214594,0.4089957712271248,0.3841698407057552,0.3525053323519265,0.31901038793118386,0.2871375693337228,0.24963234103051568,0.22531246958297912,0.19039841833199977,0.1754382344556531,0.1484875988150789,0.1092004254817287,0.07371279069788828,0.03990094485212525,0.008874374826913,0.0,0.028015917710262572,0.06080775978855335,0.09592868976206148,0.13211163118145564,0.16628466210887738,0.2036869746889518,0.23657869060613224,0.2634515233227144,0.2825640351840195,0.28469565946802544,0.25606218248587975,0.2265977858211643,MI
1.0,0.9705725582419458,0.9388163860256884,0.9070591051631556,0.8753018243006228,0.8435658294115833,0.8151382727452141,0.7882608260740878,0.7565869768648212,0.7248296978318451,0.6930747867092073,0.662990339994729,0.6374990387313197,0.6061152500694764,0.5752515852648972,0.5501393040810525,0.519178538849985,0.49078628106262556,0.4639463288378818,0.43702323103503904,0.4095637153508871,0.3864729069054229,0.36589048599667184,0.3544425011005896,0.34266259035402613,0.3387326793519847,0.3326495659440516,0.3261565541378053,0.3135160053849191,0.29921078961539793,0.2791012128601671,0.25791618935261607,0.23470105070631875,0.20741214736270996,0.18168592649547177,0.1575921106215623,0.13380839724678917,0.11143920667029517,0.08820403541588928,0.0663584617888473,0.046202399957548046,0.03025874429997999,0.02458496304728852,0.038909360610631216,0.06003456874170188,0.0833783470506122,0.10721151493793046,0.13237137142884992,0.15871113713320595,0.18259309151301584,0.20650219836206163,0.2323624633715602,0.25743827700378796,0.28092574031701,0.29976569815301524,0.31717280785833135,0.314671645416019,0.3040941626983631,0.2924995064392386,0.28047050125103823,0.26873973314201605,0.2641666951890431,0.2641084311787758,0.2658212574100165,0.2778970339735818,0.2903778217762516,0.2972202787672744,0.29757620759922254,0.3032952228838499,0.30568352722014014,0.30870633337835707,0.3138707879428606,0.3139902548047959,0.3139902548047959,0.3139902548047959,0.3139902548047959,0.3139902548047959,0.3139685630190021,0.31065383623974907,0.3095660191200089,0.31298421456399406,0.3064309448391547,0.3103520231980461,0.3082584056963684,0.30568483644559286,0.3045716273168757,0.2979344315856496,0.2973619076435652,0.29672494250419046,0.29041511236391204,0.29376851300236106,0.28951284987809633,0.2890445724188846,0.2870322704758874,0.2810298282282937,0.2806393178841602,0.27568498782647066,0.26996864260856124,0.26429891256690574,0.26408183843475186,0.26063996796126343,0.25244529798391935,0.2408622919131691,0.24362730067465121,0.23997634423917025,0.23682709578771455,0.22255480981339093,0.20835605601688778,0.19322185780396617,0.18300251247387567,0.1812799286214024,0.18979489674086114,0.20359447432012145,0.21174669592599016,0.21869246764598493,0.21201841261404075,0.1874485222522313,0.16227235975870347,0.13171158498769686,0.100892026014334,0.07579839134121102,0.04491093272379931,0.018777157566470137,0.0,0.007994981812351032,0.03215580562425968,0.06356673823387582,0.09433455154665804,0.11951147396767059,0.1505252203742049,0.18228231225428115,0.21403868737291298,0.24470334546709838,0.2699113454059796,0.30099732531878454,0.332754438723059,0.3645117195855916,0.39619851159827957,0.42341565637255485,0.4514959811334731,0.4832265651918357,0.5149838460543692,0.5467411269169025,0.5784984077794351,0.6102068820523618,0.6379930211494116,0.6654917324686997,0.6972132533856796,0.7289705342482129,0.7607278151107459,0.7924850959732783,0.8242423768358118,0.8559996033497448,0.8873636605472948,0.9127853481706767,0.9429593726972425,0.9743729244159351,0.9852422698249521,0.9566157500948598,0.9248614412524194,0.8931041603898859,0.8613468795273536,0.829599792435427,0.8004604103628836,0.7742295905126715,0.7426320144417102,0.7108747530585757,0.679118700733139,0.6485094396259419,0.623373388959771,0.5921595718041845,0.5605556952754003,0.5342478280920238,0.505202433675598,0.47610841868029574,0.4498513060818803,0.42030495386521505,0.39511342954436146,0.37172844205019273,0.3538359317368205,0.34045776140951545,0.3326065392844664,0.33093391191412636,0.33809390282875174,0.35266021362018174,0.3629023336551176,0.36941946077805055,0.3591866346922532,0.34393738061342827,0.3279700206976732,0.30871647142132175,0.28523651717068144,0.26350848513637803,0.23779172489214506,0.21378849528530552,0.1899834440096333,0.16617842491263635,0.14240387143972244,0.12002088584100523,0.09885943033889055,0.07770751321435831,0.056947439327375005,0.04963575829155409,0.06246341346206097,0.08023174779184572,0.10132096863485329,0.12264204488496211,0.14636647496718003,0.17195544325724654,0.19095836894135432,0.20762961384007594,0.22691938986874183,0.24417232395234367,0.24239621920441867,0.23026605940789469,0.2146715102125003,0.20189712126840909,0.1851196834177926,0.17483169689044065,0.16500633559683564,0.16948428113138192,0.1776031953107109,0.18949098973761158,0.20192692502671683,0.216659787357939,0.22378776093359676,0.23148852162000222,0.24093036374144639,0.24719533808434435,0.24244095339916005,0.24247725924126629,0.24745865590851457,0.252484674284573,0.26231818330619827,0.27029321761942415,0.2781015699557561,0.2762266622211722,0.2724600847988805,0.2718254326102807,0.2653097154059274,0.2641056092191001,0.2641045877414745,0.2641045877414745,0.2641045877414745,0.2641045877414745,0.2641045877414745,0.2641061323060292,0.26546682769453067,0.2722780791282533,0.2789237249349623,0.2815222960129402,0.28830883385968975,0.294636236293333,0.29735001736797995,0.29736169911702226,MI
1.0,0.989076358494124,0.9776604975821694,0.9662446776620326,0.9551863324005729,0.9469603804093978,0.9358372969850297,0.9244215273656107,0.9133253265456569,0.9050512592271396,0.8940141192518529,0.8825983200725966,0.8711847254781613,0.8608301307777466,0.8521139806356555,0.8407751789217597,0.8293592837138613,0.8179434317841772,0.8067525920679885,0.798358236431115,0.7875359550785321,0.7761202473551256,0.7647057261181109,0.7540627342806743,0.7455914202081924,0.7342971062042887,0.72288121099639,0.7114815013817257,0.7018145329371965,0.6924637092407613,0.6810580698455531,0.6696421746376544,0.6582262794297558,0.6468103842218573,0.6353944890139587,0.62397859380606,0.612566150895973,0.6025699926372863,0.593549546237252,0.5821554526552231,0.5707395574473246,0.5593236622394258,0.5479544966484746,0.5390973196753519,0.5289164033834692,0.519948969783596,0.5250351000484363,0.5345984222527393,0.5459950774650324,0.5572860725693358,0.5631464858632051,0.5597940808731454,0.548961858392649,0.5375771605188073,0.5283042905903625,0.5185841137514307,0.5120312588615554,0.5167794832657255,0.5228953834419736,0.5300769033487949,0.5353799426227139,0.5363294904432576,0.531377078677882,0.523938244656303,0.52121250127803,0.5237378693192862,0.5232867714776701,0.52104628571695,0.5164545928960629,0.5104332565341105,0.505151645985908,0.5019629560916601,0.5019505055184632,0.501947106171656,0.5004908070103307,0.4953520784127597,0.4928721266951363,0.48740236763655803,0.4814057401491229,0.47382481771947155,0.46620838478703014,0.4585515455532309,0.44960446981944674,0.44079993225439235,0.43056121101097206,0.4228856115751823,0.4142532443702213,0.4051832711496945,0.39554578667974466,0.38722305517478856,0.37850043080759493,0.3696424044368261,0.3622736335659113,0.36322427804518737,0.3688102816375011,0.371315301195347,0.3686281403085489,0.36190796766239647,0.3591498089610102,0.35531255779676557,0.3485829791797733,0.3449777070380809,0.3492233329943254,0.3533491012821193,0.3587694094846347,0.36443492902043323,0.36857555626357114,0.37399421387808157,0.38127746519176203,0.3896707933533687,0.39778571164565063,0.4064789855298488,0.4154733327821524,0.4240246147353846,0.43534495946493573,0.4459370232284127,0.4544602592063823,0.4657524977399656,0.4771683741667519,0.4885840296296728,0.499283534626425,0.5077466264452166,0.5189915455306822,0.5304074105254875,0.5418233057333863,0.5532392009412848,0.564557029877613,0.5731577573011739,0.583648310651899,0.5950623420921217,0.6064782373000204,0.6178941325079188,0.6293100277158175,0.6407258112169281,0.6517261182854657,0.6600208064585584,0.6711332310892952,0.6825490640745531,0.6939649592824515,0.7053807976570721,0.7165100198992318,0.7247325350813107,0.7357881763743068,0.7472039956411871,0.7586191492500263,0.7690697015863883,0.7776740630508547,0.7890271408748746,0.8004427243163137,0.8109826200504862,0.8195347795133314,0.8298574244356054,0.8331813169715991,0.8420361166171297,0.8503809883340825,0.8591505918796167,0.8687374299006003,0.8780885450498896,0.8826674588167838,0.8876184104028166,0.8872107125759205,0.8791267391128479,0.8677938465283255,0.8566097667332968,0.8482240031191628,0.8373863747221011,0.8259721932900317,0.8153786409617987,0.8068653861846466,0.7957384777913017,0.7872805411861543,0.7765718279627145,0.7651733723076155,0.7555333969121327,0.746154802290447,0.7347489378255223,0.7234418274653884,0.7148996890373913,0.7043500615666223,0.6947153961978421,0.6892418152574811,0.6814434395302198,0.670199494112357,0.6591708957702798,0.6509859891729532,0.6411492719708753,0.6325437207347433,0.6243514573934128,0.6132281743969106,0.6030507960775999,0.5941842466356062,0.5828181167570008,0.5714428423613069,0.5624237070939029,0.5524063811914515,0.5409971967931204,0.530617882338104,0.5219227181448363,0.510589672857408,0.5001238392612852,0.4915038837545674,0.48107466280237526,0.47271100562341223,0.4654566357515871,0.46353044578545405,0.4615779914046138,0.45877439741751563,0.45096114868873377,0.4455012691552523,0.4367482782787894,0.42735327129902806,0.41594800221806544,0.4052201486710392,0.40007979096984964,0.39337692195449997,0.38549220140408275,0.3757649508292888,0.3666468348377823,0.35669516878137136,0.3476460877634142,0.3366287955342852,0.3284338514192476,0.3176184765181224,0.3093994340742231,0.2983110062580439,0.28945928211498423,0.27926984163827157,0.26817258488912943,0.25989336235696814,0.24886548891147292,0.23773694041813165,0.22942163139046395,0.21849368737026137,0.20933971424255665,0.19946128983748118,0.18829101286005517,0.17991555967320894,0.16905951482277243,0.15767077054267858,0.14828992841804622,0.13864473291395407,0.1272592484364205,0.1177650355057912,0.10823647788775148,0.09682930084185548,0.08541340563395722,0.07401308513881855,0.06432992086486114,0.05499644533140152,0.044149615588190805,0.03586068001815673,0.02510040809961747,0.016938980658857572,0.008528386804413396,0.0,MI
0.8144053463236649,0.8143794058946392,0.8083792340809326,0.7994409593682137,0.7992765904299397,0.7992765904299397,0.7992765904299397,0.7992765904299397,0.7992765904299397,0.7992765904299397,0.7992765904299397,0.7992765904299397,0.7992765904299397,0.7991254866022495,0.7891519830180178,0.7841663213308341,0.7841478345362145,0.7841478345362145,0.7841478345362145,0.7841478345362145,0.7841478345362145,0.7841478345362145,0.7841478345362145,0.7841478345362145,0.7834328010198071,0.7674601442882458,0.744736530195288,0.7387914013670784,0.7421902858936693,0.7619418712123804,0.768983244212776,0.7692874012607518,0.7817644485081574,0.7982546752626336,0.7871029040139368,0.761204672342936,0.7205680393595915,0.6845521721328225,0.6376642649994431,0.5992893808848925,0.5572830086595661,0.5116053114764385,0.47595004608344005,0.4293336217489301,0.38163393508139776,0.3339338576752995,0.2875011819681037,0.2522191641403324,0.2059617257046631,0.15826230394463248,0.11056222653853442,0.06368013244421977,0.028617808592984906,0.0,0.02126740020257656,0.05995178470557261,0.10098905000846448,0.14865109431803036,0.19635117172412841,0.2440512491302267,0.29175132653632496,0.33945094697698175,0.38597762483678166,0.421539578338473,0.4674234895542464,0.5151229576730898,0.5628230350791881,0.6105231124852863,0.6582231898913846,0.7059232672974824,0.7536233447035807,0.8013234221096786,0.8489690325790165,0.889583792782173,0.9293555738123189,0.9750283890668399,0.9720442013957677,0.9340367268663388,0.8938951418083529,0.8602428510993672,0.8324845691979521,0.8090557536632697,0.7921644493427842,0.7842435147235427,0.7841478345362145,0.7841361854415154,0.7789191339699444,0.7692263733701143,0.7664331798747621,0.7540236213230098,0.7404610420559494,0.7244932557922639,0.698892621155822,0.6737146822094016,0.6498564713154276,0.6265419740950018,0.6091171826883113,0.5859740488916756,0.5715271494469614,0.5587316409081022,0.5572285524753255,0.5613584544418575,0.5827648887373347,0.6079368170265769,0.6379010633882951,0.6624147005529382,0.700062910578793,0.7322066212074814,0.7559270234462259,0.7738207335425102,0.7945425242328084,0.799272325419156,0.7992765904299397,0.7992765904299397,0.7992765904299397,0.7992765904299397,0.7992765904299397,0.7992765904299397,0.7979725638124588,0.785571921547134,0.7818922024363866,0.7699773846704236,0.7690193766634292,0.7690190786424893,0.7690213402616546,0.7716497709527352,0.7835134847055583,0.7841478345362145,0.7841478345362145,0.7841478345362145,0.7841478345362145,0.7841473312119607,0.7824043088957928,0.7702288602348635,0.7690195620986804,0.7690190786424893,0.7690190786424893,0.7690190786424893,0.7690190786424893,0.7690190786424893,0.7690190786424893,0.7690190786424893,0.7690190786424893,0.7690190786424893,0.768825132293103,0.7534006845745485,0.7385498413810152,0.7272609840189308,0.7250700150092155,0.7430384874796838,0.7649451352015315,0.769021174604475,0.7721719313104776,0.7836176530754442,0.7806510819190497,0.7530920777701706,0.713327435595754,0.6782246715117133,0.6322364725001737,0.5845372494207706,0.5368371720146727,0.48913709460857446,0.44152122230221713,0.40300710298653875,0.3611412904262228,0.31346554087790746,0.2657654634718083,0.21867074113618856,0.18272096487279876,0.13779075201754698,0.09009425412089533,0.04405445678801345,0.017289497359825434,0.022607896260399274,0.05663216184327524,0.10397676809067802,0.15135792686887295,0.1878229385784933,0.2319513968145206,0.27964832182134347,0.3273483992274431,0.3750484766335409,0.42274855403963874,0.4704486314457361,0.5181487088518357,0.5658487862579336,0.6135332974009928,0.656672014699206,0.6940583506907252,0.741520339988601,0.789220417394698,0.8369204948007962,0.884620572206894,0.9323206496129937,0.979677047569598,0.9999999999999998,0.9698139769104046,0.9449402930772626,0.9134885379708646,0.8769423346450795,0.8450707187707527,0.8141290888830495,0.7996397318827186,0.7945999441012213,0.7843877611005292,0.7841478345362145,0.7841478345362145,0.7841445231924384,0.7804631882111337,0.7693193428632801,0.763716978207061,0.7430798130090166,0.7270016601531364,0.7087448803075536,0.6850044741161934,0.664282200892955,0.6437841304912342,0.6191035956908417,0.6067570630774732,0.5956081920481002,0.5876045086779971,0.5931434704199152,0.6160289375250414,0.6469392278229924,0.677948048326124,0.7052717422750974,0.7337457789981443,0.7576192247966806,0.781491415773049,0.8048968373905294,0.8215321587240398,0.8294864036806093,0.833579615589503,0.836820998613953,0.8399930771096178,0.8436840318055558,0.8311006533944465,0.8238154483823663,0.8145868874496751,0.8144053463236649,0.8143277372243813,0.8054962841737228,0.7993028653087768,0.7992765904299397,0.7992765904299397,0.7992765904299397,0.7992765904299397,0.7992727492711589,0.7952133376985,0.7844221054760021,0.7841478345362145,0.7841478345362145,0.7841478345362145,0.7841478345362145,0.7841478345362145,MI
0.4589248963763249,0.4686702265746569,0.4901442238307739,0.5111845503508798,0.5321020688820512,0.5430500581196323,0.5634912499507121,0.5747628917691103,0.5770000977108007,0.5770157159821028,0.5770154876997833,0.576586173360979,0.5721084779083794,0.5718207389632644,0.5764300966029239,0.5770152644904043,0.5770157159821028,0.5770157159821028,0.5770157159821028,0.5770157159821028,0.5770003797317629,0.5748723590887124,0.5711948144498067,0.5707797485986017,0.566449973881312,0.5650993154586867,0.5587759034590281,0.5351256390161576,0.5075034719979503,0.47707187617829944,0.44669838011719937,0.41977278240972743,0.3915633873955709,0.361112364617271,0.33063955415690033,0.3001667436965298,0.26969393323615914,0.2392211227757886,0.20874831231541796,0.17828519768614232,0.1495705004847609,0.1230760878646317,0.09278877919439266,0.062319531058528665,0.03329827788036033,0.016949458748848623,0.030039582361096606,0.05929398476825726,0.08976478139572697,0.12020918611603892,0.148159318587819,0.17531672775866852,0.20446450562797586,0.2261039862816297,0.25481143813919177,0.2852792637769595,0.31575207423733004,0.346224884697701,0.37669769515807144,0.407170505618442,0.4376433160788125,0.4680968842640307,0.49640599564064,0.5232443757233869,0.553602827639841,0.5840756381002117,0.6145484485605825,0.645021259020953,0.6754940694813234,0.705966879941694,0.7364396904020645,0.7669125008624353,0.7973839800804741,0.826987030180695,0.8528983587609262,0.8828723421645919,0.9133448228838346,0.943817633344205,0.9742795586564086,1.0,0.9875668975129124,0.9619433422976138,0.9321859727568542,0.9021017533117679,0.8760580206384798,0.846699810471016,0.8173766499506856,0.7913527389905248,0.7625867610158821,0.7365115201500552,0.7109482282857253,0.6931689630263673,0.6790804394159666,0.6668361839021513,0.6539394458852887,0.649199251136539,0.65382315626295,0.6609510004347037,0.6774911740312943,0.6910271473548539,0.7060135239446714,0.7212509738507087,0.737072588142158,0.7539456384493637,0.7550066264295681,0.7379704012643196,0.7167187755810145,0.6929782866207654,0.6685935832039156,0.6442044286936595,0.618433925103351,0.5890419236435174,0.5639928430995873,0.5396047826499992,0.515270924290824,0.4934287351665954,0.47606066644479833,0.471705961003373,0.4846821240485209,0.5002052675238906,0.5152036826892512,0.5255650581051972,0.5319945719090999,0.5399143656915721,0.549937260073323,0.5620997063732216,0.5759517794338604,0.5873466526369775,0.5962299223851151,0.6006356844560312,0.6001947503823888,0.5955907310920985,0.5948120645982404,0.5948109068234644,0.59467380861424,0.5922296291819062,0.5979526942070721,0.600701654804999,0.5985413633980126,0.5946404140983008,0.5902048386282419,0.58608691258732,0.579079085815422,0.5738848036118918,0.5669379279813975,0.5629805780645933,0.5563691075444934,0.5481365278715731,0.5456204296428104,0.5354505232616609,0.5144231843922287,0.4845302808061474,0.4561673851809392,0.42938919252736857,0.3990289150374266,0.36855610457705607,0.33822774094989355,0.31156379611659674,0.28305525201508247,0.25259659301602716,0.2221243916114773,0.19233909192455528,0.16644811962314704,0.13663624583425488,0.10616427099462827,0.07574720343934888,0.04836318942471457,0.020887782641350272,0.0,0.011040978123561307,0.03772687312431433,0.06538231538180272,0.09581282011305264,0.12628563057342318,0.15675844103379383,0.18723125149416425,0.2177040619545348,0.248176872414906,0.27864961819528594,0.3088632827733015,0.33511216697283713,0.36414128545067087,0.39460919443630477,0.4250820048966753,0.45555481535704584,0.48602762581741626,0.5165004362777867,0.5469732467381581,0.5774460571985285,0.6079188676588994,0.638391659095743,0.668683299771407,0.6951921552398062,0.7238883570719845,0.7543511896802979,0.7848240001406683,0.8152968106010388,0.8457696210614101,0.8762424315217807,0.9067152419821511,0.9371880524425209,0.9676133990692897,0.989299745278317,0.9700251379262526,0.9396312608271742,0.9098714640982464,0.8839730285268401,0.8541535843515642,0.8254951593163766,0.7989578087678506,0.7691992956678755,0.7443912019659051,0.7249337656197927,0.7025511451056758,0.6830640352410331,0.6697094175159963,0.666049959173334,0.6659916701889101,0.6661169041071622,0.6717167014785705,0.6831371941262807,0.6964559298092874,0.708102504107746,0.7216851374433662,0.7413768353891321,0.7616242634182706,0.7684793489558637,0.753189563587858,0.7283786488374178,0.7049243874733417,0.6805558216131196,0.656170676040825,0.6314486145577805,0.6062687155787538,0.5818788288232222,0.5579527771323609,0.5351783555589711,0.5151630542400252,0.5017202011905573,0.5062815012933044,0.5179562160764457,0.5273076149121223,0.5295479843717619,0.5297921920678494,0.5362428929590406,0.5460060650049035,0.554443566115596,0.5629657267375403,0.5693698412989145,0.5759428807388582,0.5790578350175204,0.5862402549245362,0.593477090173844,0.5993062274363001,0.600738017650144,MI
0.4432815590148138,0.49169765933628584,0.5496365110883885,0.6035531600939152,0.6512453849027535,0.6970239787600652,0.750224399827212,0.7842843022368591,0.8120908821534929,0.8009311382546165,0.7979766543562032,0.7834529588009502,0.7806595147909281,0.777419287513923,0.7523427614511342,0.7132144113906316,0.6790449229867286,0.6838925853201951,0.7033887595916877,0.7197391112879723,0.7530929394009434,0.7867597696218613,0.803050650023903,0.7923758023956964,0.7504449301186407,0.7003208562620613,0.6613255565491816,0.6823173188285994,0.7070922447892545,0.6664925679201441,0.6020808388629764,0.5461977172700787,0.4842602102357225,0.4288093157727326,0.3659130408505442,0.30371149066640246,0.24781747727410686,0.19039368271319868,0.1326229019751355,0.08554372758075024,0.06462265529832933,0.09119368358613977,0.1365814630996054,0.13105822198321126,0.14015392101416646,0.13247751478722947,0.1077908288811491,0.07005128218664369,0.03376509674490835,0.023477217038770704,0.0,0.0001280638589928884,0.036476900098675547,0.07771905606992702,0.12969212891716309,0.17644392651444063,0.22243449414823324,0.2687843963145302,0.31532763756421023,0.3700416756026126,0.42470211240086764,0.4826816711352522,0.5365371261519338,0.5846005797056368,0.6339256777770759,0.670753878661154,0.6972255365981721,0.7220264029752674,0.722059259468335,0.7093542427799591,0.7031330656615071,0.672583172174464,0.6436619607646175,0.6527359018081289,0.6663614590398264,0.6914351400601197,0.7181040095518436,0.7544999467767517,0.7914977725661916,0.8050804743184035,0.7892675688345525,0.742348424772366,0.6927594105704151,0.6621858087486547,0.6960268673676198,0.7429869971324052,0.7488595785955359,0.6875821005434428,0.6217000597575986,0.5673915039551205,0.5025120764861986,0.4369463729884102,0.38275256666837576,0.31928340314414116,0.26528013875537715,0.208583808962298,0.15416383002808987,0.11087769121867463,0.11044877016230625,0.1430971125763949,0.1722656159765239,0.1853152850191564,0.18313698417394475,0.16911856845786621,0.13821397776036415,0.1094002341612672,0.07966454230529907,0.06268370126361766,0.07284794041473663,0.10140278051829954,0.14500765856787856,0.18509894047019548,0.2293633905620367,0.2780847425073065,0.32484096022493114,0.38208319963348325,0.43757382441633963,0.4918414693018165,0.5423014423480836,0.5928132048589867,0.64637634350624,0.6895444877506614,0.737663082719088,0.7777681083812413,0.8117052945441308,0.8492103173944834,0.8707311535243734,0.866003497806501,0.8453402660826326,0.8257941020259398,0.8002674865095969,0.7935864503554866,0.8153403207541516,0.8474752776455592,0.8771867734844654,0.9090176080824324,0.946512075034128,0.9835149630174538,1.0,0.9799128710905367,0.9282854574293089,0.8752908257754068,0.8227896480891395,0.790801394409137,0.8132220135827604,0.8420018209032012,0.7943091340530839,0.7369482208293157,0.6712731514731658,0.6169645956706882,0.5521665295088201,0.49278649285973586,0.43408252767775757,0.368858461492914,0.3147406484532329,0.25119627151116397,0.19717340559139362,0.13979177383837849,0.13298077537700426,0.17011506471691895,0.20964258368326671,0.2385035470314283,0.23998445036462623,0.21685086440447865,0.20177441799920892,0.17064776257383496,0.13822338988436345,0.1079804991818385,0.10127847086298214,0.12250872640850918,0.14956724653529463,0.19005715884808616,0.23263621484023034,0.2817341593401901,0.3443857055137056,0.3916286998666849,0.4416490181864394,0.4958423305693467,0.5465086067240703,0.5931546123880538,0.6471358535358496,0.7025402204495097,0.7543563667564799,0.7992297592199185,0.8418498776855845,0.8751430153735815,0.8877769911045936,0.8785292140717189,0.8683479195664976,0.8423911084839744,0.8250861170194552,0.7927971306969877,0.770008991927027,0.7595298700094686,0.7909505033400519,0.7935624225847029,0.8191253476370828,0.8416210592928532,0.8675648420928672,0.8764622483251912,0.8515519093067909,0.8025686216574073,0.7488661411842141,0.7257345566109183,0.7554323744311588,0.7482273879352324,0.6886551581521378,0.6248085386258948,0.5699972339393606,0.5036157520850848,0.43641775729242926,0.37084891736765524,0.3166671817605571,0.25591996575785547,0.20076897259161086,0.14897617528118978,0.1297747131852116,0.15782354618431782,0.19165858703719652,0.21310459365288814,0.22379240629530317,0.1944246281601898,0.1697756656289804,0.14224160896150595,0.10536010739928914,0.06487250106946885,0.036650174986332384,0.03598684138043273,0.031959408453927196,0.06406352459977604,0.11413576118669999,0.15891741590676123,0.2058876197596482,0.24901921541366523,0.29930342318140735,0.3472785915664769,0.3988503294801573,0.4523433108445585,0.5091608015572602,0.5576113863648495,0.6019293364796887,0.6522496737201098,0.699304961080434,0.7353131173194227,0.7448491564517234,0.7375603550226226,0.715982623375889,0.7182147689188456,0.6974248871195519,0.6702202106728685,0.6216449272108644,0.6135659598684029,0.6463571155621199,0.6621054240323994,0.6889560773710808,MI
0.9763723900262266,1.0,0.9947609605283357,0.959754897255756,0.9286612237015323,0.9060659154729779,0.8999116284818532,0.9060508850336259,0.9049681096573746,0.887101559360243,0.858440066998076,0.8276293170931016,0.8005238839104004,0.7723762117986953,0.7464739549466292,0.7429124014375378,0.760616408661903,0.7827147315608772,0.7864276303964463,0.7684952797209806,0.7480993767631833,0.7440481574294885,0.75065442159597,0.757607991833232,0.7647466275794174,0.7668674690140777,0.7315628338139101,0.682481059307796,0.6332181764934365,0.5844022771665748,0.5411595129452934,0.4938117891980941,0.44455716458770744,0.3954012459158541,0.3506845431673935,0.30510798362400904,0.25609335117759546,0.2120744461663907,0.1667691571330968,0.13529146681336002,0.14433827641508934,0.1880031352151651,0.23648884811032067,0.27936235019999855,0.32737509829918254,0.37663532143680045,0.42589840244305377,0.475138143028773,0.5216395831055839,0.5655121474392696,0.6145592281471463,0.6638223006896887,0.7130830641455613,0.7611897478856767,0.804092575114422,0.8520180664593394,0.8951658976260576,0.9362937950089406,0.9607581178624146,0.9858502899268274,0.9753420865620249,0.9401061841328807,0.908497973292898,0.8848602620454143,0.8803367498359035,0.8693276792411774,0.8599174921948395,0.8443968050580627,0.8213685616070271,0.7896059565102688,0.757638709733995,0.7257786618741303,0.6996552063450397,0.6830536602118601,0.6955559634498208,0.71903022590281,0.7222712457777979,0.6952732967168175,0.6664430264800859,0.6596030883093745,0.6698576040952208,0.6952442705830976,0.7195806820031346,0.735622178205115,0.7426748013197101,0.7130508896433109,0.6704070250507138,0.6217756650664444,0.5747760286306639,0.5394434114683074,0.4989403144592287,0.4498882190322121,0.4007858801676333,0.3564845471153316,0.3104555356567513,0.2612274222457984,0.21204904319997797,0.1671503075686268,0.12178606398062353,0.07556734090829609,0.043055861122093586,0.051835180676585435,0.09640122742202173,0.140555908434286,0.18671813616945832,0.2359541782826695,0.28521725928892294,0.33448034029517637,0.38374342130143,0.43300650230768334,0.4822695833139369,0.5315326643201902,0.5807957453264437,0.6300588263326973,0.6793124550560029,0.7265513058368432,0.7698701818024868,0.8187140121503108,0.8663508958834253,0.9086001957442035,0.9459636945823099,0.9585770750708685,0.9458482874197055,0.9079560619777055,0.8661322804402282,0.8315496896155742,0.8059747215084981,0.7995223999769222,0.8103008876321572,0.8066190151338771,0.7854993630423438,0.7593255387886738,0.7321883945782784,0.707482809489986,0.6828601790041057,0.6608739595965397,0.6583309211033973,0.6780663479486898,0.706789249316823,0.7220075541955441,0.6968305145084285,0.6669697269204892,0.6425834712268378,0.6392248714117214,0.6529141252248304,0.6739412530861287,0.6935908672642855,0.698900477871096,0.6769175801133268,0.6306225357368477,0.587010265016649,0.540204631845422,0.4909785013239808,0.44450965381379015,0.4005917150385109,0.3515594873107464,0.30229644368588227,0.2530423637742989,0.20580816155592374,0.16250564767753672,0.11365599390802661,0.06714640659189641,0.02434178534721676,0.0,0.025748902591041234,0.07017699163163471,0.11935867612389117,0.16729025723170132,0.21022423820150415,0.25876011589800874,0.3080224130212771,0.3572854940275305,0.40654857503378394,0.4558116560400375,0.5050747370462899,0.5542264875677215,0.5989265196886847,0.644525121127196,0.6937355542866713,0.7429986190708137,0.7921031755997571,0.8363741634111969,0.8817259870819837,0.9230141876800381,0.9528611077909305,0.9656029389268884,0.9391834052370128,0.9000003314855537,0.8646483607016703,0.8399652742894405,0.8315380221620966,0.8326099446768981,0.8366796900678303,0.8167591901565704,0.7909262499472084,0.7635848920161507,0.7316918988510165,0.7019191428191766,0.6713381121998413,0.6450529466273639,0.6407495214908409,0.6565637215778771,0.6745900117751825,0.6626727100386888,0.6571224680311535,0.6706781473366422,0.6874943308078306,0.7111379457951613,0.7351219318729528,0.7467478640234037,0.7353438751030393,0.6970079393373713,0.6516765200422682,0.6073937143939651,0.5582867469049803,0.5090238281198508,0.4601442133257575,0.4167576824762377,0.36961560766549506,0.32036286417514914,0.2710997831688968,0.22183670216264229,0.17257884220172182,0.12497233746864211,0.08232074075871754,0.049466305353705886,0.0644225608336273,0.10457424679821337,0.15273203854783013,0.2019932567072168,0.2512541061783198,0.29938580458019426,0.34228452430708867,0.39065521074594345,0.4399171549538504,0.48918023596010507,0.5384433169663575,0.5877063979726119,0.6368713436604531,0.6817650275491501,0.7271655430113729,0.7763660158606264,0.8247978902035947,0.8676352402680284,0.9133739298967655,0.9514944653094756,0.9748240554158086,0.9798789595856982,0.9470426077260551,0.912656826429404,0.8850908455724548,0.873694029689342,0.8703199709574835,0.8709567110824475,0.8869481494310293,MI
0.47582826261041644,0.4936785097642651,0.5212192037022345,0.5474866930149012,0.5805806834214966,0.6084276229851038,0.6383470226164838,0.6644621978126679,0.6990382427245989,0.7350479594447172,0.7791337691817062,0.8129930381062187,0.839254265832849,0.8731415112779115,0.8976735620120304,0.9196678705057644,0.908759788864542,0.8715044760512014,0.8318510156648808,0.7845210360925914,0.7317198375932135,0.68465952396742,0.6310656438809659,0.58423299635762,0.5375684754963155,0.48379425879672455,0.43677489844938977,0.3841796850591881,0.3311967390090733,0.27545482492107665,0.22167729610173037,0.1748075966397633,0.12829314018849125,0.08331626066380071,0.06481981969556383,0.06469490890044538,0.07856731629098235,0.10199938099045669,0.12423860390645114,0.12922979704990256,0.12923553937598253,0.12923553937598253,0.12923597362661976,0.1307000997562473,0.14816035235547664,0.16570283252438855,0.17244879451962536,0.17245792910951074,0.17149716622546185,0.15456888890143405,0.1508491302845001,0.15084673424274664,0.1511718482693234,0.16493515697271688,0.15974363799682756,0.16780369270155004,0.1686848210068579,0.15194422638694016,0.1508467495692396,0.15084673424274664,0.15084673424274664,0.15084673424274664,0.15084673424274664,0.15080347507551473,0.14183583027507796,0.12945093138457953,0.12923553937598253,0.12923553937598253,0.12923553937598253,0.12911712713939227,0.11709302977830927,0.10767438202075752,0.10762434450921843,0.10750731058283058,0.09051170755161841,0.051239894124056384,0.025203257391471556,0.0011852670713214941,0.0,0.015400468682975621,0.03151509788674334,0.042989474785319004,0.058792585288045096,0.0844099795089921,0.08617178888313104,0.0969988208400645,0.09090857149433562,0.1043867483504255,0.14928660865181964,0.20733573649665793,0.27074730068362074,0.32597062658251064,0.3948175790937243,0.4483288476902665,0.5121248827258174,0.5645978508027292,0.632437380636421,0.7024407020479786,0.7721170176740277,0.8281825068353288,0.8908441427693243,0.9517148905045771,0.9215277096459435,0.851939320655712,0.7821187316752405,0.7263948097249999,0.6635102338669974,0.5935372298762451,0.5235339084646888,0.45353058705313076,0.38352726564157313,0.3135239442300155,0.24369796247232678,0.19718898756845826,0.20707001480757947,0.2558801607895296,0.3226984137237596,0.3749374983136806,0.4335997873856634,0.4158054553577828,0.39239549135475293,0.3917605743060535,0.4103312935041403,0.4300950391646836,0.4582207638292459,0.47784462119640203,0.5070089690776074,0.5420093613311772,0.5769776494158005,0.6059228491780515,0.6362093035147205,0.6712115672506616,0.7062173425619229,0.7407474077588865,0.7695094019909745,0.8111102749199826,0.8479081377803417,0.8912825301990339,0.916637892153378,0.9412722273738257,0.9645913753350883,0.9459258752455706,0.9072782624775333,0.8552289076519304,0.808479452300046,0.7617664500762182,0.7150405009198004,0.6660699725036294,0.6138761120956517,0.5608337681506548,0.5141628585686813,0.46744985634485214,0.42002651075464303,0.366818029909489,0.3130103224532439,0.26584903721918085,0.2103118647501634,0.15146515121719784,0.1059461899255445,0.07028278051116787,0.03598960396441697,0.021449067890613183,0.02900049428785989,0.05192639429793999,0.06450524549503234,0.07902865491062938,0.1058065736042364,0.1237077260676398,0.13993917024879776,0.15254497660933186,0.17003257193386379,0.17245792910951074,0.17245792910951074,0.17245792910951074,0.1728719558058307,0.18802054965861092,0.19406101115259577,0.19409612011864041,0.20086214452822793,0.21541871873251406,0.21568031884303895,0.21568031884303895,0.21568031884303895,0.21568031884303895,0.215322457191232,0.20043934415161857,0.19409217610049279,0.19406912397627485,0.19416911869010045,0.20494844241203447,0.21559575934039366,0.2157257895967235,0.22452832551879487,0.23715820627027728,0.23729151370980306,0.23729151370980306,0.23710084315601332,0.22273213858186214,0.20549052134788326,0.17220897306712857,0.13718956973320395,0.10027932289531538,0.0631055035140986,0.04409781020180681,0.05088142139233165,0.07478313922004487,0.10011337509766527,0.087738396971075,0.10081663378537886,0.11109250367131995,0.1282190461259285,0.12923708735178474,0.13172485157745806,0.16250962960145898,0.22215733036325735,0.27586369509703834,0.33782872319107504,0.390496847079552,0.4283908428250447,0.48463800936678103,0.539213973322413,0.6087074411748765,0.6787107625864341,0.7487140839979918,0.8187174054095494,0.8887207268211079,0.9577551686536574,1.0000000000000004,0.9618044318196666,0.8921107181727561,0.8224703248099146,0.767367302692461,0.7036891042605302,0.6337086273932893,0.5637053059817316,0.493701984570174,0.42380827368438023,0.3654710867213966,0.30527004140546365,0.24394777952207702,0.21766074646487876,0.2396834718909009,0.30665608728934446,0.37242791869204384,0.4230169881512671,0.42327871021938535,0.3858825390266323,0.36739937154937463,0.36722893592797545,0.38041596924295806,0.39661008113680474,0.4139049771723058,0.44368037220612155,0.4739100106354832,0.5011047433282179,MI
0.9032295772385084,0.8964137269054342,0.8919580969122982,0.8923602286496564,0.9008203684235689,0.9073888250017941,0.9088148115749235,0.9063583962334625,0.9013284608581653,0.8970989983549233,0.9066498211552483,0.9200962537230004,0.9369975192686804,0.9416812023966779,0.9359277311191658,0.9076774183058649,0.8689619019613999,0.8334285968360144,0.7964930466732446,0.7571124235126998,0.7177234104780859,0.6805547309223098,0.6452269749888775,0.605986241310117,0.5665775777400869,0.5271688969801518,0.4877676608271666,0.4500530011463396,0.41987709056304323,0.38914270390400785,0.35837289327627386,0.32321682377772487,0.28436001761351715,0.2534465756541759,0.2201709485063177,0.190503207357977,0.15629711467031576,0.11932354564522085,0.07994162737161531,0.040601559778126406,0.006635314785111174,0.0,0.0281151065806039,0.06377771066968235,0.10309167494238008,0.14250035570231512,0.181778104219194,0.21726158765256087,0.2542415566159556,0.29362652071499296,0.33303520147492793,0.3724438822348629,0.411852562994798,0.45125923781898436,0.48976295146771687,0.5242534329716516,0.5629796655334788,0.6023874087674108,0.6417960895273458,0.6812047702872809,0.7206134510472159,0.7600221318071508,0.7994308125670858,0.8388394933270211,0.8782014167111352,0.9146078173785896,0.9480831629473374,0.9641668702582686,0.9691915958655857,0.9768462825021005,0.9722191237806255,0.9552926640120136,0.9328539274939065,0.9098113665752814,0.8859982114270302,0.8614815531624915,0.8360171685419611,0.8132825169044682,0.791963189908351,0.7806340787133752,0.791408082322822,0.8175481967765155,0.845123885425809,0.8713641711699853,0.8948850142926985,0.9106565086577085,0.9170431136853279,0.9218458515101664,0.9222399437226925,0.923109389117162,0.9296149408403487,0.9374059207970062,0.9417181398692711,0.9453510318648115,0.9484502433801676,0.9504082250420651,0.942517031825274,0.9323280247514243,0.9345835264168472,0.9441013857490315,0.9556426706898609,0.9610789461063391,0.9586152313484047,0.9346376594499186,0.8959610530071245,0.8565529806634167,0.8171586440283217,0.7797418449899715,0.7446188418805272,0.7054267756480631,0.6660181348908039,0.626610734102336,0.5879881137562746,0.5535180869946509,0.5148905946511474,0.47548328911819016,0.4360746083582555,0.396665927598321,0.35726506767813015,0.31954423490761075,0.28467212610361564,0.24553969462929037,0.20613108182570733,0.16672240106577269,0.12731754104729176,0.08911696844200673,0.054577952913813454,0.021457776573055226,0.021657931985775286,0.055415194356811026,0.09476828246094299,0.1331460458588561,0.16765734096022994,0.20648900349599408,0.24589709518320657,0.28530577594314116,0.3245932420796658,0.3601205522067086,0.3970481015611095,0.4364319409558194,0.47584062171575403,0.5152493024756895,0.5546579832356242,0.5940666639955594,0.6334753447554942,0.6728558501784885,0.7097877318544195,0.7453248116293111,0.7846015097681723,0.824010190528107,0.8633824543225324,0.9000574749273511,0.9355071264808752,0.9659700888742135,0.9847845758557245,0.9963254372960915,1.0,0.9923459170650419,0.9757054843389403,0.9532087728224148,0.9261163249240962,0.900008962812451,0.8754275486990004,0.8499332093576699,0.8269442500010538,0.8055709413122407,0.8000287952521236,0.8135546646536942,0.839366578984869,0.8687066183067313,0.8961135786599372,0.9198076623384239,0.9370729429726445,0.9440463803054677,0.9450486593223306,0.9481995512475228,0.9483310022270699,0.9514875600886217,0.9569442201142639,0.9584005322538987,0.9592016699854506,0.9609392898590157,0.9554891022018237,0.9446151019014652,0.933704877948166,0.9361600296909278,0.9519925354486369,0.9607374335382812,0.9574158005068922,0.9556366232522611,0.9351418678802341,0.8974404428628151,0.8606278716467219,0.8249956897071478,0.7856990313178335,0.746302520254374,0.7087843766386339,0.6737450049643396,0.634572816984589,0.5951641855452207,0.5557556712221206,0.5167041471139733,0.4819546529816846,0.4440311773854285,0.40462933977260784,0.3652206590126731,0.32581197825273844,0.2864035898818375,0.24745338314953164,0.21290596282923868,0.17468237991077828,0.13527713248012557,0.09586903478509867,0.057091735181998754,0.030812702384722362,0.04444649560643085,0.08000151304355663,0.11935030813155051,0.15875047241385587,0.19654224379531687,0.23138060462489607,0.2704765843163213,0.3098851539041634,0.349293834664098,0.38869941404673525,0.4269881436466543,0.4615141518082887,0.5004203424290771,0.5398286804367108,0.5792373611966456,0.6186460419565801,0.6580547227165163,0.6973991808203314,0.7336026049572995,0.7698325213343897,0.8091808877291945,0.8485081869611371,0.8845065497964766,0.9207940678192903,0.9483211252090324,0.9528136511848337,0.958568352187757,0.9529083754281238,0.9370177853984833,0.9174190267341458,0.8925541565362738,0.8658285850347844,0.8418257990814766,0.8153201414540334,0.7878478375685384,0.7688471507131794,0.7564364641817363,0.7616425860312281,0.7827198136378166,0.804151596083048,MI
