0,1,2,3,4,5,6,7,8,9,10,11,12,13,14,15,16,17,18,19,20,21,22,23,24,25,26,27,28,29,30,31,32,33,34,35,36,37,38,39,40,41,42,43,44,45,46,47,48,49,50,51,52,53,54,55,56,57,58,59,60,61,62,63,64,65,66,67,68,69,70,71,72,73,74,75,76,77,78,79,80,81,82,83,84,85,86,87,88,89,90,91,92,93,94,95,96,97,98,99,100,101,102,103,104,105,106,107,108,109,110,111,112,113,114,115,116,117,118,119,120,121,122,123,124,125,126,127,128,129,130,131,132,133,134,135,136,137,138,139,140,141,142,143,144,145,146,147,148,149,150,151,152,153,154,155,156,157,158,159,160,161,162,163,164,165,166,167,168,169,170,171,172,173,174,175,176,177,178,179,180,181,182,183,184,185,186,187,188,189,190,191,192,193,194,195,196,197,198,199,200,201,202,203,204,205,206,207,208,209,210,211,212,213,214,215,216,217,218,219,220,221,222,223,224,225,226,227,228,229,230,231,232,233,234,235,236,237,238,239,240,241,242,243,244,245,246,247,248,249,250,251,252,253,254,Target
0.9801915555930227,1.0,0.9383022543012327,0.8478538789401342,0.7537268708263687,0.6520483305182574,0.5534289839290429,0.44634297425613934,0.3491312702664964,0.33535600568498736,0.4351735130905676,0.544667875830378,0.6465489321594164,0.7458019019743696,0.8295997535399131,0.8584365244110428,0.8574648211668179,0.8463478290481277,0.8250888120985742,0.8034356292667364,0.8264697492590867,0.82977113978645,0.8342364867169194,0.8250596251583122,0.8137795041585636,0.8115226466725751,0.8052065677740283,0.7997339053437895,0.8059013275447238,0.8367513117926912,0.8642917661246203,0.9008443556121737,0.9413546226770433,0.9658406214556674,0.9706530859897637,0.9517031961214801,0.9696371036281679,0.9487813568077366,0.8698573849862883,0.775993700853332,0.677835866269894,0.5784752532240405,0.47445496045897784,0.39591083959787765,0.4451670444723823,0.5263204359669298,0.6207889551476469,0.7205670270573368,0.8142671806486805,0.8538079128075928,0.8451049869210605,0.8409638450693966,0.8268884739231179,0.7995735500001011,0.7993106584762515,0.8148428103582002,0.8066926213848769,0.8166585491994383,0.8198723497131462,0.8210312425734565,0.8387285991109761,0.8731968853839152,0.9072709147127611,0.9386683336771675,0.9706389728399683,0.9934329101847506,0.9783095914412185,0.9682144681242675,0.9547927542814976,0.8836079800457144,0.7896518916858288,0.6886126909276902,0.5894757081164457,0.48071284429064853,0.38527829042516726,0.41284519910529216,0.5147486664273484,0.614392526361101,0.7160040543354849,0.8072555313938929,0.8518489996944849,0.8549157027157905,0.8491513436225357,0.8324745165740008,0.8027610964313583,0.799578130460258,0.8060917712558928,0.8165309383223995,0.8043035302980992,0.7922955310762405,0.7990721333866166,0.7987591236003748,0.8023107533104716,0.8285096074540319,0.8642381115015887,0.9021229730516276,0.9411218106129384,0.9637781455971615,0.9555642605263555,0.9472608533667883,0.9562882591836113,0.9806692956785992,0.9211505328304521,0.8332939631954952,0.7388724207485087,0.6412620865281982,0.5354247666992804,0.43478142184236157,0.3446507184459364,0.377828695887666,0.48497353970285584,0.585343753308444,0.6864821999149084,0.7802009763708604,0.8410497448966492,0.8475761191259026,0.8396071579552147,0.8306839583875765,0.813364390135737,0.8025933762782271,0.7646226459749239,0.7628994584868387,0.7857258922963082,0.7960059347081891,0.7894055602202843,0.7180230474071307,0.6207952833108132,0.5201398727786319,0.41900739020988276,0.3201736920140943,0.21757668836014976,0.1275790289620209,0.12084186996879986,0.20710194062334852,0.3041481212628241,0.4028445543247283,0.5075365810145129,0.6095781071222515,0.7111486674717358,0.8069310093519322,0.8806315605631023,0.8900486840797268,0.9012403324360405,0.9178642824840142,0.904702767938721,0.8638697129553368,0.8295220058883701,0.7928265473260017,0.7594965304919898,0.7419166555826382,0.7436085032563495,0.7415411012713635,0.7458371166638882,0.7580592096925685,0.766669406554497,0.7523396907268185,0.7439827254016218,0.740426193793787,0.7745544743449044,0.7951698796950661,0.8038886882171732,0.7781550183053998,0.6924958194401172,0.5934075566759489,0.4912200985211488,0.3908838714864453,0.29257893071961183,0.19232636417785232,0.1122153316915735,0.13959223445359203,0.23658871073329268,0.3358615206113462,0.4370613017468967,0.5362691820126706,0.6325421610215436,0.7138323753828821,0.8064394234371002,0.8952355686069877,0.9098912348045802,0.9201677922463491,0.9378336178438551,0.9295722900914067,0.8977778962081646,0.8635023110838942,0.8335827793243222,0.7949464470498224,0.7783955835853709,0.7797158952878922,0.7632302177227288,0.7572549156954356,0.7635720165857078,0.7584291210429903,0.7483011800500057,0.7372676518628998,0.7730542097373885,0.7893885944241275,0.7966132257378717,0.7871333132748575,0.7108086864107004,0.6128760877376225,0.5102827477378056,0.4105642109030172,0.3088315006871989,0.20624356973459235,0.10209697387390526,0.01035133011126077,0.0,0.08740398327456078,0.1855735830039631,0.2906843758731297,0.3893215141124089,0.4954982376533623,0.5941510515722075,0.6979789266669001,0.7942947906178413,0.8759760225909337,0.893375530009429,0.908268949457407,0.9121801117436337,0.8858301551844088,0.8455958472693075,0.811985639168296,0.7816703902420499,0.7514672855651634,0.7546652268884455,0.7657680354056056,0.7582660286136176,0.765843642211689,0.7645475238257378,0.7765770208945657,0.7802439478752512,0.7676968670350259,0.7488812300636543,0.7650642024597389,0.793363859684638,0.7994172718283621,0.7945738661049311,0.7234515247981093,0.6214499846754711,0.5228060720002912,0.4178191321302842,0.32148411795224097,0.24019807607103205,0.14695801239347173,0.07739129178222881,0.1240289410073454,0.21987564041712426,0.32060071705021054,0.42228034928246405,0.523762610689682,0.6266257563239295,0.7268677331527429,0.8244251351165559,0.9088550833079818,0.9229470737609748,MI
0.6581017169248828,0.6901432216970971,0.6671945909988999,0.5754398354832913,0.4719218875399056,0.36096573575681834,0.35292349931935885,0.46673836773379174,0.5748760618912301,0.6951915892653084,0.8182979662870826,0.9242989629893423,0.9745776088393026,0.9199187887948979,0.8310302575594539,0.783141256211342,0.780578863386796,0.7798219579555363,0.7618052797361567,0.7119846191031938,0.6689425860891771,0.6941069360161038,0.7307163435352155,0.7587815309524313,0.7668091534498562,0.759959351754238,0.7601607477807382,0.7696881476941604,0.7630348599762233,0.7749105129866147,0.78054600738849,0.7805772541217673,0.7805300390979091,0.7717335314144607,0.7250362708542055,0.6695336629350854,0.6051096343505669,0.5364675692090008,0.4806236408521287,0.4834356681926604,0.5038984522112653,0.5252263893600175,0.5518161765482836,0.5758535820573307,0.5992754292524105,0.6241196954269981,0.658428612825924,0.688377792682862,0.6308065663482738,0.5331517463046413,0.42503383000579653,0.38314444777657464,0.47138360174358773,0.5934124526806062,0.7171553991458159,0.8354673714551852,0.9384309703788363,1.0000000000000004,0.9553239150152075,0.8743435264808661,0.8579149118899365,0.86186868732237,0.8454635093743574,0.8238313100304078,0.7724573899765321,0.707475943948519,0.7085498253474185,0.7486510209064576,0.7822479314210851,0.8017337539774063,0.8143086297910709,0.8036170914596021,0.8012906154022232,0.7940723292483574,0.7810899682181165,0.7836485869841225,0.7928451547036603,0.7862420948620223,0.7993989081416983,0.7915863590610432,0.7666013660108169,0.7165225262530583,0.6538925330793988,0.5806963393241338,0.5265967370776257,0.5228362465543475,0.5534376587178396,0.5927033287045607,0.6246336930653529,0.6515601395580601,0.6714535974557561,0.6951092043453948,0.7114738189058314,0.7302636480882274,0.6866777704994131,0.5953861832994187,0.49217298286658595,0.39111695119319556,0.4269152798805993,0.5331166262217901,0.6544283587755846,0.7640831629543396,0.8763037397501074,0.9625317666044855,0.9568685242711079,0.8791015298701765,0.7985752787993663,0.7807063271576209,0.7802654528630844,0.7665330935844037,0.7203337941008616,0.6664590877457539,0.6551690689357503,0.6881857330540799,0.729525648970951,0.7519373447572297,0.7412432958197979,0.7454468366881439,0.7591221663341754,0.7597989706521973,0.7597993340998812,0.7606240221405121,0.7748611241335253,0.7750003321830508,0.7310936063711235,0.7103035021781374,0.7099090513235491,0.7049024746715307,0.6987349672295484,0.6954125694118689,0.6892006310920404,0.6891533690900995,0.6889413970580209,0.6735309403513461,0.6336691880731906,0.590252293506321,0.5740717906875994,0.610939250714059,0.670025912326234,0.7121949501467406,0.7292429586998872,0.7207127526907411,0.731737469041347,0.774264801711396,0.7476402362022077,0.6437998852232938,0.5236257918246201,0.41138574353078416,0.29654298649149435,0.1810876678155129,0.07643703004221214,0.021466648617769035,0.07865806779508144,0.19138213862600084,0.300736512232187,0.4171836474484065,0.5220354969714252,0.6152799171284133,0.64465928223097,0.6270852120909729,0.6076405562434388,0.5878983759221548,0.5602814200928758,0.5246910709566226,0.4882140062168667,0.4600574803689428,0.44723090624446415,0.4885087130829451,0.5511441909134036,0.6177673759628681,0.6798753093776888,0.7242260412347203,0.7306896825408988,0.7307096804681303,0.7307096804681303,0.7307096804681303,0.7307096804681303,0.7307096804681303,0.7310147571119794,0.7413564414206921,0.7345187072020338,0.715891380806549,0.6808860195756306,0.6373702112134216,0.6384830346160588,0.6943590606523307,0.7572904230287576,0.7859796015768459,0.7929904352927846,0.7936369146983142,0.815114709879377,0.8158693662501899,0.7099254628121896,0.5918420522060512,0.48242733482892675,0.3625202612421594,0.25457620868810693,0.13557762256960304,0.032880983683543086,0.0,0.08673913771834574,0.19396913882147793,0.3127358811116121,0.42019663593890266,0.5253311084013004,0.5895453018232066,0.5653919135841616,0.5437666503917473,0.5127489669023304,0.49815283401406374,0.47299167004144227,0.4473558155463109,0.42088370015829524,0.40116823224936615,0.4243420172672421,0.47776650375945984,0.5441429002969183,0.6141139941189273,0.6735252934147122,0.7131850665096215,0.7298544649199576,0.7194979251141884,0.710075602992609,0.7099315247791145,0.7099315247791145,0.7099315247791145,0.7099315247791145,0.7097510608435451,0.6984026355079163,0.6627191860675556,0.6256698094102298,0.5918482319020755,0.621305168590681,0.6787459959640239,0.7192831134222306,0.7305334988681516,0.7307276440578558,0.7364638125653897,0.7845985495395658,0.7711809280057542,0.6779436880256071,0.5859582515814052,0.4785605186755695,0.36097662869478997,0.24512869256953662,0.13384681789004382,0.023351876453129528,0.0074882222641923235,0.09230299353463822,0.20440567649990493,0.31371437908471256,0.4284012752816979,0.5344426124348121,0.6074162457274874,0.5893951658063727,MI
0.6581017169248828,0.6901432216970971,0.6671945909988999,0.5754398354832913,0.4719218875399056,0.36096573575681834,0.35292349931935885,0.46673836773379174,0.5748760618912301,0.6951915892653084,0.8182979662870826,0.9242989629893423,0.9745776088393026,0.9199187887948979,0.8310302575594539,0.783141256211342,0.780578863386796,0.7798219579555363,0.7618052797361567,0.7119846191031938,0.6689425860891771,0.6941069360161038,0.7307163435352155,0.7587815309524313,0.7668091534498562,0.759959351754238,0.7601607477807382,0.7696881476941604,0.7630348599762233,0.7749105129866147,0.78054600738849,0.7805772541217673,0.7805300390979091,0.7717335314144607,0.7250362708542055,0.6695336629350854,0.6051096343505669,0.5364675692090008,0.4806236408521287,0.4834356681926604,0.5038984522112653,0.5252263893600175,0.5518161765482836,0.5758535820573307,0.5992754292524105,0.6241196954269981,0.658428612825924,0.688377792682862,0.6308065663482738,0.5331517463046413,0.42503383000579653,0.38314444777657464,0.47138360174358773,0.5934124526806062,0.7171553991458159,0.8354673714551852,0.9384309703788363,1.0000000000000004,0.9553239150152075,0.8743435264808661,0.8579149118899365,0.86186868732237,0.8454635093743574,0.8238313100304078,0.7724573899765321,0.707475943948519,0.7085498253474185,0.7486510209064576,0.7822479314210851,0.8017337539774063,0.8143086297910709,0.8036170914596021,0.8012906154022232,0.7940723292483574,0.7810899682181165,0.7836485869841225,0.7928451547036603,0.7862420948620223,0.7993989081416983,0.7915863590610432,0.7666013660108169,0.7165225262530583,0.6538925330793988,0.5806963393241338,0.5265967370776257,0.5228362465543475,0.5534376587178396,0.5927033287045607,0.6246336930653529,0.6515601395580601,0.6714535974557561,0.6951092043453948,0.7114738189058314,0.7302636480882274,0.6866777704994131,0.5953861832994187,0.49217298286658595,0.39111695119319556,0.4269152798805993,0.5331166262217901,0.6544283587755846,0.7640831629543396,0.8763037397501074,0.9625317666044855,0.9568685242711079,0.8791015298701765,0.7985752787993663,0.7807063271576209,0.7802654528630844,0.7665330935844037,0.7203337941008616,0.6664590877457539,0.6551690689357503,0.6881857330540799,0.729525648970951,0.7519373447572297,0.7412432958197979,0.7454468366881439,0.7591221663341754,0.7597989706521973,0.7597993340998812,0.7606240221405121,0.7748611241335253,0.7750003321830508,0.7310936063711235,0.7103035021781374,0.7099090513235491,0.7049024746715307,0.6987349672295484,0.6954125694118689,0.6892006310920404,0.6891533690900995,0.6889413970580209,0.6735309403513461,0.6336691880731906,0.590252293506321,0.5740717906875994,0.610939250714059,0.670025912326234,0.7121949501467406,0.7292429586998872,0.7207127526907411,0.731737469041347,0.774264801711396,0.7476402362022077,0.6437998852232938,0.5236257918246201,0.41138574353078416,0.29654298649149435,0.1810876678155129,0.07643703004221214,0.021466648617769035,0.07865806779508144,0.19138213862600084,0.300736512232187,0.4171836474484065,0.5220354969714252,0.6152799171284133,0.64465928223097,0.6270852120909729,0.6076405562434388,0.5878983759221548,0.5602814200928758,0.5246910709566226,0.4882140062168667,0.4600574803689428,0.44723090624446415,0.4885087130829451,0.5511441909134036,0.6177673759628681,0.6798753093776888,0.7242260412347203,0.7306896825408988,0.7307096804681303,0.7307096804681303,0.7307096804681303,0.7307096804681303,0.7307096804681303,0.7310147571119794,0.7413564414206921,0.7345187072020338,0.715891380806549,0.6808860195756306,0.6373702112134216,0.6384830346160588,0.6943590606523307,0.7572904230287576,0.7859796015768459,0.7929904352927846,0.7936369146983142,0.815114709879377,0.8158693662501899,0.7099254628121896,0.5918420522060512,0.48242733482892675,0.3625202612421594,0.25457620868810693,0.13557762256960304,0.032880983683543086,0.0,0.08673913771834574,0.19396913882147793,0.3127358811116121,0.42019663593890266,0.5253311084013004,0.5895453018232066,0.5653919135841616,0.5437666503917473,0.5127489669023304,0.49815283401406374,0.47299167004144227,0.4473558155463109,0.42088370015829524,0.40116823224936615,0.4243420172672421,0.47776650375945984,0.5441429002969183,0.6141139941189273,0.6735252934147122,0.7131850665096215,0.7298544649199576,0.7194979251141884,0.710075602992609,0.7099315247791145,0.7099315247791145,0.7099315247791145,0.7099315247791145,0.7097510608435451,0.6984026355079163,0.6627191860675556,0.6256698094102298,0.5918482319020755,0.621305168590681,0.6787459959640239,0.7192831134222306,0.7305334988681516,0.7307276440578558,0.7364638125653897,0.7845985495395658,0.7711809280057542,0.6779436880256071,0.5859582515814052,0.4785605186755695,0.36097662869478997,0.24512869256953662,0.13384681789004382,0.023351876453129528,0.0074882222641923235,0.09230299353463822,0.20440567649990493,0.31371437908471256,0.4284012752816979,0.5344426124348121,0.6074162457274874,0.5893951658063727,MI
0.835251178843641,0.8700612356461066,0.8847918275259141,0.8877689586370645,0.8825543045072648,0.8509043905628679,0.804689499383801,0.8204124315623449,0.8382483817924087,0.8634993975477399,0.8716260019947015,0.8735278151506958,0.8723212701219392,0.8692665420564099,0.8747386599559828,0.8855526888939484,0.8861517695584753,0.8819280000088063,0.8748894270756311,0.8720212911814131,0.8510001716850553,0.8162498792581847,0.7856298534235318,0.7703231513383091,0.7538609960330989,0.7378934202784817,0.7528159323080115,0.7907913345989821,0.8337381418793404,0.8755466158366787,0.8976100612473481,0.8943019184865284,0.876398218504902,0.8606108094832046,0.8457807153803281,0.8450504088302366,0.8512294163027285,0.8829166167078395,0.946633299008439,0.9999999999999998,0.9956714757806722,0.9294592761256373,0.849222264887121,0.7676459866073755,0.6886810792966436,0.6016456473725509,0.5144111104307363,0.4452311970056695,0.48893338297447,0.57495055518482,0.6519465484324554,0.7241328472253381,0.7649689711502823,0.7767952058211967,0.78295159999627,0.7739985825889686,0.7614297243331569,0.7172854835765163,0.7290377618036794,0.763032385210898,0.7904384869444343,0.8017968205344912,0.8031651714598029,0.8116089114359124,0.8115696747943881,0.8101786926327084,0.8025687981742393,0.8021881495746384,0.8019839843337528,0.7942373942990686,0.7880085910934913,0.7888399895328606,0.7930419779191225,0.7880804521674019,0.7879025191063882,0.785255802940757,0.7795680915079559,0.7653666756284585,0.7422496139953239,0.74867909241579,0.779521503086612,0.8257772199346867,0.8688503551514419,0.8890274299871932,0.8933648520409239,0.8789348212507331,0.8528093074837704,0.8291335466321523,0.8107151440550904,0.8024470565918829,0.8113352250549102,0.8576139514379599,0.9125223171353649,0.9340551208519405,0.8809402514501159,0.8028448548578802,0.715809650300488,0.6285077657085367,0.5412062714363175,0.4556850920190325,0.430043704665773,0.5058629667590944,0.5863706460578035,0.6603899819102026,0.7125791027145787,0.7436105061952458,0.7746191471900639,0.7875009850039432,0.7804137386826959,0.7544306075724296,0.706430906653887,0.7093923169907301,0.7357951955807074,0.7561891214265979,0.7649192651412726,0.7733807098806473,0.7748649617964041,0.7748378946797672,0.7361363038173561,0.7289701589480442,0.724300359314898,0.7138058027676208,0.7044078636599853,0.682544579708116,0.6540883914310942,0.6334625913337006,0.6683220789717084,0.7129071066618835,0.7401205809105365,0.741641838283823,0.7108108548297778,0.6804779050180276,0.6222551338400801,0.5435394807667391,0.4659470458668187,0.3807182881294511,0.304196411388155,0.2197370259630762,0.1428282200123645,0.06060938106591274,0.0,0.025840387098647,0.10401378976233477,0.19115422703296314,0.27642242508702153,0.35295647417945775,0.4387959409238824,0.5260942106568878,0.6119930209904954,0.6884368629699289,0.7730434219437108,0.8201201291013029,0.7792607728418763,0.7520011435481433,0.7461164504847899,0.7564150121178417,0.7775375818220491,0.7956406836853274,0.8208115502284807,0.8373145136950175,0.8320174524759316,0.8050100133861171,0.7583810775042179,0.7181906252371253,0.6928199954200795,0.6946965729555179,0.7158110102572255,0.7337812621791884,0.7326903222937153,0.7378297116487766,0.7406943292047485,0.7412016087070958,0.7394993494183251,0.7455046637504592,0.7470814799107532,0.7518144186868232,0.7538160059546966,0.7609744223140102,0.767812088108957,0.7679254852173891,0.7652851207429265,0.7638140223833785,0.7540908084791946,0.7304690089419072,0.7041537480435112,0.6638096769552135,0.6480330928811597,0.6847408889692701,0.7246243867397453,0.7378353575529724,0.7278501591322131,0.7138772554258253,0.6543038666324941,0.5791713904357472,0.49430306774017896,0.4136019033021756,0.33373869668683476,0.25164918847291884,0.17324698535250938,0.0925679903068577,0.05342469254170057,0.10515333054087472,0.19015655593279934,0.2674781149222296,0.3271663305139072,0.4094324949910033,0.4967153270975835,0.5833737693706114,0.6606371186354105,0.7443676213538193,0.8313897225670062,0.8914937771105846,0.8576367230017896,0.8196184838464922,0.7997413176709876,0.7964926694518024,0.7971555993886723,0.8100659092311038,0.827891857467353,0.8492579815252104,0.8428484094453792,0.807109793382548,0.7588888442555126,0.7181945648847672,0.6898835324677444,0.6869716512395387,0.7058541453032665,0.7272175384246242,0.7460737250551188,0.7802521601413404,0.8110401068289483,0.8263038082792555,0.8309496677769939,0.8380400009894873,0.832623012654613,0.8292595792977633,0.8244426164168408,0.8177740099233748,0.8242986530365772,0.8248712701505296,0.8167153181622588,0.7973287956721673,0.7757366767572507,0.7504881055294341,0.7675838214324011,0.8161826886811345,0.8383732613450785,0.8389177226361249,0.8266270437470087,0.7769358565312225,0.7006193715287428,0.6242928989940102,0.5419337537371718,0.46532354381345975,0.3864647281024618,MI
0.6298639845206866,0.6954841721116689,0.7689289793709673,0.8272651102860942,0.8846716791403209,0.9126390127134667,0.9057365424492181,0.9182653846027469,0.9263120763086423,0.9021555916019177,0.8613470098963631,0.8373803400335427,0.7895195537963096,0.6930089314078574,0.5973797332043227,0.5824576678920299,0.6745473109213078,0.7625087195078621,0.7992393655176211,0.8026956239457261,0.7793136631000164,0.7558098358140248,0.7279878982166759,0.753919648337277,0.7884827994097483,0.8099650792553375,0.8212194666809398,0.8331963246326719,0.8444204053045778,0.8334501100505096,0.8312332760944554,0.8247705865050814,0.8088696381326779,0.7850967026493354,0.7565937384844581,0.7240951452869688,0.7405210889998575,0.8006455182801804,0.8635984177427383,0.9211314084659907,0.969081559915137,0.9964176348585707,0.9941194584674835,0.9714749475499991,0.9595970152049365,0.941418267967423,0.9024436788158758,0.8610913617439047,0.7810614521461043,0.6764053453070895,0.5788171604093857,0.47064901534084047,0.3867073632982878,0.43601218128553443,0.5384571294187195,0.6327400361452238,0.7003752705536814,0.7176646634309902,0.7166267431945852,0.7153468014030322,0.6879326789416873,0.6886292667420508,0.729512835509559,0.7491947195931492,0.7620733884803115,0.7652761483735917,0.7783120252184004,0.7874591035289371,0.7844541527108069,0.7748724597202017,0.7416180795047986,0.7025174839240056,0.7073337578089505,0.7638683671802378,0.836593709655046,0.9000840349438404,0.952526024027466,0.992694947067823,1.0000000000000004,0.978986421468607,0.9588895814958631,0.9215062150205378,0.8804872021625485,0.8565453801286562,0.8203487004485304,0.7244521549767367,0.6252171546471796,0.5204148458255871,0.4360815955352999,0.48750436869114955,0.5953919034034643,0.692684151975206,0.7726647891698701,0.793074473999031,0.7899642946603973,0.7624273664697783,0.7280341468797458,0.6924757550825968,0.7128456787485904,0.7408379277324366,0.7512506415913225,0.7412643246264041,0.7295711852928282,0.730104109159396,0.7426396666095472,0.7458025007121036,0.7380756530602124,0.7274638995555125,0.7032541468051794,0.6681700673959723,0.6766089705448217,0.7344575180575976,0.7950079120274118,0.8613472319696478,0.9189621565758541,0.9593528102596349,0.9537393028398573,0.9146069161451789,0.8737073990129605,0.8198607815517778,0.7564100400445124,0.6909787003218519,0.6323739381986839,0.6072846231959255,0.6327219869652141,0.6668717061412885,0.6858109162121977,0.6918167765659398,0.6883097644160969,0.6822925960639608,0.6760175296641888,0.6791749864358478,0.6852160612938665,0.701807921737629,0.6878808711706532,0.6503648948589285,0.6142833824229941,0.6410772836988397,0.6819981970685669,0.7204362447469426,0.7369008035105518,0.6925629654370957,0.5940160024121912,0.49316539670236814,0.3845578489317516,0.2868657853290437,0.18052927996336487,0.08345545473751281,0.0,0.0036389179801976645,0.09285875217315276,0.20295623019950293,0.3134698067039192,0.4239833309667027,0.534085144344123,0.6341106230158875,0.7323530746112876,0.7857991853829449,0.8309928638325301,0.8742077050637564,0.9104682386429759,0.9322887877608257,0.9419658017238342,0.9139198045547738,0.8598054619087465,0.8009482769883203,0.7268106789912525,0.6650921454053358,0.6253318531505481,0.6477222719637963,0.6884790884251681,0.721882353860428,0.7377946423837214,0.7326851846849465,0.7219956007441231,0.7139459299184492,0.7131677462027155,0.6958755609214342,0.6626316204668732,0.6166362599536006,0.6218531152159397,0.6628665908649296,0.6704344662389592,0.6558447433739918,0.587248257928219,0.4902771567737605,0.3844571750753323,0.2840331942308558,0.18043574496522696,0.08027687335098088,0.0029041190271050787,0.027847204043610407,0.12547704590532494,0.22971111783533749,0.32974584944319574,0.43981303331191857,0.5454471562451606,0.644459394710259,0.7528929921637006,0.8256062170189229,0.8698099980814984,0.900217349396641,0.9196399629845993,0.9425722567601031,0.946877012280928,0.9130743663749925,0.8596594621852636,0.7962921916812302,0.7354223143272915,0.6773463715566055,0.6595674374359222,0.6891491845837745,0.7218026495595602,0.7502821475874386,0.771854595998994,0.7732794259168645,0.7771622598709946,0.7890918669580791,0.7804631778474427,0.7647002344092284,0.7500945883255774,0.7420107625682335,0.7106571639002106,0.6649631106751315,0.6525196323224347,0.697067423948079,0.7290645546643386,0.7459695237877773,0.7414369418812687,0.6746020069025165,0.5785612020871178,0.5011199128618009,0.4039332652585843,0.2969776291850663,0.1996474675004123,0.10866922809683865,0.09262817529149592,0.17893842370567103,0.27705296539568414,0.3865659303182061,0.4970789771167694,0.6075827652799877,0.7125758927421506,0.7676497682297025,0.8150722495305858,0.8600604288614764,0.8686807385652782,0.8475222682055845,0.8600449064964333,0.8534076416046297,0.8017172848316125,0.7447886426670087,0.6790581347440203,0.6032733947095203,0.5422422835119938,MI
0.46166010284207726,0.5192627425988894,0.5775661392926397,0.6131667280164521,0.6107233486397758,0.606103704049759,0.6082105085292033,0.6073253741108928,0.618994025246721,0.6276286357096561,0.6279579613099315,0.613903790767611,0.5742727498645648,0.5077534911219708,0.42480603003218054,0.3449664370160299,0.34408733827137006,0.4009844225004251,0.4622306741395956,0.5197529477513525,0.5576787647390269,0.5862709017733607,0.6072961015725076,0.6412465938776144,0.7052595228918346,0.8131748903235456,0.9287393123130601,1.0,0.9282324983553547,0.7782296982475101,0.6209728789917293,0.47102302173619126,0.5276615429037772,0.6380213774040548,0.675200771459088,0.6681021651711703,0.6609908725018538,0.6274471884140267,0.5513120696682954,0.4641771431203967,0.43206257456440955,0.5020490754330584,0.5790888392884002,0.6180103880149286,0.6074194512534019,0.6206946471413577,0.6374080546578114,0.6009991941580877,0.6174797036261079,0.6346500593436515,0.6140343976981741,0.5831890219392912,0.5429184440019013,0.4861416584849998,0.39768653270827237,0.31351712632331097,0.3037951339833569,0.36676011120519636,0.43070836519858613,0.48542856421532843,0.5162513881285573,0.5575373986614691,0.5886227354785039,0.607183694994939,0.6291953669100234,0.7181074530730704,0.8515695481743313,0.948973883034177,0.9404950321657104,0.808781508566863,0.65001493907873,0.49690083841056865,0.5197110971552936,0.6487779900548407,0.6692894597722692,0.63294964539877,0.6439751042595674,0.6171764073767649,0.5486334835664675,0.4679515989281269,0.4376037437886806,0.5028648760329553,0.5667048683863758,0.5970773265338787,0.6096388692312598,0.5895852851455983,0.6115423570060514,0.6154585029711575,0.6173144411642122,0.6200935791632087,0.6036378801094751,0.5870249796634184,0.5538754647213118,0.4658737750920805,0.38687866466582843,0.3337050147576299,0.3647743174278224,0.41820871190652564,0.4703649563819283,0.5118240171887862,0.5438594459860848,0.5617824202629933,0.5903915774040707,0.6230300590487836,0.6917622284827996,0.7945101570349147,0.9046486385216648,0.9310807062840825,0.8167242215805919,0.6571663984497338,0.5124133624419169,0.5423587796818534,0.6599676123178204,0.6725116775683899,0.6504649639537563,0.6220483109952246,0.5835890125400436,0.5082033829502288,0.43523789324238393,0.46363015611334735,0.5366213071439407,0.591028719152713,0.614405554861051,0.5795815584800419,0.5051068061563466,0.48672374009335506,0.4725320175700034,0.42072288994977125,0.34919699017772476,0.34348423687073737,0.39020001099878865,0.469734631981499,0.508165973436066,0.5396832178170516,0.5457458502974024,0.5097687585510613,0.36466909119048996,0.20766509075933204,0.06845072700478294,0.036473703184594086,0.15674617089801401,0.31685920380275245,0.4752296490873089,0.6478548369068147,0.7552817105107588,0.681740805132149,0.5890904801531756,0.5218994612242627,0.4892949748217106,0.45898078055041225,0.43701640263169317,0.39495663582493634,0.3513230357334036,0.29927615318179246,0.24632393636752248,0.2164891727760958,0.25893917925797894,0.3331601050489379,0.4197726626630649,0.4810647327817774,0.4946163139836246,0.5038975917504374,0.5074324677453177,0.5074214505358929,0.5018311213196034,0.49804956421601343,0.5073388627690427,0.5013574485882328,0.44492562053168694,0.35832311610085466,0.3010663949329704,0.3157619561955505,0.37475662799268417,0.473876799383663,0.5184691408696827,0.5259492808429789,0.5308023324109223,0.5032367964871103,0.36770106546293313,0.21051691143669515,0.06346308336997275,0.0,0.1089381721315803,0.27282504363847515,0.43425793190106354,0.6018841733639375,0.7320466902958342,0.6783320991930655,0.5704980995484803,0.5094023769916349,0.48435099140533033,0.45943322403504006,0.43753110336805445,0.4004784453195498,0.34328011833902394,0.2810754843302874,0.21547364925873858,0.17974031087417153,0.21636549611108613,0.2941891295649146,0.37439794895544853,0.4495110512740892,0.4772598138866124,0.5032199078544011,0.5074314127614157,0.5074384688951508,0.5062237664929174,0.4890418003260706,0.48964820197326375,0.5012312509784644,0.43878481343359255,0.34586080419821474,0.3142030804311631,0.3491738725073912,0.4278387386370879,0.5060965941275892,0.5450310493964485,0.5571183158738879,0.5533936557378354,0.4530911554009709,0.29993167922397834,0.14258874100066699,0.03385238555922143,0.07975512711243926,0.22538467153821795,0.38267311736873566,0.550781761521808,0.7121513145782554,0.7901400822516953,0.6899396842369665,0.5987895426638312,0.5539468706808321,0.5151233052303459,0.4784198446872985,0.45329196712368525,0.4107972908484596,0.3627706571807412,0.30127358381617864,0.24812588382542078,0.21411864186316087,0.25056124679534,0.3410292020272694,0.43593015669969404,0.49083251380715964,0.49471312671427103,0.529781479044833,0.5153096715554568,0.5074695652102017,0.5074385012439704,0.5068024251390337,0.49366042712193536,0.5013398095089521,0.4598981713847543,0.39846459255083655,0.34515303223122196,MI
0.882222926099105,0.8588868205229891,0.7879521218591439,0.6942152793302809,0.5942469067717533,0.49051799380676164,0.4028100871867115,0.4534860404068286,0.5609457937858033,0.6620872802671021,0.7697335019594385,0.866588007188049,0.9478563341015591,0.9867952237723343,0.932563875464294,0.8843827396767869,0.8361210624936626,0.8221175709880835,0.857060052891998,0.8805847462136236,0.8805413043911856,0.8866680742157089,0.8958304164338449,0.8930780423959646,0.8835388870150949,0.869657725754533,0.8255137562012296,0.7682857921341393,0.701802890830546,0.6533172984794935,0.6770992088833068,0.7352163773793992,0.7920528357108889,0.8392949735983777,0.8709188274705988,0.8815678960563949,0.8509754159243417,0.7674625893071632,0.6697957496508997,0.5690366600659711,0.4626453918110749,0.386649507443964,0.4530585454769751,0.5536523479931075,0.6612418367804982,0.7624493984999274,0.869285730687996,0.961664929478474,0.9773494749956924,0.9278475532966897,0.8896721508989538,0.8441644487591557,0.8625643137609051,0.8971696443286659,0.9094683801512704,0.9180675198098633,0.9334008749249887,0.9350846093954455,0.9214592192004831,0.8848473442079761,0.8261027502228928,0.763440204713183,0.7073784247074753,0.6965878401551397,0.7399355215418209,0.8005927449020822,0.8460762502294763,0.8827571869455437,0.9038970543234779,0.8850193806656028,0.8233905755183137,0.7285304910118642,0.6285678994058088,0.5288949572539487,0.5276257020447621,0.622388120933205,0.7312456384311257,0.8418796594694014,0.9433507690268472,1.0,0.9580447183934244,0.9096436677728694,0.8611034452726662,0.8416927135543641,0.8758123940355138,0.894738025340835,0.9001328829053188,0.898307143635455,0.8981000361550122,0.8869298881128533,0.8830429960269441,0.8473583664387792,0.7917386030688989,0.7291079222654955,0.6643054968392099,0.6571562567125504,0.7121923628825915,0.7736339683708411,0.8287557227378719,0.8748039542162975,0.8942093120974675,0.8846606647779778,0.8257969719245386,0.738379662359363,0.63990643966038,0.5342787319633902,0.44058394201340323,0.4540407512692446,0.557054580911093,0.6585275443740688,0.7658913639658258,0.8669461580548732,0.9631329525821042,0.9758534683109357,0.9196878345851873,0.873627016349396,0.8227598526307869,0.8230143222588584,0.8138463233432782,0.7717945079528703,0.777897085915142,0.8279480179162113,0.873048194792434,0.8604909473974329,0.7670842193642646,0.6623226246080116,0.556691633622294,0.4535845011137587,0.34395942119026124,0.24256679309075535,0.13537147203435573,0.04962912762168159,0.06877104039035631,0.1625208512409786,0.26985180884601534,0.37269206511553143,0.4787127619886191,0.585822442467373,0.6876599927762705,0.7884918286391094,0.8498864140541964,0.8535561883344331,0.81961200074619,0.7679961484373221,0.7077366975095556,0.6479833708784,0.605486713944394,0.6164936771738507,0.6741911134987597,0.7382877959142089,0.7986450932373734,0.8415832663399705,0.851961348167813,0.8563976482990534,0.8593347303936127,0.8483441824403579,0.8467238796060794,0.8223806085870362,0.7913743101255593,0.8103661317009969,0.862136772253514,0.8948954893040408,0.8491804834514718,0.7450368056089753,0.6431936362769042,0.5351146640925848,0.4340175342220738,0.32565306461237453,0.2249699012993065,0.15201905656162396,0.20113369083379817,0.3034220679692017,0.4051788728700436,0.514558748775032,0.6160925541706248,0.7198082079573296,0.8085505974162186,0.8538517213848684,0.8406905883054265,0.8039970081306351,0.7549564405249822,0.6963502626206752,0.6490964404923321,0.6430650262253357,0.6773252594986836,0.7375677561252445,0.8005863289075843,0.856946505654737,0.8904876679153708,0.8930540958720465,0.8891571522951205,0.879158118593045,0.8704254702910847,0.843018437072693,0.7999927552264992,0.8017553447888415,0.8523787125727145,0.8815486437885389,0.8501628570588369,0.7496302703579971,0.6480599795050761,0.5415338645226222,0.44026714596583627,0.33226387043905037,0.22896095576725473,0.13728325747874104,0.13891911903165544,0.23185653993038913,0.3326391950281453,0.4411976364987267,0.5520737625922425,0.6597780922350553,0.7565901603791252,0.8287950206074695,0.841759761649179,0.8130169501093243,0.7671572852949984,0.7119813217430995,0.656280783477948,0.6130416494469808,0.61757945470277,0.6687971401741857,0.7328452976672057,0.7931897530170744,0.8375870144480349,0.8507965351069875,0.8512274393074337,0.8483968505168127,0.8388814010831527,0.8401114517273514,0.8314809590840806,0.7920883132263103,0.7708642756654691,0.8028783405603042,0.8518964025412044,0.8796421731695729,0.8204160771615077,0.7203283943847199,0.6109903844919877,0.5087970107425095,0.4019422844376712,0.29336367814590214,0.19221781044489883,0.08464630608805179,0.0,0.022771057164681974,0.11880290845266828,0.22772554629176667,0.3290088900442063,0.4372510876621565,0.544316313225714,0.6340593709398537,0.7190341437771348,0.80365746695893,0.846768947665105,MI
0.6134264459022067,0.524359969579204,0.49767757948201075,0.6145224007365497,0.7360752507114374,0.851603027722204,0.9333234952825573,0.8974752069049505,0.8512640530026796,0.821954499728927,0.7773902925290881,0.7971751633017501,0.8383731118644921,0.8584042404741226,0.8643609640108822,0.8625176493408362,0.8681789061063818,0.8808888693126424,0.8688049254537842,0.8530173836862258,0.8101545906660821,0.7462459673151534,0.679888839692464,0.6312299261688841,0.6376353421826959,0.6847044995903109,0.7192174759331182,0.708046326197405,0.7202392861168225,0.7277840707473837,0.6713356960186645,0.5763157197397826,0.48772135065345656,0.55752663340557,0.6882793107976046,0.8054694597988159,0.9238773660080062,1.0,0.94586643463371,0.8983912342141052,0.8525254820009915,0.8159231529843787,0.8401262021773146,0.8679134526267243,0.863579073274682,0.8670334277298859,0.8590329850199425,0.8588608032233074,0.8516541640307129,0.8210710660507079,0.7820192063156597,0.7179345003353226,0.6519058576685235,0.5967701088011901,0.5989516439875384,0.6520967143632768,0.691671300913351,0.7165665855985077,0.7135696979335706,0.7101967855524496,0.6675863581674628,0.574817224912525,0.4625406118368156,0.37959719847165907,0.471538471520323,0.5966287357001554,0.7190528622641437,0.8409666252237349,0.9476105924840739,0.9285563345477241,0.8590483313713131,0.8193543424294454,0.7746386756740749,0.785516318153638,0.807921049640353,0.8133940763216558,0.8136283637674939,0.8225583179071996,0.8168288778739763,0.8130686080974705,0.7942006119467258,0.7455169436323863,0.6847079195094445,0.6115324383773926,0.55573882335948,0.5638010298170992,0.6157778661850624,0.6571851700271822,0.6760141187421063,0.6845133052234331,0.6765859053370531,0.6114727719972453,0.5058746836933072,0.39312348974554023,0.37474709699179165,0.49166707539307053,0.6113656856868857,0.7252798418001891,0.8447894178505848,0.9304749519390514,0.9062865681452403,0.851097693400908,0.8157438300859559,0.7672217622600122,0.7879846213285022,0.8128029799572745,0.8270225276953478,0.8304900594845841,0.8201539404690092,0.8282146217736956,0.831151047127912,0.8165492575607023,0.8005973818013818,0.762386362153495,0.7011939435566901,0.630590377882315,0.5798851645860514,0.5748656122815756,0.5260341414713872,0.4244101686171886,0.282661739770401,0.15689604785680888,0.12581095571669776,0.1832196783281259,0.3195155737022941,0.4500844804394153,0.5170062093607015,0.5819123396428703,0.6515376708167802,0.7106746989685409,0.7427602191085714,0.7472036475934156,0.7574059939708424,0.7437072276645562,0.7549487704359832,0.7583330169140283,0.7432409145293177,0.7109595768994699,0.684866908658917,0.7191184666838675,0.7731343708760772,0.7887492042124511,0.721050909217273,0.5958014496727566,0.4663260269744143,0.33947015890701904,0.20890680918204252,0.07724292828788615,0.004183855750470311,0.08599720759962848,0.2153544784635537,0.33910427656065645,0.4557353802668658,0.5594959419856123,0.6044858253043897,0.6091422351528051,0.5900322520106811,0.5401163471169816,0.4899498494274033,0.4680916180095118,0.5076347825775356,0.5731245731135535,0.640061033584173,0.696040588771349,0.7321129602060812,0.7398886015624413,0.7371962263615601,0.7360838488321493,0.7360588357344864,0.7308935068395495,0.7109998277287892,0.6934871501051427,0.7151603776870812,0.7693280025588338,0.7912508688861877,0.7200001540613292,0.5991546799392329,0.4594122166228418,0.3160283346811412,0.1868585523152677,0.05640250530970459,0.0,0.08430667843116701,0.21461047891670182,0.34570512493072236,0.4676577435066438,0.5719902598715647,0.6273200449428571,0.6363595147667831,0.626880246980722,0.5925800961122261,0.5402204122705503,0.51658688751133,0.5381034445854573,0.5875961799488656,0.6537466329791735,0.7219919420349377,0.7643246224897857,0.7766187087414975,0.7733828277747099,0.7879440863163341,0.786950905589602,0.7881214261607492,0.7861834414039048,0.7645823895396529,0.7411593521932205,0.7485411950769234,0.8112849912201492,0.8305811598193502,0.7776181585567601,0.6459464607753573,0.5196717450453638,0.3933878080135371,0.2562911750579522,0.12966839731421453,0.030180376746521187,0.07541155084562279,0.19482827085242782,0.320973631352659,0.44474595068896905,0.565465435557682,0.6346776132609531,0.6258809621138179,0.6361605888651405,0.6470426354784475,0.5914822674057629,0.5504933823439009,0.5462327248371852,0.5943340734040112,0.6584560307175269,0.7266795233350574,0.782137981729885,0.7960191546382398,0.8026451147497671,0.7934715623940867,0.7915623901113698,0.7907714956877281,0.78141401745357,0.7655686886438096,0.7246181865559906,0.7001484950244454,0.7178796416485436,0.7684688112978124,0.7765011819342345,0.7446432946107389,0.626602320080206,0.49949981002841826,0.372881632934261,0.2401282194967238,0.11189588128975103,0.009403578185158246,0.05707177366362437,0.18508471494044,0.31066191779454844,0.42434454061668614,MI
0.6769337670416302,0.6014252632854697,0.5187009874436699,0.49189349392547577,0.5155082976124463,0.5655011700835173,0.6035539714193643,0.6387155788052175,0.6732975769931304,0.7340457541079939,0.8322836295338822,0.8863083078840122,0.9085887271422344,0.8786008518535748,0.7749123367416191,0.6989024500144172,0.7800138450704344,0.8778070307468697,0.9305435390163508,0.945782421952515,0.9410230810216254,0.8875551745967547,0.8151393623146514,0.8144097522393858,0.8546186477148314,0.9043998065788283,0.9386534331935765,0.9092808929499796,0.89995936963739,0.891621113208851,0.8889806312118891,0.8889772590019369,0.8889772590019369,0.8889715945596217,0.8852146581736839,0.8475082757585755,0.7901914170197353,0.7188251099650076,0.6356993345637116,0.5508807882696463,0.49606967717248374,0.506353764417482,0.5449945925055566,0.5809234688242686,0.6118800717719672,0.6585837294795871,0.7172324520582753,0.8063757065648156,0.8841070691600992,0.9302201783385149,0.9863512292690082,0.9628236872613511,0.8599057246327888,0.763414949963952,0.8214980288983629,0.9144469438793683,0.9613937463325968,0.9999018933462507,1.0,0.9511512023721176,0.8599179429636878,0.7978478083718441,0.8278771214951712,0.8534108880251638,0.8961253154557909,0.9169785238342971,0.9165703334768001,0.8973397854756726,0.8890171038354966,0.8889772590019369,0.8889772590019369,0.888928607544516,0.8790018576482934,0.8286691596262541,0.7624965328475009,0.6877326010225202,0.6073956419474991,0.530373901037871,0.5021566142046376,0.5311497193570416,0.5691996167975679,0.6044954503413615,0.6358212243490033,0.6758992619549655,0.7434727578447218,0.8416814588247608,0.9242225034283713,0.9384172796913797,0.968188190164212,0.9166117596644536,0.8014631666203513,0.7257503874221376,0.812863860539732,0.9114679531107717,0.9535779859775904,0.9736204660481542,0.9618083025373574,0.9008433560265754,0.8225590998393209,0.8059294056895148,0.8219276742009978,0.8524713660213763,0.8829406642963011,0.9109369982725424,0.8915097607483338,0.884992541559912,0.8744462223576122,0.8672014293380901,0.8605020804267749,0.8604718375519678,0.8604628777804342,0.8545657078006936,0.7965458789665973,0.7368850354943302,0.6439892222290444,0.5555191539301036,0.4834560225562665,0.4672434865316566,0.5013748406404845,0.5458331684878228,0.5527629027344165,0.4884319892221667,0.4174718692053325,0.26838626264342924,0.11324442992979655,0.007074426540840673,0.0,0.07601200654634122,0.22705500670659795,0.3608748610244472,0.3725263533256138,0.36605065225712163,0.40350914768090895,0.4808126527206298,0.5732290906568327,0.6543403548236544,0.7200882506995869,0.7604464400471285,0.7635507160799646,0.7635534046220718,0.7637486214583573,0.7700334368865649,0.7710891853444988,0.7765911461174602,0.7879458823007726,0.7881760537305365,0.7635984530123183,0.7285015080979038,0.7119205055901485,0.6625610633805552,0.7042610143072956,0.7934408856580442,0.8594746104968571,0.8771856546284083,0.8515722962302199,0.7449079746666056,0.6163195817073372,0.5056558840176244,0.5089587876841817,0.6098298976066854,0.7268099677592463,0.8456638017440614,0.8171475570860149,0.8018645307905707,0.7388074295145524,0.6398010758078554,0.5783690330086566,0.5444964930662266,0.5192115178235372,0.4754027652750059,0.4329626641067206,0.3991892173781686,0.41453461543175507,0.4663334177116427,0.5413237346119102,0.6170911646438428,0.7029019099836562,0.7647330967443962,0.790705283056452,0.792058478251044,0.7929548378708109,0.8096942676122572,0.7966360181976668,0.8073473666198572,0.8203919320813338,0.8156643322229717,0.780371429092142,0.7379650015138566,0.7013280333880294,0.657339886720262,0.7177051109547579,0.832662830775587,0.8970208305685698,0.8978598790316825,0.8593370383517609,0.7757405955484726,0.6476384372481272,0.5202403673191682,0.4717939064145371,0.56338453043091,0.6840814572398228,0.7908361362569654,0.8506776652789183,0.8135114446906115,0.7441527781887922,0.6546993737713089,0.592904089530343,0.5434616757549282,0.5145747936218736,0.47462855106840873,0.424000738814847,0.3950401068988354,0.39680671406260615,0.44585946271527277,0.519176205664353,0.6118054002055509,0.6949110358171664,0.7506245100056663,0.7867361078066022,0.7926498710934746,0.7987473104779674,0.792358922610978,0.7920669070781603,0.7958626720320918,0.8060000807953891,0.8090201599830742,0.8185078422092165,0.7906135288386045,0.7419959452349616,0.6897651698488554,0.643718732415083,0.7091376490548305,0.7978150775194459,0.8460513146519384,0.8451458317773879,0.7925519980907767,0.6743047969684737,0.5466205979924581,0.46410485573651616,0.514573600210948,0.6245827829734854,0.7314375193683489,0.7855436847874806,0.771739312068985,0.7377936801719613,0.6491119898310345,0.5824265658490164,0.5594202511284836,0.519697433164886,0.4742561310914919,0.44051028158163597,0.4049076594704655,0.39778857199488726,0.45011294309198036,0.5224731507385076,MI
0.5572647942276934,0.49491179562276777,0.4388729965246725,0.3847647802465364,0.3696163724958019,0.4220177778626528,0.47409330100619584,0.471702459893665,0.49593131842420135,0.5424965089416585,0.6668616339768594,0.8196792823707764,0.8627517364140154,0.8776311889727779,0.7656586973453621,0.7719382863082629,0.741078351443079,0.6284205197167729,0.5920622833151246,0.6923239607467426,0.7535038367994904,0.7567831711690065,0.7726668310291505,0.7714510115336584,0.7806978985166229,0.7824462204731901,0.7208865847612849,0.6344484018329517,0.574143896646687,0.5299904302375786,0.5678908142465513,0.5979115259536041,0.6279344088250856,0.6616871216822471,0.6839087173982286,0.6957995394418237,0.8144092631102762,0.9432762555076142,1.0,0.9585453785305944,0.9395581732638156,0.9085777893675431,0.8874931208270489,0.7348529929064505,0.6479107776805613,0.695129121270833,0.7817668757592262,0.791455044823957,0.7730333955247168,0.7546161168354555,0.7240324894818073,0.7134526720318188,0.6887005808521138,0.6293649856217165,0.584457572178442,0.49577242184465753,0.49494151049927204,0.49540767947397946,0.47346308179808005,0.5123349251407419,0.5526400591255065,0.59534656913522,0.5917484320050743,0.5580732022841133,0.7465622776262535,0.8905097044844066,0.8609063443430607,0.849534953196498,0.8186875628753647,0.813503846307368,0.7679894619246941,0.6696642771062766,0.6910101607366297,0.7645254232848515,0.826638321535814,0.8276304438326196,0.8386266981164443,0.8183469293848304,0.7968038710777154,0.7677980636466195,0.7027344013889074,0.6480031416729837,0.5942945219455744,0.5664300399520545,0.5308605637369812,0.5999224056276908,0.6274503607889965,0.6377167738794469,0.6820237385575663,0.7564406090760745,0.8690719166854564,0.9584105986987677,0.9518140776124486,0.9112546106128132,0.8939984648037811,0.8622102419190032,0.733525336503515,0.7760331670540523,0.7834097108447668,0.8360820412615535,0.8840267263918431,0.8395339690767472,0.8514745740106076,0.8381895192721416,0.8152708119388947,0.7686581985537,0.6709443270902966,0.6096542698732303,0.5554827894606991,0.5373801226584884,0.5462792244835093,0.5166489848754559,0.552664168065732,0.5738385688325742,0.6215611862129133,0.7125570881387553,0.8842766001505975,0.9625245154253275,0.8941509460932053,0.801582435202489,0.7958026879225777,0.7451575143427185,0.6529606095536202,0.667159531619669,0.7101865054060443,0.736025422092558,0.6817914167191468,0.5397392198726525,0.4399840296556725,0.4341862347034855,0.3719984071056981,0.2897901547899604,0.32813637473811497,0.46486386656651213,0.49194774540743325,0.4971573252118162,0.5374608103625143,0.47813317428677493,0.3601241742976917,0.2706150231087072,0.2816812891365128,0.26724639361680325,0.24036760283666858,0.17730558648815276,0.19032062065770639,0.20985179908468865,0.23706136016186896,0.3252238878094129,0.38924598346864414,0.48138515975452734,0.5085670015567256,0.5367337059970794,0.5484624434757439,0.5329276896791697,0.49317019798677997,0.4465079391793001,0.40732961724424754,0.48212278290917965,0.5581978947423476,0.5526839829804757,0.58945615378566,0.7027915750205285,0.6542329439877967,0.46175233107815394,0.3391835503152141,0.3638726610187657,0.31256069742575754,0.23370310511179326,0.2766269109135866,0.2380200786926725,0.18504715376491276,0.19518831411374293,0.22640134629379816,0.26222078950405425,0.34442176517704937,0.40075574362947464,0.465609966983326,0.47889566269472894,0.464419605411198,0.48890300526281827,0.555273222164816,0.5341891463668613,0.43888370774705265,0.35221245475406704,0.33725021071768424,0.37966800910357,0.4969479152186267,0.5375252344606842,0.5203659477995046,0.5860654590395615,0.5039039166063279,0.37930017525105164,0.26631408543469703,0.2508525581812133,0.2663069921986434,0.20921616645079233,0.17287378331656988,0.16652245356059225,0.15341353439047012,0.15510679409356243,0.19484193456501409,0.2484332237583935,0.29430196571087386,0.36914230486919664,0.4221523412902126,0.43559540761368964,0.43563607855479525,0.4298627738852776,0.38099364894658194,0.3335497033251098,0.4249903783695199,0.5547342406454145,0.5678229876117324,0.6046909840351695,0.6406442623060489,0.6272378380263515,0.5040456798013544,0.3537610834182594,0.3679892924026138,0.3358989055839601,0.32236552231993976,0.293139242198702,0.23940577454560774,0.21159670726024338,0.2263978866095968,0.24837364232139691,0.30390246212868455,0.3884048683298271,0.44988468647530233,0.4555226306871081,0.4908062652895122,0.48709069786490033,0.4262052816479702,0.4046282498075886,0.3278914939028468,0.2975456761492481,0.36060964727628964,0.46569430654055743,0.4447712178705867,0.49884894754536546,0.5603688171436936,0.5258256337513298,0.3660108601277692,0.2590254566462882,0.2035262853464186,0.15781444008954004,0.16121800526770436,0.12565777243115406,0.09729712176553562,0.0370676137677286,0.0,0.058217301369733576,0.10907935849590444,0.17223533928422796,0.25205167166731,MI
0.812412814895838,0.8200287641394866,0.8316753403485704,0.8602986023522634,0.8356584850943811,0.8476243949500617,0.8494268219116217,0.8620775991705667,0.83749595230565,0.8602919816517423,0.8290059489000834,0.8120087035614416,0.8059112653454994,0.7928949811510879,0.7630372809358974,0.714122067093224,0.6500127351484863,0.6103532257294617,0.5751268266989706,0.552331804586597,0.6089143647060693,0.6223625614239268,0.6283342353120656,0.6380279646720668,0.6439332044145614,0.6911900639773156,0.7001122928424026,0.7103280725566874,0.6600091833300947,0.5935039519208827,0.6718294677336871,0.777248112402317,0.8712074346973235,0.8856986115232424,0.8552157773340676,0.8077476636644549,0.8066980426605701,0.8228587386129238,0.8417303247024046,0.8374322432784576,0.8338000028674246,0.8350910654549022,0.8433219047975742,0.8397063433743863,0.8165261675781306,0.8186623773109538,0.8127157294378788,0.815803119401787,0.8138479734553403,0.8100823435091167,0.7977358494431543,0.8126722537345783,0.7854176359939906,0.7753433653308983,0.7381929174630422,0.7060078668225414,0.634349058054827,0.5976278900706191,0.573307005346682,0.5756380284663489,0.6083071308598145,0.6234831716090055,0.5996397011605401,0.6398184043625896,0.6475225593306622,0.660638954504166,0.6589649811942877,0.6625963980266034,0.6324878947466122,0.5551554313222296,0.5976212104195033,0.7067669775235457,0.7967689097681072,0.8467663285242102,0.8475044082651033,0.8036641031922649,0.7910621216924927,0.7978196031318596,0.8572513791960459,0.8390439256124118,0.864283598272805,0.8848271460861552,0.8753650616110491,0.887885398830548,0.903084277063904,0.9285361996174055,0.8923949379164604,0.9205343977852811,0.9056739129776563,0.9281052906391656,0.9458168609381818,0.9759146998359407,0.9628563115244289,0.9470262756795131,0.9810537703454552,1.0,0.9909167973192652,0.9454877033075375,0.8913843249242772,0.835482538433026,0.7938491608729548,0.7724599364581746,0.7706396807885225,0.7831765772112984,0.7610618013768553,0.7763898407120289,0.8041737905535298,0.8025788350143159,0.7953133347026142,0.8071752090203708,0.7888336558961004,0.7122713682648234,0.5983337949039331,0.6413320405140901,0.7645186924528762,0.8562305828001318,0.898790607122657,0.9005127163403843,0.8170851789252254,0.7707108363161863,0.713451832459258,0.5868150817829108,0.49374468319972387,0.4604604974657418,0.34741563394255026,0.20189771802448409,0.06202054683077396,0.0,0.015628577296806778,0.12369761200186291,0.26898959643992226,0.40825939113361986,0.4312003491458354,0.32882443297552433,0.28048516335053586,0.3696989730719933,0.5044033533023811,0.6306185725502829,0.6820811330159771,0.6668877770011727,0.6868895262811554,0.6973896941776152,0.6944048209316671,0.6539004004269904,0.6428285786536501,0.663026834552749,0.653613512548394,0.6421591777364704,0.6818413318599061,0.6855251846277168,0.7392772182180982,0.7898128862315197,0.8170830766894017,0.8541802743411555,0.8555894633489949,0.844007113251469,0.8650801585832628,0.8795413267039605,0.843372668473088,0.8184862758426465,0.8154377741997232,0.7966868917526577,0.7456734871144413,0.7759783238518976,0.7706115136544511,0.776199934070207,0.750376818582752,0.7507689859872455,0.7288294231543189,0.7015360639767705,0.6667938514153091,0.6482607339684314,0.6801207524747923,0.7103044787807065,0.7085997210431572,0.6448638075828139,0.5337350711117228,0.4118821195498228,0.29041469806179476,0.25779736490647354,0.3587337230234433,0.4731807955473206,0.5405923878569041,0.5536639117597248,0.5438894782824661,0.5128250909558894,0.5252083668352228,0.5073952522261589,0.4924182478132275,0.47389585289640124,0.47773847236972955,0.4604540239077961,0.48903630268760967,0.5301263870825856,0.5806050449593974,0.6200072969661123,0.6643581311560727,0.6801318225730348,0.6897226047910685,0.6906038601976592,0.6904770653125585,0.6999180676009313,0.6978814478519828,0.722062658978718,0.7080925826361248,0.7192135750002668,0.6935625298760817,0.7101362672135396,0.7202872680035775,0.7200846913694487,0.7280436501934862,0.7325539487342558,0.7160644142800061,0.6943492871282126,0.7100889480969217,0.7532838606106571,0.7593303827180229,0.6953925327547177,0.5838060415292761,0.45941975169684746,0.3341152458165735,0.23578046226840144,0.2620208080523172,0.3795090734607509,0.5005288329173361,0.5820828254728427,0.5826425306058347,0.571234653907764,0.5294508267611775,0.5219325961481678,0.4994860803821979,0.4924339300016811,0.49171439435710873,0.4433215807834019,0.4503064258638245,0.4753535760130543,0.5174354809544663,0.5618556295539472,0.6352829447248087,0.6718837458201916,0.6917569281318379,0.6994019517465535,0.7058616926993366,0.723199908565709,0.6908003595562535,0.7118313938238012,0.6965683981966366,0.7323478932528484,0.7521784081596623,0.7260041721964132,0.73378793927973,0.7164010539900456,0.7338774413429077,0.7175882668365148,0.6999842268610736,MI
0.8724714695196867,0.8105557448138057,0.7335822485512651,0.6509157765211109,0.5745707337859627,0.4994972977718115,0.4284278762013334,0.4018155387914435,0.42823748370333226,0.47086079761071,0.5164156799061823,0.5698747134730247,0.6302399490379829,0.6784711645374544,0.7268061187847428,0.7593591508483422,0.7843827475588769,0.7755582078412995,0.7207956309915127,0.6366681526240576,0.5398241374679897,0.42765597989881865,0.3151757239254147,0.27490392246785733,0.3745759586788915,0.49203094981143236,0.613001510716924,0.7274473727294657,0.8405732002993793,0.9397805870948615,1.0000000000000004,0.979400788184996,0.9618856498391417,0.9302869410916181,0.880220169329248,0.8570099743684971,0.8881429277652102,0.9213716633400448,0.9361994800048672,0.9296507697290566,0.9295103594885434,0.9221985118505689,0.9062036763981616,0.8899685409622662,0.897632719536372,0.8973735298245944,0.8922137100506426,0.9010493162811479,0.9059594673042901,0.9083229193775457,0.9083286425681516,0.9082156394764032,0.8993011213484787,0.8702126557125647,0.8048174803480532,0.7353883178803353,0.6576036626878734,0.5782892242413933,0.49620060886219486,0.4206290716015779,0.38070260047401616,0.40783437065549455,0.46176637733205794,0.5119030358454553,0.5732466129579543,0.6302254865220518,0.6885022819447526,0.7385259644090962,0.7762117615610471,0.8001836890455598,0.8142230138911306,0.7706044454049716,0.6938265284150296,0.5991501983528704,0.49689611213769647,0.38837433993719106,0.3483309737611662,0.4540004007863452,0.5684965208382273,0.6886676957160227,0.8009345885978458,0.9106056526841955,0.9899842099970053,0.9998380702516232,0.9728553278880328,0.9415857043177409,0.8905138554317187,0.8607225343473477,0.8833954582123931,0.9169829490420525,0.9292629016830505,0.9255828325923807,0.9203607588295086,0.9098309952670736,0.9169116275413383,0.9196590499354236,0.9102980656763267,0.9083311074539777,0.9083286425681516,0.908917223697804,0.9222540073827172,0.9198634128754901,0.9266418399682226,0.9199754434263014,0.91108526741509,0.9142520228467972,0.894931275241555,0.8456805065301283,0.7788548523848315,0.6935792672960406,0.6068797303515314,0.5317857370693027,0.4583770140939105,0.41669992116242316,0.4099074278419068,0.4533891240762742,0.5180480930956817,0.5803822175808593,0.635425224475175,0.6876463065802816,0.7422064785501394,0.7825705542786245,0.8091388237558332,0.8326274428224507,0.8004698607103187,0.7387225534480071,0.7145659590753848,0.711522082995157,0.6929636016648835,0.6491656587551558,0.6059677698450061,0.550013845316268,0.48639997889474795,0.4311872499306917,0.375989250918356,0.3227174123360892,0.2957090309179504,0.3212977293782364,0.37541294948959614,0.437835208581566,0.5148078104508884,0.6067433440554333,0.6837092815764452,0.7538277687559005,0.8002428652449289,0.8228246274817654,0.8247122158328497,0.8281254093876989,0.8161804001305835,0.8211720879604401,0.8217174045721669,0.8149645327977284,0.8148337481535637,0.8148372852931969,0.8170749299110218,0.825180425960276,0.8192125945750273,0.8154857479412088,0.8287646848161065,0.8360170509024836,0.8338531453591975,0.808829846902007,0.7698720237885412,0.7748043036234957,0.8086686858432142,0.8579153148200014,0.8932049809372402,0.9042996258295375,0.8569283793597275,0.7380257854738876,0.6097553916290392,0.48928701654285733,0.37393046403017083,0.2573642695843481,0.14690485779216234,0.042411239615574026,0.0,0.07931207967951748,0.1907370022981918,0.30977794750265897,0.4181140659741205,0.5292482019717366,0.636056331240288,0.6951528721948281,0.7015157206172153,0.6736421909243226,0.6314625400676337,0.5788129164265898,0.5253648577005894,0.46653003060253617,0.40055396992505043,0.34820770956515723,0.30858398730708725,0.28620043654921323,0.31073805444418445,0.37731820244316605,0.4574965576467238,0.5382109920507379,0.6151190202982555,0.6932639474007001,0.7607574982652983,0.7988982580261865,0.8000398298091285,0.807934087110417,0.8147676575770646,0.8147868494296695,0.8088493280120188,0.8023571813641586,0.8001507988832683,0.8108682513961569,0.8077771644451177,0.7996769563472457,0.8155633093222807,0.8323664111380764,0.8360720713798537,0.8360776807924708,0.8332498169690146,0.8091572002804441,0.7764906202519657,0.7892404882096424,0.8240220402851341,0.8716050164468796,0.8803479700086574,0.8640808292557689,0.7602985327606575,0.6447949118683156,0.5313434647942694,0.4106652411649483,0.2983509753325251,0.1798155897271161,0.0809301779094298,0.04564851132948666,0.11907764096625018,0.2364421993168011,0.3639493538078069,0.4773377810186741,0.574531427079469,0.6479821453174495,0.6800180770745086,0.655478994546232,0.6206221556606089,0.5690315815381313,0.5242258985586337,0.4713273978649961,0.41599045187291805,0.3728149891018302,0.3308182045120853,0.3073176091399503,0.32707450126343085,0.3861711681847395,0.4561233250275998,0.534753921019032,0.6123679694046644,0.6987614321727382,0.764458370933125,MI
0.835251178843641,0.8700612356461066,0.8847918275259141,0.8877689586370645,0.8825543045072648,0.8509043905628679,0.804689499383801,0.8204124315623449,0.8382483817924087,0.8634993975477399,0.8716260019947015,0.8735278151506958,0.8723212701219392,0.8692665420564099,0.8747386599559828,0.8855526888939484,0.8861517695584753,0.8819280000088063,0.8748894270756311,0.8720212911814131,0.8510001716850553,0.8162498792581847,0.7856298534235318,0.7703231513383091,0.7538609960330989,0.7378934202784817,0.7528159323080115,0.7907913345989821,0.8337381418793404,0.8755466158366787,0.8976100612473481,0.8943019184865284,0.876398218504902,0.8606108094832046,0.8457807153803281,0.8450504088302366,0.8512294163027285,0.8829166167078395,0.946633299008439,0.9999999999999998,0.9956714757806722,0.9294592761256373,0.849222264887121,0.7676459866073755,0.6886810792966436,0.6016456473725509,0.5144111104307363,0.4452311970056695,0.48893338297447,0.57495055518482,0.6519465484324554,0.7241328472253381,0.7649689711502823,0.7767952058211967,0.78295159999627,0.7739985825889686,0.7614297243331569,0.7172854835765163,0.7290377618036794,0.763032385210898,0.7904384869444343,0.8017968205344912,0.8031651714598029,0.8116089114359124,0.8115696747943881,0.8101786926327084,0.8025687981742393,0.8021881495746384,0.8019839843337528,0.7942373942990686,0.7880085910934913,0.7888399895328606,0.7930419779191225,0.7880804521674019,0.7879025191063882,0.785255802940757,0.7795680915079559,0.7653666756284585,0.7422496139953239,0.74867909241579,0.779521503086612,0.8257772199346867,0.8688503551514419,0.8890274299871932,0.8933648520409239,0.8789348212507331,0.8528093074837704,0.8291335466321523,0.8107151440550904,0.8024470565918829,0.8113352250549102,0.8576139514379599,0.9125223171353649,0.9340551208519405,0.8809402514501159,0.8028448548578802,0.715809650300488,0.6285077657085367,0.5412062714363175,0.4556850920190325,0.430043704665773,0.5058629667590944,0.5863706460578035,0.6603899819102026,0.7125791027145787,0.7436105061952458,0.7746191471900639,0.7875009850039432,0.7804137386826959,0.7544306075724296,0.706430906653887,0.7093923169907301,0.7357951955807074,0.7561891214265979,0.7649192651412726,0.7733807098806473,0.7748649617964041,0.7748378946797672,0.7361363038173561,0.7289701589480442,0.724300359314898,0.7138058027676208,0.7044078636599853,0.682544579708116,0.6540883914310942,0.6334625913337006,0.6683220789717084,0.7129071066618835,0.7401205809105365,0.741641838283823,0.7108108548297778,0.6804779050180276,0.6222551338400801,0.5435394807667391,0.4659470458668187,0.3807182881294511,0.304196411388155,0.2197370259630762,0.1428282200123645,0.06060938106591274,0.0,0.025840387098647,0.10401378976233477,0.19115422703296314,0.27642242508702153,0.35295647417945775,0.4387959409238824,0.5260942106568878,0.6119930209904954,0.6884368629699289,0.7730434219437108,0.8201201291013029,0.7792607728418763,0.7520011435481433,0.7461164504847899,0.7564150121178417,0.7775375818220491,0.7956406836853274,0.8208115502284807,0.8373145136950175,0.8320174524759316,0.8050100133861171,0.7583810775042179,0.7181906252371253,0.6928199954200795,0.6946965729555179,0.7158110102572255,0.7337812621791884,0.7326903222937153,0.7378297116487766,0.7406943292047485,0.7412016087070958,0.7394993494183251,0.7455046637504592,0.7470814799107532,0.7518144186868232,0.7538160059546966,0.7609744223140102,0.767812088108957,0.7679254852173891,0.7652851207429265,0.7638140223833785,0.7540908084791946,0.7304690089419072,0.7041537480435112,0.6638096769552135,0.6480330928811597,0.6847408889692701,0.7246243867397453,0.7378353575529724,0.7278501591322131,0.7138772554258253,0.6543038666324941,0.5791713904357472,0.49430306774017896,0.4136019033021756,0.33373869668683476,0.25164918847291884,0.17324698535250938,0.0925679903068577,0.05342469254170057,0.10515333054087472,0.19015655593279934,0.2674781149222296,0.3271663305139072,0.4094324949910033,0.4967153270975835,0.5833737693706114,0.6606371186354105,0.7443676213538193,0.8313897225670062,0.8914937771105846,0.8576367230017896,0.8196184838464922,0.7997413176709876,0.7964926694518024,0.7971555993886723,0.8100659092311038,0.827891857467353,0.8492579815252104,0.8428484094453792,0.807109793382548,0.7588888442555126,0.7181945648847672,0.6898835324677444,0.6869716512395387,0.7058541453032665,0.7272175384246242,0.7460737250551188,0.7802521601413404,0.8110401068289483,0.8263038082792555,0.8309496677769939,0.8380400009894873,0.832623012654613,0.8292595792977633,0.8244426164168408,0.8177740099233748,0.8242986530365772,0.8248712701505296,0.8167153181622588,0.7973287956721673,0.7757366767572507,0.7504881055294341,0.7675838214324011,0.8161826886811345,0.8383732613450785,0.8389177226361249,0.8266270437470087,0.7769358565312225,0.7006193715287428,0.6242928989940102,0.5419337537371718,0.46532354381345975,0.3864647281024618,MI
0.9753131348978674,0.9613613903931526,0.9308834258778351,0.9258983276983379,0.9477461706202559,0.9624900767046585,0.9620269032712807,0.9535330339665233,0.9516332077255647,0.9430224135188032,0.9393844438685808,0.942384315910058,0.9568858258694244,0.9616912989501565,0.9627575364138217,0.9557035860613388,0.936718756632501,0.9390909479180498,0.9408184672366682,0.9333309038093898,0.9232601604100108,0.9289392874296976,0.9303321142874457,0.9395051454649066,0.9479595666599967,0.9156426106325453,0.8493476222473397,0.7752406807515759,0.704646276770496,0.6265889920564911,0.5502275059918675,0.4804093653750101,0.43398881424866476,0.48962946719229716,0.5635140566031696,0.6354267604152031,0.7121576140281995,0.7820895590469801,0.8558665477965608,0.915975509796082,0.9450178386121146,0.9358291943733756,0.9078042330934273,0.8976282327992418,0.92043746756136,0.9391498125280551,0.9410440536038414,0.9400078933277631,0.9370308875460689,0.9338510675162233,0.9204865015501866,0.9180122997344216,0.9230930997829889,0.9326758889432418,0.9387500034154495,0.9337970423855293,0.9221869020000371,0.923062574899608,0.926740517994038,0.918607884667894,0.9189057666122431,0.9278978527597936,0.9376586198712931,0.9467195372081378,0.9662742084271156,0.9649438309411755,0.9129645302302309,0.8429472411162706,0.7673787930933109,0.6970933496601257,0.6191919946191011,0.543238143836301,0.5158785948705273,0.5803201560595326,0.6588812875928767,0.737276196420932,0.8092200451517679,0.8795444117637432,0.9406785886826656,0.9715068514791936,0.9631163052610974,0.9333421323040809,0.9218438295671059,0.9477531217047985,0.970452845736228,0.9704488089828811,0.9737152432542879,0.9730630946782584,0.9647620418064005,0.9592656623129019,0.9532899366444683,0.9623214180901625,0.9743406119477849,0.9749661253619977,0.9640060492650155,0.9463304454933208,0.9492915212933133,0.952516730576092,0.9485756162968715,0.9510584071436796,0.958204964715136,0.9749288680158754,0.9853979409489944,1.0,0.9818609452316165,0.9099594836868203,0.8342119438294888,0.7637217495907787,0.6860625763701673,0.6149277407519804,0.5399917700803307,0.4614097577593568,0.38433317486786467,0.31443418431188563,0.23711710505056782,0.15862281206813056,0.087632488239068,0.056386333888887474,0.10488498862973072,0.1825456833359742,0.26116322919859547,0.3397813876561404,0.4183995461136838,0.49694560816555233,0.5667249198948099,0.606711836524692,0.6751108020640042,0.7524286781429321,0.809575981853718,0.8756769989436968,0.9367251276066926,0.939520795388014,0.929598673135017,0.9161557427813596,0.9116310102882774,0.9030012106412375,0.9057550709479438,0.9109785303767179,0.9040776792867418,0.9166197232189397,0.9283090145430524,0.9288522598411448,0.9272824789008256,0.9150762548124896,0.9135904720630597,0.9206529553073888,0.9264078179625801,0.9324178133856285,0.9323321012438421,0.9311475035398842,0.9260597400667185,0.8950997703000891,0.8764476633207701,0.8828527428230035,0.9126750978323512,0.9158346003253508,0.8629069334216795,0.7927278594852938,0.7221712337983854,0.6479715738446379,0.5766582034502439,0.4983789171669206,0.42033011022921785,0.34978222026683303,0.2740775973642151,0.19686971104134265,0.12704654890775124,0.06330394458433619,0.08056512236230606,0.14651664202558967,0.22419148150372026,0.302799963613648,0.3791192854061578,0.44930527735200787,0.5270957642752507,0.6056779773928764,0.6805318608897912,0.751732247113164,0.8287751560859451,0.8937628476498489,0.9079952542951142,0.897814091291254,0.8936154919325754,0.8841990091369831,0.8734255567683096,0.8780500688743533,0.8785854243118874,0.8786071174695798,0.8818059912608609,0.8914712038531631,0.8971720307755413,0.890291106380116,0.882760516599894,0.878760476534594,0.88446127217899,0.8927411162172483,0.892837792077658,0.9003097641667799,0.9011626071206711,0.8847296166380081,0.8508522154788647,0.847278699042826,0.8743500326573863,0.8968536129922269,0.8647711635939881,0.7974264691449517,0.7233179564499306,0.6526416575292766,0.5761490990826781,0.5087343818166867,0.44871439506694455,0.38460428786076317,0.32179630968168516,0.250569167819537,0.17231340343113155,0.09840885752196571,0.029362760317322323,0.0,0.053150560000537306,0.12311950699143082,0.19880135251264486,0.27740397583317855,0.35570612929041334,0.4271452285484014,0.5017302296056914,0.5803084944893184,0.6589266529468618,0.7375431943094395,0.815058811423796,0.8787094534433821,0.8949881225562635,0.890233257015195,0.887407687827491,0.8794991650008643,0.8858184826285271,0.895376020535029,0.901331719135656,0.8978728152526758,0.9058774737716286,0.9188241186887456,0.91472472823192,0.908716700049607,0.8950217410951833,0.8938566432210924,0.898782983926423,0.911289290618928,0.9196425883279309,0.9202133455415724,0.9173317968644912,0.9150489615541111,0.891608184724582,0.8762134741678607,0.8925041375570566,0.9183278891198086,0.9307017471739993,MI
0.5961549307656644,0.6106218748950072,0.6030646363509606,0.5950871207313284,0.5703120040494198,0.6049303015074594,0.6835198632766253,0.7793395173182565,0.8716179458829783,0.9497700840311127,0.9512811734931694,0.9183311488721033,0.9167968082160871,0.9388011062028419,0.8753561082362284,0.7588586420922216,0.6323593870850188,0.5042511587256882,0.4741693755650913,0.5777778334805013,0.6307345848739438,0.6364134343498953,0.6204141587813927,0.6171683432972777,0.6131056391849317,0.6214541159015279,0.6072109752647648,0.6032673630236287,0.6559296513771513,0.751529471860275,0.8467949886596187,0.9183387347703063,0.9440443126755769,0.9236406889848321,0.9265079155073859,0.9544614965625495,0.9281045598435136,0.8188881242378683,0.696235279558866,0.5630174901747225,0.47954126453505275,0.5528574986365533,0.6323898614870398,0.6727620636929221,0.6815477003074677,0.678251819750582,0.6776777781872529,0.664767631696439,0.6674209153340307,0.679542964283737,0.6611316831297245,0.6674105543033053,0.6511294722593766,0.6264924390189197,0.630514147861974,0.6373469604980673,0.7200855356587801,0.8163729298803544,0.9112331960608424,0.9878916430015914,1.0,0.9682401971800814,0.9570157532105048,0.9784958508942596,0.9370435163302502,0.8228619041015488,0.686152788666019,0.5586000620752554,0.5278663846170573,0.6165273056907852,0.6486578386346213,0.6410347755752235,0.6361791384295574,0.6424374754818785,0.6496038877834103,0.64141921284505,0.6183845993246226,0.6226495212585581,0.6319526296199802,0.6814782503672849,0.780051071853757,0.868472956654224,0.9323360154895202,0.9552455428880209,0.9412418609510071,0.9521821626168445,0.9599829783194074,0.8845983593811462,0.7632849705282974,0.6326166914494018,0.4948534967713383,0.41291635170264573,0.497308544167248,0.5720919981586787,0.6015397313533053,0.5919496864735541,0.5558198802932401,0.5850648404349279,0.6861950404437827,0.7792961700774854,0.8720930556445539,0.9348385368528978,0.9513452763084547,0.9199307644421069,0.916597789305603,0.9532388641481333,0.9599071615851171,0.8742204011457559,0.7572110716553575,0.6218117907710106,0.49208155473564075,0.4134148096029482,0.49659921836455734,0.5550579211587223,0.5637994641085369,0.5388342318736892,0.46765263738324725,0.33739038457774795,0.19422728345297813,0.11597122239378388,0.14118748552287785,0.26475898041142587,0.4083835057909422,0.48022941090130544,0.4238257822498941,0.29079349553898526,0.15782312006229215,0.05396795503702467,0.07604119066855963,0.2036125518389822,0.33437399706294,0.4746295229897859,0.6049682731513335,0.7269113005392525,0.8224569935380481,0.8640127469215511,0.8355116236500582,0.8476470962680649,0.8689305925290145,0.8149972543956352,0.7219235634333652,0.6280222248730989,0.5350914802624533,0.4808221152107768,0.49771021377660984,0.5214387705291408,0.5253665862755272,0.46498246234597573,0.3504799260758724,0.21733265121627232,0.08796755065802842,0.0,0.06175215622263419,0.19717862444825363,0.3297634405659311,0.4701852990873623,0.6166311012983314,0.7520555164550622,0.868327092604599,0.8863836936839591,0.8754978844154726,0.8827145570675339,0.859473363751289,0.7829741497466505,0.6896178451659849,0.6045434460522636,0.549012522517192,0.5424453713113095,0.5417711424358775,0.5488604695678427,0.5837949980511219,0.5790553404746364,0.5575797108623552,0.5511074842372667,0.5655489231074267,0.564558271062853,0.473206284346567,0.3425581507319606,0.21549390363141008,0.1477940699535889,0.22935051506432869,0.3701939386287454,0.5008751939238958,0.6358383346298355,0.7643043254595319,0.8736410476047292,0.890708415802957,0.8802707476504277,0.9091929038890947,0.9173440110216546,0.8570082893060893,0.7670057472764982,0.6596452029941791,0.5773953502467513,0.5451607629159221,0.5563351052365615,0.5787637022093479,0.5886778740343903,0.5983870788268404,0.6052211025687684,0.592921703315656,0.5976093241834697,0.6024679522846297,0.6013587704853891,0.606017557702486,0.5812175820465919,0.5005572086940222,0.3805140816345274,0.2531040201191286,0.1543792402369304,0.19327310998085867,0.316244117589322,0.45017396857792313,0.5836887211962032,0.7270748691115032,0.844644749203558,0.8748989989607483,0.8560128466855468,0.8624301532215615,0.8622330393824096,0.7913855884649239,0.6974611144567797,0.6033361635239118,0.5353266832817614,0.5243320230051087,0.5438484044487333,0.545630533300721,0.5495496172016305,0.5561133401196372,0.5590055276245223,0.556112680594901,0.49046305530074097,0.3667404561529777,0.25310749856480586,0.1502624888081301,0.12015097522864249,0.2257481112238957,0.36176676864543333,0.49305376980023574,0.626578742700898,0.7495424548625249,0.8450549562739091,0.8302122637052798,0.832599016663818,0.864386083235797,0.8718958372033154,0.7975064523663398,0.7002985051954882,0.6034463925202678,0.5200480657524471,0.483413630413255,0.5031771561555733,0.5212872360365415,0.5346137983574439,0.5303663771200435,MI
0.7480473190041597,0.7550412860603104,0.7520946722515598,0.7279832639914519,0.6955377349005438,0.6429269665417179,0.5998714126710607,0.5844217091648329,0.6130201816845533,0.6495378080257237,0.689288302326827,0.7332422469421629,0.7247494251961255,0.6444189294283866,0.548667900989515,0.4505205515000794,0.34757564512352923,0.27016515913007066,0.3110054376187148,0.4138489045306264,0.5146668116886746,0.6165768732624799,0.7148634942855083,0.810720354298343,0.904563942293799,0.9888574014374516,1.0,0.925635848174776,0.8579099332421083,0.7992369039331284,0.7346733011122324,0.7383888442316229,0.7840725822838208,0.8098546189391973,0.8019535238410338,0.7820906508750576,0.7743834739117115,0.7940526626664313,0.7923636376687013,0.7709337612490406,0.7490023772320931,0.7464671295423986,0.7260104138771006,0.6949732347496402,0.7176142158211323,0.7351470841385925,0.7170645027657514,0.6527026678436134,0.5630599546674069,0.4649804691078221,0.35742923013820405,0.25710373272919274,0.22971411200486003,0.3201637894281415,0.4207291631470278,0.523422002992278,0.6241516079539098,0.7245901433405022,0.8174230358802808,0.9019116989493048,0.9534509074876216,0.9025500142072214,0.8246757516550947,0.7729882931078085,0.7009824674864711,0.6626629234891599,0.7039162770895246,0.7506281680062163,0.7507672227133342,0.7563251019908823,0.7434443956851604,0.7315116170946556,0.737651133996641,0.7441172492690264,0.7171280018461874,0.678279360628943,0.6358787117465101,0.6148684397806683,0.6289550738221767,0.6636876012067319,0.6905020168142495,0.7015989919494681,0.6684775760107615,0.5959906467027243,0.5036562695652771,0.4073061592918219,0.31843738488563655,0.22161328023662086,0.1707914672241595,0.25167051812221386,0.3500839953945789,0.45474487787241324,0.553450159056982,0.65543506872049,0.7492850219185967,0.8367987263938557,0.8970488480266856,0.8632563165912734,0.7925444526851022,0.7442160825637671,0.6887074389191397,0.6941992540000248,0.7333823275669791,0.7467002028647944,0.7300271063836239,0.7064258715644196,0.6864449620924318,0.6782182851718797,0.6684234821407284,0.6468784086198673,0.6098531388376709,0.6057940876506556,0.6495608674924602,0.681773244696088,0.7300919868259657,0.7617010724122193,0.7452006474516613,0.6971844126794982,0.613740558906331,0.5440516547917098,0.4505754034789802,0.34740493138015616,0.2586654033523279,0.1581427977672356,0.09023105315599089,0.030761972424270256,0.0646239198832983,0.1569180806429855,0.2533689261617551,0.3236594643642956,0.4062477063053138,0.5059365522663577,0.5946164031578687,0.6602293337143563,0.6982632855525424,0.6843435308111001,0.6463097478294779,0.6139264838683425,0.5697297152791743,0.5496104361885337,0.5649178651346887,0.598103465282994,0.6128639024670095,0.6231948202889015,0.6384413079900053,0.6488429351488114,0.6735645917170912,0.6936514453445506,0.6934092052462337,0.6555419916840295,0.6086902775296981,0.6090437479750896,0.6685763506822524,0.7265367660096334,0.7666549416563426,0.7505366814035859,0.6605163845795383,0.560267271899237,0.45890367687550615,0.35728673097554653,0.2570269066039017,0.1576047934588256,0.0629515712895834,0.0,0.04766159315575935,0.14306934048521458,0.24086831917104168,0.34243254297473524,0.44038449722601447,0.5380012004773032,0.6156329185618064,0.6444596401130469,0.6321903058332086,0.5946445302675789,0.5633879240116255,0.5741469145544853,0.6035111263778181,0.6467669374766691,0.6797325070524822,0.6906309601931033,0.6820270082484785,0.6905122237909431,0.7017501385103655,0.6967635359955864,0.6839633101829139,0.6309981664338506,0.5968516313932919,0.6384161585161992,0.7118516610581813,0.7663910918952053,0.8170014552387905,0.796642627110919,0.7044739655718093,0.6028240622847347,0.5046013760992283,0.4028258357271943,0.32101451764138744,0.223393948832056,0.1254805793298721,0.03434432938238463,0.02126470246368828,0.10385492493967097,0.20174479020220581,0.30255255481719545,0.40092459050049634,0.5014369549307638,0.5941180724014727,0.6680112230489619,0.6836705424623553,0.6633754606479929,0.644908179360772,0.6570513527331676,0.6927849842941591,0.6866678176168772,0.697966696934353,0.7296345062834608,0.7325414689500893,0.7265090272563048,0.7336252289492351,0.7426294889461942,0.7558538833708561,0.7282794819602136,0.685534205380351,0.6787594152590346,0.7298769825877733,0.7981275654598958,0.851704669661562,0.8801066893236089,0.8051421864843853,0.7089517824860634,0.6014397580865709,0.49421809820718865,0.4054176723472187,0.3167456839275591,0.21854004334331822,0.12664988186138926,0.09524109786392221,0.1644329759579466,0.2598616439956931,0.3589801222742617,0.4667864117713387,0.569945574561626,0.656477056965163,0.6669123125133241,0.6233618452916936,0.5858285349602657,0.5499706678085214,0.5336378449422083,0.5459779655470807,0.5875219622398427,0.6348352080475084,0.6799976308948703,0.7070930859234759,0.7120031136117118,0.7091018452123485,MI
0.861089445074201,0.8449650900813468,0.8410859213822739,0.8556417703341179,0.8537694647739655,0.8436085401864093,0.8321391250036816,0.8361192393105441,0.8364254449548685,0.8278862632747244,0.8359180129768868,0.8446068168034715,0.8398355549229473,0.8419298587960975,0.822203417751503,0.791970567035573,0.7969178352632829,0.8379925270680018,0.8817146394441828,0.9271587683530791,0.9642552245165759,0.9928791232194112,0.9999999999999998,0.9957463350939773,0.9735927090843794,0.951811804444801,0.9330553873784055,0.9061901750539374,0.8639485206547433,0.7966910245481291,0.7245953496840436,0.6500325400931779,0.5749805852211838,0.49168070371662487,0.4117770419902429,0.3560036539230069,0.40004134683879866,0.48544135119358,0.5719743011787453,0.6580306376337675,0.734248520756678,0.8047754750529743,0.8561669352884154,0.8610418876026522,0.8494737364658012,0.8442544690984752,0.8326121678357137,0.8010494190567925,0.8078008713225284,0.8293618035607022,0.8272307162960504,0.830810854570849,0.8436200391562976,0.8348338220774048,0.8236134908258343,0.829352045000131,0.8315944101167843,0.8231339095204004,0.8301475512906602,0.8236449646143591,0.8299160709872859,0.8251154969729739,0.8296847449527263,0.8231497527512481,0.8329558945891324,0.8399838346610824,0.8349948795102391,0.8341461251173496,0.8384890987811986,0.8446532244932878,0.8412972848724027,0.8446653678615597,0.8405577039391707,0.846819665851483,0.8529496484759529,0.8581475378033276,0.8526040247958486,0.8675637470180415,0.8647665597937706,0.8600188112269376,0.8525448667868345,0.8525280850376691,0.8611818030629801,0.8559034886482115,0.8662118843028079,0.8754170178437988,0.8786986458403334,0.8737835343386584,0.8607382517649802,0.8280365918706061,0.785327886207112,0.7592693121860752,0.8013768576729408,0.8482701035685494,0.894194714201898,0.928178923996543,0.9509731645427035,0.954443236294251,0.9412340033181816,0.9301287703239363,0.9321200433317933,0.9133723038044745,0.8698734382633291,0.8005116352748509,0.7259674506273888,0.6490461023644449,0.5736350209539298,0.4908296572795543,0.42353708456272865,0.4434603909707391,0.5191750501272809,0.5983915884183484,0.6771360677398122,0.7548144830259462,0.8221147732387448,0.8580451422910802,0.8533888918618422,0.8577715492317799,0.8506679757682922,0.836144579204132,0.8317435411784462,0.8316729699489509,0.8450367714820171,0.8136610582186761,0.7858958976099057,0.7785463208974119,0.7769710712470148,0.7863414145362848,0.7975872980777197,0.8013558564322587,0.7844535585616323,0.710216198827806,0.6249079632559191,0.5495296524361277,0.46562881949234813,0.38642832594978893,0.3071489460173147,0.22516307917988,0.14871741014391993,0.07249027273435926,0.03957458757623433,0.0904643023452858,0.1656381559361373,0.247717982082442,0.3325887039288917,0.40781159431925285,0.4924756369419432,0.5790022660438108,0.6634529898000647,0.7368739496489705,0.8084654980689441,0.8567107532380318,0.8719752416207458,0.8761859996013242,0.8920073915681301,0.9021501167232586,0.8843484950455702,0.8443668008728873,0.7994506162252548,0.7524178602020808,0.713593691969604,0.7029403297517274,0.7406480263079323,0.7899735691174221,0.815647954802168,0.827295847258213,0.8258747073378643,0.809617708893587,0.8014466897713912,0.793578811748495,0.7981402943990081,0.8015161626538545,0.8014126992627137,0.7953536414293965,0.79879760682553,0.7994037953676354,0.7961885261800659,0.7892921454181752,0.786709073449267,0.7841364240838831,0.7803400872173161,0.7803704183358919,0.7864051528319178,0.77859723145121,0.7752378683538688,0.7782321744462377,0.7822093347300674,0.7753415463538789,0.767909053319838,0.77184985654614,0.7718909139908938,0.7718909139908938,0.7718909139908938,0.7719019747429259,0.7746659298854832,0.7775017292640964,0.7719772930506419,0.7718909139908938,0.7718906908019199,0.7712608707616189,0.7607744853486731,0.7487426041106413,0.7484341714139442,0.779851079774972,0.7924873419791922,0.7990567190833964,0.7626510094963292,0.6877289471445043,0.6116072248814135,0.5289558031270094,0.4531169743673631,0.36886827370143704,0.2935569829701772,0.2096470140052431,0.13307540336829105,0.051948314664330475,0.0,0.03564903535570241,0.11270727714124984,0.18842071435290286,0.2714657613642697,0.34941972771491114,0.4298300896402101,0.5084404490323482,0.5882480335004778,0.6697403749371411,0.7421421939920345,0.8106124887644734,0.8621418522125561,0.8884615163456508,0.8964854150539774,0.9070445752547169,0.9382052455453984,0.9564099622302542,0.9448506481682297,0.9129274090797013,0.8682335015067719,0.8241967335656131,0.7786332244866359,0.7397833394048237,0.7306476550336611,0.758465898869982,0.7836434240975987,0.7867020633253909,0.7862190639529387,0.7788396343861617,0.7856497920399319,0.7867093260364404,0.7867223408125368,0.788665943211347,0.7930627740072651,0.8007273691989083,0.7925581927041081,0.7991641133810654,0.8015236123899057,MI
0.7774000168618553,0.6886382266885853,0.5860940418111542,0.49052656920512216,0.43865455414114884,0.45966644830430825,0.38307172467189243,0.3058311557962001,0.3254963914357074,0.39057833931487895,0.40528952924700845,0.41172497787976625,0.37948543919599076,0.3154238785515828,0.2595751440930909,0.26582960659802835,0.2719041436109566,0.1949123185557018,0.09552636257193159,0.0452110504034553,0.11639946953479341,0.21478164790577203,0.3214297225924947,0.4296392574220256,0.5337808404983726,0.6215937557883833,0.7147030287098721,0.819211697937779,0.9202235131218324,0.970175280519262,0.9020511133129248,0.8070198918862566,0.7098451668509458,0.612570932214966,0.5170020936281003,0.43589633669963135,0.45158200577786545,0.4049117333127312,0.31804568171332726,0.31050493835907367,0.3674861611174247,0.3920760425081027,0.4084965644008258,0.38430134133571814,0.3218706532205604,0.2713692082127972,0.2829025307832935,0.2856270162033032,0.20282867215392586,0.103982056938968,0.0679465582383818,0.15031776124820317,0.2573306144137826,0.3654793472883495,0.47444552250899097,0.5880016112017077,0.695960511767139,0.802085617725907,0.9046978386554712,0.9818684837114209,0.9424113114370745,0.8445883590243237,0.7492879599104942,0.6516422720812272,0.5573153597220115,0.47899147775674256,0.4440588965658996,0.36178907073526734,0.3224730257802175,0.37225308035526194,0.4094888794697109,0.42555237706740057,0.41348278896884816,0.35402021020080143,0.290400059345715,0.27631330036810353,0.29965809537616983,0.27033026707982244,0.17619962599116668,0.08170248747748698,0.08960165070635395,0.18906045822282191,0.29126485837501614,0.38490612549420966,0.4924567563038964,0.6007232092035966,0.7095569812927274,0.8191080320226563,0.9197429953273681,0.9631939352090437,0.89336136460165,0.7950423288642259,0.6941916214049513,0.5968488314349578,0.5044589997341469,0.44244531249425534,0.47760457864252626,0.4220045501389196,0.3356661193630299,0.31756596747901966,0.3795626442132489,0.416803044960119,0.4381120172685624,0.4529929667746555,0.40687629448391016,0.3499521560444514,0.3369759364120457,0.3366708097271758,0.267151527656591,0.17013880089749422,0.10758617317571217,0.17144754536158846,0.2771635399101591,0.3847641536034603,0.4928801400876546,0.5988832355049665,0.7047776162579755,0.8104622523147704,0.9158817695830421,1.0000000000000002,0.965919746377309,0.8734441638845338,0.7749539480561476,0.670972623293659,0.5764643774119647,0.49267031562602903,0.4834989595934258,0.42964600610057446,0.34447967879418817,0.33893426851996566,0.39077628894384997,0.38764506933629206,0.36292299212099666,0.32492598882518875,0.27025473211132844,0.2969379229157163,0.36841063793706086,0.4409558331716126,0.5327545850736117,0.6309199402909069,0.7302801495589197,0.8264724613137198,0.9021902168153006,0.8536994466343202,0.7489674650479674,0.637648875322739,0.5287031357320955,0.4210811135758805,0.31286634955456827,0.20928943528532518,0.11871788758746527,0.05281020412243742,0.08373890915910032,0.17429696321872346,0.267467802534167,0.30368792144783496,0.3126742345485114,0.3644549589897923,0.41570142577313773,0.3922344362534387,0.3746991625419258,0.3697217466002325,0.3108411607748838,0.26491278890239633,0.30760130448517065,0.3718967267441404,0.4523505838340829,0.543140321419495,0.644630676269303,0.7450984181152152,0.836333741633309,0.8517175589953239,0.7602398640130883,0.6544852398999343,0.5468407271229148,0.4385515784135725,0.3254967456238147,0.21521837393757992,0.10941018868674557,0.02345315986033958,0.023179619010470498,0.1069716328219501,0.20568608069731265,0.25541863030852197,0.23846064472114592,0.261902613785558,0.3266905415787247,0.3828670232551714,0.3711083832848585,0.3684272667664634,0.3293011848798453,0.2727733079175674,0.2916335267371344,0.3571382530644498,0.4329660237042492,0.5235275731275426,0.6174291018211593,0.7153316028214902,0.8161000141400152,0.891345734239269,0.840070766453924,0.7351266257569085,0.6289898487235068,0.5223759273046402,0.4145567189435537,0.3066005058241146,0.19834859832017915,0.0885373738489108,0.018695806746285903,0.03791294925990085,0.12752283746508608,0.2216967798283671,0.2437010468904659,0.2383285148173666,0.28555122832988267,0.3493721764476727,0.36569879050280907,0.349220756354766,0.34081052095046993,0.2815965361458097,0.24595301945785075,0.2967667448423712,0.36164990212279435,0.4470003504620239,0.5387194547043377,0.6341151560480593,0.7316389412202444,0.8264574918463772,0.8526270062217087,0.7624270836977984,0.6575093683346089,0.5496749732903361,0.44132160754650607,0.33337399536984,0.22660460578310238,0.12310849619583775,0.036625970934037966,0.0,0.05975830052183495,0.15791902237015387,0.23150507838315315,0.22160887268373441,0.23757012403646094,0.29678171978122214,0.3586563754448686,0.36653459852054415,0.35196884637509007,0.3485241309040037,0.28383151250330974,0.24817045243071134,0.30086215194360255,0.361834525157944,0.44565247350354475,0.5408487787303498,0.63100170659498,MI
1.0,0.9838558272712725,0.9809184151663262,0.9806893793793137,0.9622705423058653,0.8869833028523155,0.7861678188484569,0.6784763710298192,0.5781827066749803,0.6166577272855878,0.7156472774967417,0.8080580220422227,0.8626348674350215,0.874535924407664,0.8548800626059281,0.8054992011579434,0.8082274513706116,0.8489567120377175,0.869039793665412,0.8634115165277354,0.8627492048925656,0.8747700957473583,0.8751096591558714,0.8751096591558714,0.8751096591558714,0.8751096591558714,0.8751096591558714,0.8751096591558714,0.8749614316164056,0.865350620146736,0.8541888370028108,0.8539512004364722,0.8560685747920256,0.8722321838471547,0.8749135165521893,0.8643639841750832,0.854052122817655,0.8463672992029507,0.8255925192099833,0.7858292913350722,0.7560783498988215,0.7816732564428279,0.8257237218543731,0.8709897059605751,0.9140221276801603,0.9476069330172496,0.9595825189153318,0.958275469605391,0.9459563066596925,0.9581453279654082,0.9616066425921219,0.9769000721117926,0.9507425223527624,0.8653096451650995,0.7621393794242013,0.653810329288516,0.5375465256322984,0.48044723978219217,0.5723827686789202,0.6895231123679322,0.7976920064172544,0.8674831646112424,0.89397395479403,0.878007982308719,0.8360945166973313,0.817414359715257,0.8534800690867463,0.8886731122034592,0.8962225439287765,0.8962703680176087,0.8962703680176087,0.8962703680176087,0.8962703680176087,0.8962703680176087,0.8962703680176087,0.8962696608159839,0.894967568628672,0.8793854552005875,0.8751229176263835,0.8751096591558714,0.8751096591558714,0.8751096591558714,0.8751096591558714,0.8751079846435297,0.8733995023990149,0.8522590940429229,0.8216557251795686,0.7829216976270219,0.7974175032923854,0.8437384435398103,0.8830927005804847,0.923492012159091,0.9601801204713363,0.9792672048058919,0.9827454830459526,0.9987669585139409,0.9939695368702872,0.9812903659035919,0.9807263422279262,0.9633879586836187,0.8835566098637901,0.7790957581567945,0.6710192914839483,0.5801272107744988,0.6176752768014016,0.7235099350034511,0.8183919981313799,0.8762514755345299,0.8919318390910331,0.8701364841530999,0.8312785479352862,0.8217618679039167,0.8506743362974625,0.8533143408275929,0.8326294707288628,0.8049620461939488,0.7946048845647078,0.7528521161339095,0.7426091182892733,0.7729748796801101,0.8165733619182598,0.8100676806097944,0.7274974897870443,0.6289678097052902,0.5473644096664723,0.4520472553312298,0.3428709187446697,0.2353475662434743,0.12954532773464456,0.033449560132156275,0.03283833265333502,0.12507412777651306,0.24051229373552196,0.34589031344897725,0.4544381986214785,0.5685917365579609,0.6698004090015437,0.7819332715153626,0.8744847050080153,0.9175612791046572,0.9187745958347997,0.9278036008663366,0.9231138018138063,0.911475678187768,0.9227345432566008,0.9037057339083474,0.865303826047525,0.8228744423707459,0.7785649189854693,0.7354467023115578,0.705636079782872,0.7244425351924604,0.76659659689552,0.797530428322323,0.8169433980994323,0.8242659223666498,0.8243239578877026,0.8243239578877026,0.8243239578877026,0.8243239578877026,0.8243330442281516,0.8277469693198611,0.8434787753506656,0.8333644516815797,0.8257133872098597,0.8411358201711336,0.8454705492559382,0.8454846667494396,0.8454781111467531,0.8420489518409981,0.8259824333960046,0.8170848411847698,0.7778372281088277,0.7424926403559566,0.7482081562664464,0.7950621153815067,0.8210502888790931,0.7741800058940456,0.6767804749729431,0.576055708099656,0.4639918801333134,0.3626911666202841,0.24732010419882,0.14150539696879916,0.04091711740578985,0.026316067179309233,0.11502623384544819,0.21961159958865784,0.33523953003700724,0.43692494970118867,0.5500615240478153,0.6600899406577909,0.7638754719148935,0.865366543824444,0.8956400600821919,0.8879377872659968,0.8878270143740004,0.8929076631584518,0.9074282133021243,0.8925089478479271,0.8621433698361569,0.8189620190532683,0.773989289056062,0.7332328674922319,0.7003590709978935,0.7041757752347233,0.7418453400451961,0.7777316457516044,0.7971884347976643,0.8034385864964353,0.8153329475598201,0.8210304721911039,0.8050400175102488,0.8031652074229738,0.8031632490259653,0.8033010027309531,0.8126792038102013,0.8240649425936479,0.8243239578877026,0.8243239578877026,0.8243239578877026,0.8243239578877026,0.8243239578877026,0.8242081669657146,0.8149098590504602,0.8035943235483476,0.8079047532816883,0.7925837032795799,0.7434249285904708,0.7228228543321147,0.7265571076454158,0.7702834655118189,0.8159522124694414,0.7976871859563905,0.7194335827795393,0.6124419228723066,0.5111967737308216,0.39633037790187764,0.2934044203725006,0.18232888720465956,0.07730972867979347,0.0,0.03369682905678628,0.1302902003177251,0.2419338094311687,0.3586768274247891,0.4622967250110719,0.5728037068643692,0.6890249677382352,0.7908771624833455,0.883011352519377,0.9085376442865978,0.9116412839276089,0.9232496614921035,0.9252018308493657,MI
0.9077594003817158,0.8697987380859749,0.8374962453568964,0.8084782592813724,0.7848520569759003,0.778737020956707,0.7787138373319928,0.778846780193315,0.7890584743229665,0.7726777695671068,0.6892685642518828,0.5913887078909643,0.501654302005706,0.5277670972906474,0.6159254592152372,0.6530526512373696,0.6564687584037712,0.6756865751455434,0.6792962388207311,0.6767165465030418,0.645692989570664,0.5953754082817184,0.5997688592302941,0.6306062469762947,0.6520633548183472,0.6544513639851139,0.6544535939790581,0.6544535939790581,0.6544488426065227,0.6512732906933332,0.6318476396757617,0.6316190193642255,0.6508345264749567,0.6544466080192262,0.6544535939790581,0.6544534310192232,0.6536014990457204,0.6365482990859128,0.629632769735827,0.629601922689143,0.630741514061846,0.6414295601413711,0.6266410702903382,0.6077382962699076,0.6350249358555216,0.6950456615459792,0.7569030757412705,0.8305969814113707,0.9056154395454721,0.9586116891914003,0.9936611888542632,1.0,0.9715508568636402,0.9264535125048257,0.8781406129015048,0.8444128076100075,0.8068005264082423,0.7831419177373542,0.7787215381918777,0.7787138373319928,0.7787138373319928,0.7783365762454935,0.7539509757395129,0.6706176006272431,0.5772630291445902,0.5099006739155332,0.5758810315399412,0.6406667093933578,0.6332309975271464,0.6295587513762788,0.6216822716856596,0.5889140429918265,0.5432572710668317,0.5577676868242762,0.5936159518439035,0.6229804898981586,0.6295738877881076,0.6296015453084713,0.6296082577772637,0.6336597900017598,0.6525616988929546,0.6544521154856628,0.6544535939790581,0.6544535939790581,0.6544535939790581,0.6544535939790581,0.6544535939790581,0.6544535939790581,0.6544535939790581,0.6544535854022246,0.6540784047365289,0.6391128010329341,0.6296783332573552,0.6296015453084713,0.6295867382930993,0.6250130056655863,0.6243386048902293,0.6653024554877058,0.73249744911974,0.7993663204767332,0.860424960002808,0.9129599349627293,0.9495781411388435,0.9522034142154503,0.9334193742864008,0.894133407464901,0.8601709633279633,0.8310854095217257,0.822827976159469,0.8064873838853739,0.82414109822217,0.8284081800570622,0.829877017246031,0.8460410382120891,0.8087405536287529,0.7227207658756107,0.6337697785693459,0.5973354573979677,0.5515281175893549,0.45446861824352647,0.3529709776106307,0.25954021462882926,0.156074048443958,0.04226863439107209,0.0,0.010814711965878576,0.09296386538215096,0.2145724611621742,0.33689506072635433,0.43460388839092623,0.49099764183820804,0.5882181705373872,0.6846204891235335,0.7414510427906293,0.7590775464551376,0.7503797810423789,0.7439486267135358,0.7442579339432864,0.7586060817794369,0.7696380060203483,0.7896906220775053,0.8263252069341114,0.866309945526142,0.8887507203766702,0.8633309514615188,0.8074941152671338,0.7496907514608262,0.684707855604552,0.6151912695174726,0.5641766088122706,0.5458956482434019,0.5597514575941926,0.5579607368603239,0.5689039370568119,0.5699564998465623,0.5708637057344852,0.5881382692224437,0.5947801330098428,0.5948086771696506,0.5948086771696506,0.5948086771696506,0.5948086771696506,0.5948086771696506,0.5947962146151267,0.5897963442038425,0.5712281461404163,0.569957167616773,0.5699566284990638,0.5699566284990638,0.5699566284990638,0.5698003917199221,0.5565653352777429,0.5181253517491395,0.48178132495769965,0.44910132981460427,0.4724537853175055,0.5275612407592543,0.5566263841449337,0.5649327862166951,0.5597111602773484,0.5176665246119811,0.40342060633556764,0.2828176832520479,0.19457711861704752,0.19607378970433542,0.28364190152914937,0.38838313967227966,0.4893174565752756,0.5873692064434137,0.6802117455165568,0.7182625854118854,0.7190689205225844,0.7190689205225844,0.7190736718951207,0.7222495836277156,0.7432332964550961,0.779953161563621,0.8159345896692418,0.8611209899385699,0.908580099174964,0.9314040307135967,0.8978488096362884,0.8455961352605232,0.7797072296881744,0.6953993776548257,0.6247877645299402,0.5708080329822081,0.5461938599936538,0.545219104620791,0.5515820717497784,0.5618090137406062,0.5698916363808775,0.5699566284990638,0.5699566284990638,0.5699566284990638,0.5699703182207885,0.5748919886582957,0.5932148567144298,0.5836571441529421,0.5702362565105563,0.5699577312421851,0.5716003726072669,0.5903878034286278,0.594800976309767,0.5948086771696506,0.5948076822569726,0.5927929736272297,0.5728574302703073,0.5426522514055816,0.5001487699511751,0.5017649346166615,0.5559628901764482,0.6065589580096526,0.6190601753683342,0.6040531285985971,0.5947631572934249,0.5772548000923794,0.49367266496598683,0.38802877015297454,0.28103819106179495,0.1998150771974383,0.20732147643813859,0.2957296250886836,0.3976353168562454,0.503114862627521,0.6015149648244673,0.696060129278556,0.7189020545523377,0.7190689205225844,0.7190689205225844,0.719252987303042,0.7312952798678136,0.7556116493927609,0.7813994133932924,0.8176954219986943,MI
0.9315592897521512,0.910264755778754,0.8716333600373467,0.8105382160494345,0.712558339520541,0.687996074705953,0.7527792487686478,0.8014667584558093,0.7927197037355658,0.7907690012802955,0.7636086965422506,0.7251953121622012,0.6767927198250212,0.640394164496676,0.6026195253485827,0.5761054870835558,0.5949132472886771,0.6134299648467891,0.583196921744038,0.5307248209728836,0.455736662907285,0.35220451745493664,0.24863151035135678,0.2773041104545544,0.4134639502351307,0.5406640869496866,0.6708806442316715,0.7782801804729664,0.8481967334465867,0.855835512699143,0.8352818941123008,0.7969052173114699,0.717332672710941,0.6714529194243162,0.7298055646783417,0.7963089955926428,0.8379351238099138,0.8300770886513127,0.8285689659961264,0.8284481552087031,0.8183044118843341,0.784532608088329,0.7757164159983452,0.7782040606318033,0.7994779185211458,0.7908252152128497,0.7467654346702073,0.6735696601115966,0.5897761774858536,0.4839115952770965,0.3951309907589424,0.4731136570774028,0.6127360358936014,0.738998198676803,0.8612468753897251,0.9501861744662352,1.0,0.9909647998790252,0.9556736648300608,0.8792661874952437,0.7938191296228156,0.7551665096453544,0.826984835956146,0.8873172173624337,0.8957240487792375,0.8848215224134153,0.8634964374590135,0.8340762433914999,0.8098756705969916,0.7732717533129594,0.746593421871554,0.767922819236428,0.7829900570981541,0.7702500794306313,0.7139576024572354,0.6383356567738154,0.5420245416874607,0.4330066662723473,0.44631067170453464,0.5796627251216235,0.707856008821623,0.8344537361604591,0.9447955319166104,0.9976016196915052,0.9936073822927809,0.9483794342841754,0.8893457248832366,0.8038360602242856,0.730510128218659,0.7688791679842186,0.8317459887590295,0.8756995891695052,0.8738922034205001,0.8667677363422399,0.848469911366958,0.8126801328330981,0.7729893810207686,0.7384231941955428,0.7034745806401799,0.70801736011353,0.707365188961353,0.6660888403653931,0.6149026222519272,0.5463310828893078,0.44863607914615367,0.3323458808199664,0.26719703342983836,0.3632385183790676,0.4946862086064705,0.6209813330608869,0.7439271060863648,0.8289607845061919,0.8699241067427983,0.8696626840199992,0.8367580919658542,0.769097981725217,0.7137497530119186,0.7674047875112393,0.8474908610882266,0.9085396100918759,0.9123295328900727,0.8865986392676781,0.8558757015562968,0.8058085407398359,0.81090339307499,0.8272865188028735,0.7900130751402021,0.7207185210475107,0.6511128578811327,0.6342201464980035,0.6932843402102646,0.7667237981414838,0.7882831723640504,0.7885107744880449,0.7222744415303151,0.6023080038518693,0.47619903162238186,0.34107219587181836,0.21318780025184925,0.088581556061611,0.03059475555215485,0.09923887011614063,0.22968381327299925,0.34728360383095325,0.45591560508786255,0.5356526386503799,0.5956485019516551,0.6323736075935211,0.628919227914436,0.6393419295099569,0.664942811725393,0.7080835589611358,0.7433418906677414,0.7848338092286475,0.796939352000837,0.7955256231402403,0.7605711094683394,0.6927021188234295,0.6503877684828301,0.678568711663555,0.7684367198084341,0.8474299166142494,0.9015245663906386,0.920051167483372,0.855821660026562,0.7378328566483447,0.6079916291378589,0.4767089739046013,0.33286270221338166,0.19568289699988783,0.09849777946678451,0.1325106230788462,0.24774613169560444,0.36486139220304636,0.48398517514436845,0.5926411892235648,0.6695847080986708,0.7196666312951923,0.7149921039801836,0.688409688892758,0.6897297505735871,0.7235215460580764,0.7509707058154413,0.7757826938167955,0.8137785659387813,0.8222127315004251,0.8326341254262446,0.7777765079742207,0.6960053948494771,0.6661911532697187,0.715331107925874,0.8117671006972342,0.8889541365743532,0.9161120106298393,0.8963325488274951,0.802377985115672,0.6734717847561806,0.5444302160042263,0.4083019631060618,0.2805297209069768,0.14890997798279626,0.07270913186966954,0.13945591945330493,0.2601387856775652,0.3758280938719456,0.4905732702421708,0.5898366318671888,0.6707121396542002,0.7183759120872457,0.7166317492070884,0.7066363611317006,0.6966545195929053,0.7235096712278,0.7509757063142168,0.7521756531247896,0.7522439586312979,0.7570280481458269,0.7308467493769886,0.663617970290932,0.5961531228910482,0.5888021705765087,0.6571337168065399,0.7371188510223678,0.772424381137347,0.7775227976918972,0.7060831271290322,0.58375397958436,0.4487581120999362,0.32139424181767984,0.18452611634840244,0.06192496298534245,0.0,0.06997378703768975,0.19226447453390794,0.3147578106554718,0.4085633075616242,0.48286299793569,0.5320469179150709,0.5279543695744762,0.5082187892517775,0.528070762169921,0.5606577382698754,0.5898155848726039,0.6403648879864772,0.6776826992120966,0.7077707020540678,0.7271431862726065,0.7054801714838166,0.6317640061221379,0.5844131599527036,0.6080837912175072,0.7026765498521144,0.788193117196891,0.8356420319099156,0.8575204145184583,MI
0.4834345851655988,0.5117871887616683,0.4863000490091911,0.43042719336450563,0.38530800933263,0.4095706498628999,0.4760202453409632,0.5476143920820831,0.598572868989687,0.6238023299990847,0.6759527816597029,0.7476591780216879,0.8390037721019536,0.9259443264972294,0.9752560611912136,0.9507325824168837,0.8627829118771497,0.7630982093138678,0.6637617908616278,0.5617798508955605,0.46343119299225144,0.37072392928554043,0.39259052684514373,0.48145729533339976,0.5471719200829097,0.5597855302406876,0.524424335553495,0.48836160899382675,0.5170597937290826,0.5573134767540373,0.5571071125886513,0.5068119386829495,0.45442167624573804,0.44659274215892464,0.5028325311266504,0.5704594550978523,0.6314011251745617,0.6531297694721003,0.6794732724397361,0.7555694620161773,0.8423606385578506,0.9324943147768019,0.9903553206587643,0.9817344583247996,0.9030604864056284,0.8040358083646624,0.7064429983690961,0.6021472225336935,0.5014879085028343,0.4096145236766835,0.4120435631173658,0.4956900762567322,0.5435642693492766,0.5301615059524978,0.48132353840682174,0.4676980316499073,0.49561326434090147,0.51922695319975,0.5115587533249073,0.463842177426367,0.4058142497992612,0.37443175810493456,0.4213868005235273,0.49058869991054044,0.5430697687835624,0.5676196734800327,0.5939886511196155,0.6749746373270022,0.7647314216589902,0.8518961460422039,0.9249043969346407,0.9447083975291373,0.8829822043998117,0.7838293955964859,0.6858588479269772,0.5816275401669841,0.4832843115199119,0.3812835750571928,0.30520468104873477,0.3562768405394332,0.445918847065891,0.49072438162828713,0.4784289963055641,0.4396326702749227,0.44787453495279683,0.4878265797546937,0.5177522818270974,0.5200428150496479,0.47603327050001676,0.42224453110944404,0.4129546841725664,0.4716989865601464,0.541570206633212,0.6080122997590831,0.65093364696583,0.6811578372498999,0.7524718027566994,0.8396623843081958,0.9254696958630013,0.9938605183109914,0.9999999999999998,0.9309788873355693,0.8317236766787166,0.7318886128404762,0.6312897369099357,0.5316594648371287,0.4269349715452391,0.35963438141695603,0.42007562592276804,0.5041131207983132,0.5420554500391581,0.5273650355510633,0.4808280688376645,0.48475581015952773,0.526020356665956,0.5416423348600377,0.5137496978264096,0.4544923473634288,0.39786475518227893,0.3135769860925566,0.25315318212580284,0.2911904899182256,0.38740751325340894,0.4530526342729828,0.49958637194883404,0.49717438201729514,0.4579378456668426,0.4366993498076477,0.46714365389439383,0.5054151900654977,0.46915564247931596,0.3811910727350276,0.28408098206353594,0.18773064960749664,0.12258684783189655,0.17462663497781072,0.2779375232852028,0.3833238254222504,0.4859102980442691,0.5840471208170845,0.6887339931026639,0.789210877107233,0.8872767085683873,0.9489966913302619,0.9013643814602637,0.809204163940233,0.7216218821905098,0.652493193940259,0.6202534007183806,0.5844161726426791,0.5146534982739033,0.44586003904040994,0.3846610655460083,0.36368753381136343,0.40547134311352506,0.46409043398195515,0.49296281001211417,0.4707569052983771,0.4316306972230426,0.40278061208018223,0.41843510613174306,0.45356116760775533,0.4199616457353501,0.33147314452454424,0.2347972170864614,0.13281360276191023,0.034131187751257785,0.0,0.07671667788568115,0.17492225606900402,0.2765569798870453,0.38165154246688515,0.4809309624253981,0.5820160173082811,0.6832758550012843,0.7820633905962195,0.8728009666148131,0.8736438540260882,0.7923733063173699,0.704632759253174,0.6199953363538975,0.553429373382448,0.5303101245035964,0.4916488212837413,0.42886459416670974,0.36332655939482494,0.3252374133621787,0.3554966375833093,0.41197187211684394,0.46560449007637894,0.4850180204766017,0.4609921716242147,0.4315202105551099,0.4331890250833459,0.48602856961426766,0.5022003172238958,0.43738777984363164,0.3447127564195098,0.2484585950887479,0.15370567726919293,0.13117804928933086,0.21051210198403725,0.3112348518417871,0.41656334649028914,0.5219756372845452,0.6267328698677266,0.724785558532592,0.8266216286094561,0.9176360667531858,0.9402127465698353,0.8674933630419013,0.7781759742127716,0.6890572917666011,0.6299141782415736,0.6143905594352259,0.5835858766262976,0.5138103760062378,0.4474980934267794,0.39934040037193475,0.41187897635714,0.4644354779494937,0.5170031323062059,0.5152553169305629,0.472152167959067,0.4460931520450393,0.4794542589096975,0.5253924823080689,0.4994193369556219,0.4089926516327116,0.31232138747454274,0.2166793700945706,0.14690934797151223,0.18850463437423604,0.28381932907931295,0.38128341115886166,0.4693240178790843,0.5676465857951933,0.6716754297471577,0.7693140440521231,0.87126343213214,0.9240663931446946,0.8640319899278499,0.7767456770815067,0.6888535465585295,0.613092034719388,0.5785185758313574,0.5465341136443174,0.48227617628285535,0.40882904512556895,0.3518818268479724,0.34422079579521814,0.3927725326910019,0.45062635236108917,0.4769193960438358,0.4453470213352506,MI
0.625876843300145,0.6147939137835091,0.6204791341361172,0.6325431936304039,0.6394205380003183,0.645028050735231,0.6490463369455407,0.6491522017000567,0.6514596749342253,0.6518801047616553,0.6560631865850136,0.65816394379235,0.6627597507754707,0.6679592784991372,0.66758509589495,0.6728625245326901,0.6698491254074731,0.6655997260788563,0.6659809632364023,0.6747632038521391,0.6970791244433646,0.7255381562457274,0.7604525939703134,0.8002328684390713,0.8374334279981513,0.8730457870919698,0.9061488711783715,0.9393798883578542,0.9692783078620569,0.9891889842360754,0.9985135014037453,0.9999999999999999,0.9881992770605447,0.9680640236833912,0.9416981551912517,0.9006142367052304,0.8571583465445628,0.8130212898929471,0.7681715122351046,0.7230184965417931,0.6757207655971348,0.6276532270080205,0.5870116740157211,0.5824393657520169,0.5812903625980822,0.5571075642337727,0.5122872445869701,0.46048026611467285,0.4125610063080628,0.3611235930258506,0.3131059739116463,0.2619466176602734,0.2556803290977697,0.3005132812562842,0.3535595666298742,0.40160560442856996,0.45188347515171856,0.4983526051741357,0.536807146742133,0.5430981879954199,0.545079422531772,0.5481261722644964,0.5333756984532086,0.5417770476560054,0.5578191620068734,0.567793213610393,0.5764517215424979,0.5836454064001556,0.5903826668794071,0.5951153975913882,0.6047581838153125,0.6081862759042372,0.609687658162304,0.6107004241850206,0.6152481063365131,0.6164348859007528,0.6191589418120972,0.6218849360508322,0.624382529442404,0.620696631067441,0.6191129982067815,0.6115397158002781,0.6241473340554623,0.6478240184988847,0.6805107069220694,0.710639306131592,0.7462406127145073,0.7771119642513996,0.7974210224694519,0.805277783196077,0.8048965822061268,0.7873259424141305,0.7692246928169605,0.7504565263612092,0.7364744327872786,0.7243205758689845,0.7148516934591295,0.703828331448994,0.6912743961108573,0.6583529794062964,0.6137290892656596,0.5643681191695656,0.5162777412752716,0.4650917608752211,0.4290781435171106,0.4574637289749449,0.5108388847737918,0.560403310279555,0.6063640825929285,0.6442365117558811,0.65235696247753,0.6466248632897008,0.6427709362753898,0.6255296015327746,0.6276292044729358,0.6380803209038338,0.6414519910494775,0.6464674684514443,0.6423992143424974,0.6443764267180857,0.6404911120509172,0.6218564106437255,0.6145927892232891,0.6155847490633485,0.6155905975396098,0.6118920187555837,0.6079523599789157,0.5975979353961595,0.5950324174108946,0.6142064211937032,0.6195301817519171,0.6072676144324934,0.5706622020997937,0.5242116325449583,0.48076898537694934,0.43914749658876795,0.3878917460606096,0.3350136123575974,0.287404210452752,0.2388560848388095,0.21203682180058936,0.2437671070700247,0.2911922507353535,0.3429856008215505,0.3947995357201576,0.4428956462868131,0.49616368938321853,0.5451694242829545,0.5944096719869597,0.6398354649315018,0.6726592543904205,0.6845963741235735,0.6940810151170856,0.702281210208923,0.7159577448939133,0.7336831118956854,0.7519845010425809,0.7695873063494459,0.7798385100136546,0.7723603686710102,0.7483063510415432,0.7195209872120826,0.6832749418915421,0.6504426908810744,0.6200757492209842,0.5995847805317619,0.5881021835982906,0.5864844141054472,0.5959725328266164,0.5967603245360521,0.5962046891172915,0.590486525262849,0.5929953021938267,0.5893612814848282,0.5857748968400945,0.5837640136889718,0.582815780793884,0.5786424399785154,0.5726702511626857,0.5692108259067202,0.5605578615692727,0.5529352995423192,0.5483323358347375,0.5381494548178388,0.5242473069314623,0.5087725695900064,0.5137367085135257,0.5210826699116166,0.5114129984078123,0.478820127264176,0.4325799658025743,0.38228670348007154,0.3342546925390383,0.28101173482746666,0.23188733243620252,0.18131265836725052,0.1277939889176768,0.0793392373165589,0.029588038035264552,0.0,0.022158690846720952,0.07032265622594713,0.12404186420598962,0.1778872401017655,0.23172722372511811,0.2840547990271546,0.33187064751735085,0.38485494982251234,0.43349147425519574,0.4835564343772837,0.527753540926943,0.552021878820736,0.5491079939914835,0.5642653114936739,0.60781929733938,0.6559506805900154,0.703253160001832,0.7484839509289468,0.7973570075806696,0.8454692664438129,0.8862652391459732,0.924425328250477,0.951219910273314,0.9698759069236332,0.9776907955958031,0.9698247765108577,0.9505251316585143,0.9227984482085104,0.8872127583468524,0.8530615572695323,0.817255624765033,0.781356957425066,0.7445912241157401,0.7051216794821175,0.6761156737027828,0.6537853420224785,0.6407220632219047,0.6380385322437091,0.6435483621031742,0.6458416648191846,0.6458295639303792,0.6429255593771256,0.637881616793332,0.6373294967221875,0.6317377306626321,0.6295050872848836,0.6292101930511441,0.6255397468630751,0.6248919665229765,0.6197539802633932,0.6129684059142587,0.6049640706314093,0.5898556944422487,0.5842591653562949,0.6012671152883077,MI
0.6298639845206866,0.6954841721116689,0.7689289793709673,0.8272651102860942,0.8846716791403209,0.9126390127134667,0.9057365424492181,0.9182653846027469,0.9263120763086423,0.9021555916019177,0.8613470098963631,0.8373803400335427,0.7895195537963096,0.6930089314078574,0.5973797332043227,0.5824576678920299,0.6745473109213078,0.7625087195078621,0.7992393655176211,0.8026956239457261,0.7793136631000164,0.7558098358140248,0.7279878982166759,0.753919648337277,0.7884827994097483,0.8099650792553375,0.8212194666809398,0.8331963246326719,0.8444204053045778,0.8334501100505096,0.8312332760944554,0.8247705865050814,0.8088696381326779,0.7850967026493354,0.7565937384844581,0.7240951452869688,0.7405210889998575,0.8006455182801804,0.8635984177427383,0.9211314084659907,0.969081559915137,0.9964176348585707,0.9941194584674835,0.9714749475499991,0.9595970152049365,0.941418267967423,0.9024436788158758,0.8610913617439047,0.7810614521461043,0.6764053453070895,0.5788171604093857,0.47064901534084047,0.3867073632982878,0.43601218128553443,0.5384571294187195,0.6327400361452238,0.7003752705536814,0.7176646634309902,0.7166267431945852,0.7153468014030322,0.6879326789416873,0.6886292667420508,0.729512835509559,0.7491947195931492,0.7620733884803115,0.7652761483735917,0.7783120252184004,0.7874591035289371,0.7844541527108069,0.7748724597202017,0.7416180795047986,0.7025174839240056,0.7073337578089505,0.7638683671802378,0.836593709655046,0.9000840349438404,0.952526024027466,0.992694947067823,1.0000000000000004,0.978986421468607,0.9588895814958631,0.9215062150205378,0.8804872021625485,0.8565453801286562,0.8203487004485304,0.7244521549767367,0.6252171546471796,0.5204148458255871,0.4360815955352999,0.48750436869114955,0.5953919034034643,0.692684151975206,0.7726647891698701,0.793074473999031,0.7899642946603973,0.7624273664697783,0.7280341468797458,0.6924757550825968,0.7128456787485904,0.7408379277324366,0.7512506415913225,0.7412643246264041,0.7295711852928282,0.730104109159396,0.7426396666095472,0.7458025007121036,0.7380756530602124,0.7274638995555125,0.7032541468051794,0.6681700673959723,0.6766089705448217,0.7344575180575976,0.7950079120274118,0.8613472319696478,0.9189621565758541,0.9593528102596349,0.9537393028398573,0.9146069161451789,0.8737073990129605,0.8198607815517778,0.7564100400445124,0.6909787003218519,0.6323739381986839,0.6072846231959255,0.6327219869652141,0.6668717061412885,0.6858109162121977,0.6918167765659398,0.6883097644160969,0.6822925960639608,0.6760175296641888,0.6791749864358478,0.6852160612938665,0.701807921737629,0.6878808711706532,0.6503648948589285,0.6142833824229941,0.6410772836988397,0.6819981970685669,0.7204362447469426,0.7369008035105518,0.6925629654370957,0.5940160024121912,0.49316539670236814,0.3845578489317516,0.2868657853290437,0.18052927996336487,0.08345545473751281,0.0,0.0036389179801976645,0.09285875217315276,0.20295623019950293,0.3134698067039192,0.4239833309667027,0.534085144344123,0.6341106230158875,0.7323530746112876,0.7857991853829449,0.8309928638325301,0.8742077050637564,0.9104682386429759,0.9322887877608257,0.9419658017238342,0.9139198045547738,0.8598054619087465,0.8009482769883203,0.7268106789912525,0.6650921454053358,0.6253318531505481,0.6477222719637963,0.6884790884251681,0.721882353860428,0.7377946423837214,0.7326851846849465,0.7219956007441231,0.7139459299184492,0.7131677462027155,0.6958755609214342,0.6626316204668732,0.6166362599536006,0.6218531152159397,0.6628665908649296,0.6704344662389592,0.6558447433739918,0.587248257928219,0.4902771567737605,0.3844571750753323,0.2840331942308558,0.18043574496522696,0.08027687335098088,0.0029041190271050787,0.027847204043610407,0.12547704590532494,0.22971111783533749,0.32974584944319574,0.43981303331191857,0.5454471562451606,0.644459394710259,0.7528929921637006,0.8256062170189229,0.8698099980814984,0.900217349396641,0.9196399629845993,0.9425722567601031,0.946877012280928,0.9130743663749925,0.8596594621852636,0.7962921916812302,0.7354223143272915,0.6773463715566055,0.6595674374359222,0.6891491845837745,0.7218026495595602,0.7502821475874386,0.771854595998994,0.7732794259168645,0.7771622598709946,0.7890918669580791,0.7804631778474427,0.7647002344092284,0.7500945883255774,0.7420107625682335,0.7106571639002106,0.6649631106751315,0.6525196323224347,0.697067423948079,0.7290645546643386,0.7459695237877773,0.7414369418812687,0.6746020069025165,0.5785612020871178,0.5011199128618009,0.4039332652585843,0.2969776291850663,0.1996474675004123,0.10866922809683865,0.09262817529149592,0.17893842370567103,0.27705296539568414,0.3865659303182061,0.4970789771167694,0.6075827652799877,0.7125758927421506,0.7676497682297025,0.8150722495305858,0.8600604288614764,0.8686807385652782,0.8475222682055845,0.8600449064964333,0.8534076416046297,0.8017172848316125,0.7447886426670087,0.6790581347440203,0.6032733947095203,0.5422422835119938,MI
