0,1,2,3,4,5,6,7,8,9,10,11,12,13,14,15,16,17,18,19,20,21,22,23,24,25,26,27,28,29,30,31,32,33,34,35,36,37,38,39,40,41,42,43,44,45,46,47,48,49,50,51,52,53,54,55,56,57,58,59,60,61,62,63,64,65,66,67,68,69,70,71,72,73,74,75,76,77,78,79,80,81,82,83,84,85,86,87,88,89,90,91,92,93,94,95,96,97,98,99,100,101,102,103,104,105,106,107,108,109,110,111,112,113,114,115,116,117,118,119,120,121,122,123,124,125,126,127,128,129,130,131,132,133,134,135,136,137,138,139,140,141,142,143,144,145,146,147,148,149,150,151,152,153,154,155,156,157,158,159,160,161,162,163,164,165,166,167,168,169,170,171,172,173,174,175,176,177,178,179,180,181,182,183,184,185,186,187,188,189,190,191,192,193,194,195,196,197,198,199,200,201,202,203,204,205,206,207,208,209,210,211,212,213,214,215,216,217,218,219,220,221,222,223,224,225,226,227,228,229,230,231,232,233,234,235,236,237,238,239,240,241,242,243,244,245,246,247,248,249,250,251,252,253,254,Target
1.0000000000000002,0.7616454287961683,0.6996288398312684,0.7280725947282554,0.590858910549884,0.29912402662516624,0.15870215031530788,0.3894487202755028,0.71350066431828,0.8700106902146352,0.7316376397317057,0.6707542681379828,0.6948212100571347,0.6288362244862469,0.3891426710197117,0.10480436566188445,0.17069698315221027,0.4613396122615092,0.7833352956965742,0.7852765229651884,0.6660153274904375,0.5886662487161256,0.6199865736143526,0.6155584821143256,0.43647250852902886,0.14639741603559764,0.0,0.23747211244577726,0.5247279131886209,0.6298461159186546,0.589815619723576,0.6245909977587851,0.6003098845953645,0.6423767659507666,0.390028618768268,0.11900976858009193,0.14151015189463534,0.4379161177370725,0.6432253438950328,0.639290224672646,0.6617137289168709,0.7312464941055385,0.713703941431983,0.39931091256104323,0.11629917595803096,0.09800290314416871,0.3906857146714735,0.6207988245604164,0.6575371322145391,0.6289433215538327,0.6848830924302789,0.6387518986688485,0.35911261581271603,0.09737969015431092,0.13972600630515886,0.440561531205961,0.6342071601131043,0.6433414234785555,0.6257282570742604,0.6556795760770358,0.5681259283367559,0.31304530114408813,0.07902977115068777,0.20047814181370516,0.5029056557518095,0.6416515226526462,0.6266870204701982,0.6610919230250001,0.649943798364016,0.6145512276044649,0.3277722361616935,0.10584814660854258,0.24677384042304817,0.5472599497138031,0.6906210774995134,0.6715521286323278,0.6760023606206207,0.7157704842986818,0.5700887580591376,0.25816231425617087,0.03617582116101259,0.18166128393939007,0.47900561223579063,0.617448500052937,0.6300337900956643,0.6065694543799094,0.6671928696778735,0.6188487920468109,0.33853771185661796,0.08510475345397084,0.1489411676485457,0.4514831582891565,0.6386479878968452,0.6409915210887183,0.6145359071852436,0.6544502833476245,0.5962427857063577,0.33717290661461585,0.07865483701142462,0.14106693182998264,0.449265478363581,0.6309157241902688,0.6132212481045245,0.6252585683117158,0.6071475418619239,0.6776856759440262,0.516295760652818,0.22249007933067833,0.09704333684941324,0.33769461755806995,0.6007326631868335,0.6459242384197237,0.6259569371671481,0.6594942376611506,0.6657514836437748,0.3705996208771545,0.07977819509840178,0.03288572726447958,0.31851337620910414,0.5722656301544016,0.6425850394165107,0.6083680008320058,0.6265445280918442,0.6907010227268156,0.5424873673034092,0.25209078142053554,0.05809949362223121,0.23934604850831498,0.5398282811277539,0.6756373479850641,0.6472704520359704,0.6600150363930812,0.6504308570003323,0.4932382282633829,0.2151934062813865,0.08840052931427222,0.32674267515445177,0.5854982700484956,0.6579941147038244,0.6391728252555129,0.6475551810726585,0.6743941656841994,0.5296873795126202,0.2284967592898881,0.023840134776139,0.14238508509366854,0.12033507222423356,0.27813649659071227,0.5871906857197724,0.8965718261864988,0.8187115492486432,0.719147274352703,0.7145640707742495,0.6887699628021033,0.466975457943964,0.19615741164234657,0.2654973427760883,0.5524470438076303,0.8602119085583599,0.83783691248054,0.7176928604642383,0.7264305214463904,0.7288299725814495,0.5635983904809092,0.25694351695234374,0.1528407198670947,0.39728213879153373,0.7277532791176269,0.9491658568320063,0.7647105812962136,0.6775205787286398,0.7083072211538564,0.681015008389595,0.49467530167246854,0.18554280383441246,0.11356829616587483,0.3808327163921157,0.7379200440235196,0.998973561160519,0.7959222013841096,0.6916516658311298,0.7107379831308622,0.6666616863143944,0.4119410314880718,0.1743270294571384,0.3148542739018294,0.6246780252932662,0.8841978092979439,0.7622715285168582,0.6842304931388827,0.7044135339998732,0.676851388569671,0.4615543030361604,0.1722498255414031,0.22307372345052556,0.5083824988553316,0.8243023462056158,0.81917810458525,0.6953077652311535,0.6923605235812655,0.7269504429150302,0.6080960638725605,0.3165986560733427,0.12379166514279305,0.3165203175434703,0.6351034883234281,0.9524469886574003,0.8259782726776861,0.6930474007453913,0.6828409198273191,0.6947808130684783,0.5766453089235146,0.29189173966445026,0.11048384680520096,0.31628949384559646,0.6445226112121671,0.9778937020776757,0.8654943904198185,0.7467313287232045,0.7399261963504278,0.7466593449173307,0.5753412521655641,0.2759904764775529,0.20673224596541462,0.4669597432447026,0.8041395401796565,0.9088572828855457,0.7560157896717403,0.6919705300316668,0.7064390496486241,0.5822577177152859,0.28571085976535393,0.1578180871031427,0.3919193469920017,0.7059037544613067,0.8707082250946268,0.7425092507466531,0.6871395506523481,0.7308338529052143,0.6666804098262922,0.4214824109442692,0.15517410982839563,0.2541148650573468,0.5531465009036163,0.9031220294181479,0.8917436266733836,0.7350173405144977,0.7074410824377548,0.7330162620791991,0.6475521596534513,0.38454532651187745,0.1363677141334343,0.2714265291990836,0.5822815767685798,0.9469654912526757,MI
0.9282041928589457,0.6592540202702324,0.6625705271550952,0.5689619492516949,0.6356066214696616,0.6826585355098054,0.7007227605213373,0.7049324252816094,0.4021548917257576,0.2549917710362526,0.5011977363922071,0.6031565317690921,0.9067688658470647,0.7640981806221205,0.650734871639215,0.5727281807527422,0.5636838204730239,0.709610568826994,0.7566375215363177,0.7652214772861665,0.5356060654618009,0.2616071578814303,0.4367224645045491,0.6715283320820413,0.9790907657634005,0.7930463772796319,0.8272366850549133,0.8297711736881368,0.6935764236018418,0.6612296330711889,0.515294939373546,0.5932361610384911,0.551322027999892,0.2224399585995731,0.2410269544185173,0.4989644322170994,0.7556382641192503,0.9442347517037577,0.660330525917745,0.6933120609805172,0.5973235506495724,0.6298521047669619,0.6951131607748238,0.6933362392097999,0.7051145532589276,0.43907725975108214,0.2647188179363651,0.4861924584393389,0.7043199700913219,0.9693448959846114,0.7308962550989202,0.7453184972210547,0.6186552714708169,0.5261430028045719,0.6220559846164413,0.6011130422423818,0.5508565820423703,0.26867654129257623,0.19180220536208914,0.40405862729263564,0.58406833802582,0.8284314783423401,0.5586050032746286,0.5801726831375325,0.4650260969243254,0.41194304943567595,0.48763178121051975,0.41318484067352124,0.3156851134901344,0.19677974072374305,0.23628400186398402,0.5304451614066918,0.763453523622764,1.0,0.7465390011739075,0.8477818261646899,0.7272594437704889,0.5892243897226548,0.6794779029410059,0.6841378389553707,0.5853897135631447,0.5526862582791177,0.5334587548285175,0.426517245474229,0.5539617342592642,0.6962952538281293,0.5315761773998275,0.6948354702560264,0.5401242457548063,0.39992955133288177,0.12416197128106576,0.0,0.15350526965992906,0.26470098186394253,0.3402139111721558,0.2841996109569407,0.23499576948243828,0.4089630828695192,0.35153778684482884,0.46070209528940964,0.47351864435302016,0.2905977848268244,0.09581895031747889,0.014213383866712004,0.3354580072558928,0.4610312547494022,0.4813865438481919,0.41148892313704355,0.37597438933646554,0.5742316230276732,0.49154425251480927,0.6167574578786237,0.5729399307522689,0.36231799827105604,0.11945006844795225,0.21004208013391112,0.5245564736822628,0.5519446980004616,0.5415037381850851,0.4848221142110942,0.43925321006557105,0.5421216647637115,0.47732753680805295,0.6455897540387179,0.47205630528997666,0.2513286518175102,0.01306237593922921,0.2011235174151338,0.4571189614778195,0.3951138745209173,0.37832206991392336,0.5158832013327546,0.5640702053257955,0.7051340156529529,0.5560265571792842,0.6860318025115495,0.622984697647956,0.37411929410188627,0.1362228256098046,0.18356396648283324,0.5228020025393958,0.584435550577977,0.5644357225243128,0.48075694624815846,0.3707162625745708,0.48826766120951515,0.498298482556903,0.6392622772957495,0.4667506535342243,0.3614747615531648,0.10978216190895473,0.20739780829298393,0.5210113972490644,0.536929202266518,0.52453280515169,0.47787452548039955,0.4220797167269046,0.524053430423165,0.45438240856251966,0.6108734765461428,0.4822355982891251,0.24038041400907328,0.015332650326238095,0.19410981259878035,0.4436756013059977,0.41752731812479027,0.443934020749416,0.41779701822359794,0.3299922640222954,0.5769820386284934,0.5722749226078898,0.5250843381115509,0.5614503526641084,0.3777726232434686,0.20737801361023545,0.11345592036703822,0.43235114568059885,0.5590671952754986,0.4919035531266509,0.4425477812524852,0.3428936199930779,0.5154493847561339,0.6495146667336478,0.529204432563156,0.729610866372794,0.5175934071785866,0.34968550802007403,0.1233155534066177,0.20917833864406488,0.5054726944809742,0.5206870651657605,0.4808239607237166,0.360768158794313,0.30900505900770714,0.5417080675354127,0.5348973362095961,0.6409421942533449,0.622647616905013,0.3533722376026489,0.15177591317544836,0.08310868500523805,0.4159687923230875,0.5472591584558266,0.5131232647489252,0.4354995923024978,0.34202293480812296,0.529213623835993,0.6650436261281936,0.5534244564087105,0.5522001791578051,0.6453855947780758,0.6968544934644187,0.6482152053621073,0.3138347677869695,0.2545319108695474,0.45040828384931686,0.6985369890201705,0.9697576334675606,0.7131510186246715,0.7177621166064707,0.5579050038508795,0.5046983285312088,0.6260214502915886,0.6693278939895375,0.6917667409389354,0.4681601901963459,0.24133630735323308,0.44324583624794567,0.6495387505326571,0.9657860391642936,0.7837193579265662,0.7892120468264476,0.6936060660837633,0.5193398656910588,0.589481350656766,0.6232701384937531,0.690541485493255,0.6859146661354707,0.3988000159044427,0.2592497176965547,0.46372478538115836,0.6739427987409847,0.9302921025298527,0.7069259709561244,0.7727834668006075,0.6158143260759656,0.5248782883469119,0.6079644091225589,0.572406121002567,0.612392411736983,0.5119417318777977,0.20032054075440442,0.30108587899096184,0.5561075587145199,0.871897560166162,MI
0.9282041928589457,0.6592540202702324,0.6625705271550952,0.5689619492516949,0.6356066214696616,0.6826585355098054,0.7007227605213373,0.7049324252816094,0.4021548917257576,0.2549917710362526,0.5011977363922071,0.6031565317690921,0.9067688658470647,0.7640981806221205,0.650734871639215,0.5727281807527422,0.5636838204730239,0.709610568826994,0.7566375215363177,0.7652214772861665,0.5356060654618009,0.2616071578814303,0.4367224645045491,0.6715283320820413,0.9790907657634005,0.7930463772796319,0.8272366850549133,0.8297711736881368,0.6935764236018418,0.6612296330711889,0.515294939373546,0.5932361610384911,0.551322027999892,0.2224399585995731,0.2410269544185173,0.4989644322170994,0.7556382641192503,0.9442347517037577,0.660330525917745,0.6933120609805172,0.5973235506495724,0.6298521047669619,0.6951131607748238,0.6933362392097999,0.7051145532589276,0.43907725975108214,0.2647188179363651,0.4861924584393389,0.7043199700913219,0.9693448959846114,0.7308962550989202,0.7453184972210547,0.6186552714708169,0.5261430028045719,0.6220559846164413,0.6011130422423818,0.5508565820423703,0.26867654129257623,0.19180220536208914,0.40405862729263564,0.58406833802582,0.8284314783423401,0.5586050032746286,0.5801726831375325,0.4650260969243254,0.41194304943567595,0.48763178121051975,0.41318484067352124,0.3156851134901344,0.19677974072374305,0.23628400186398402,0.5304451614066918,0.763453523622764,1.0,0.7465390011739075,0.8477818261646899,0.7272594437704889,0.5892243897226548,0.6794779029410059,0.6841378389553707,0.5853897135631447,0.5526862582791177,0.5334587548285175,0.426517245474229,0.5539617342592642,0.6962952538281293,0.5315761773998275,0.6948354702560264,0.5401242457548063,0.39992955133288177,0.12416197128106576,0.0,0.15350526965992906,0.26470098186394253,0.3402139111721558,0.2841996109569407,0.23499576948243828,0.4089630828695192,0.35153778684482884,0.46070209528940964,0.47351864435302016,0.2905977848268244,0.09581895031747889,0.014213383866712004,0.3354580072558928,0.4610312547494022,0.4813865438481919,0.41148892313704355,0.37597438933646554,0.5742316230276732,0.49154425251480927,0.6167574578786237,0.5729399307522689,0.36231799827105604,0.11945006844795225,0.21004208013391112,0.5245564736822628,0.5519446980004616,0.5415037381850851,0.4848221142110942,0.43925321006557105,0.5421216647637115,0.47732753680805295,0.6455897540387179,0.47205630528997666,0.2513286518175102,0.01306237593922921,0.2011235174151338,0.4571189614778195,0.3951138745209173,0.37832206991392336,0.5158832013327546,0.5640702053257955,0.7051340156529529,0.5560265571792842,0.6860318025115495,0.622984697647956,0.37411929410188627,0.1362228256098046,0.18356396648283324,0.5228020025393958,0.584435550577977,0.5644357225243128,0.48075694624815846,0.3707162625745708,0.48826766120951515,0.498298482556903,0.6392622772957495,0.4667506535342243,0.3614747615531648,0.10978216190895473,0.20739780829298393,0.5210113972490644,0.536929202266518,0.52453280515169,0.47787452548039955,0.4220797167269046,0.524053430423165,0.45438240856251966,0.6108734765461428,0.4822355982891251,0.24038041400907328,0.015332650326238095,0.19410981259878035,0.4436756013059977,0.41752731812479027,0.443934020749416,0.41779701822359794,0.3299922640222954,0.5769820386284934,0.5722749226078898,0.5250843381115509,0.5614503526641084,0.3777726232434686,0.20737801361023545,0.11345592036703822,0.43235114568059885,0.5590671952754986,0.4919035531266509,0.4425477812524852,0.3428936199930779,0.5154493847561339,0.6495146667336478,0.529204432563156,0.729610866372794,0.5175934071785866,0.34968550802007403,0.1233155534066177,0.20917833864406488,0.5054726944809742,0.5206870651657605,0.4808239607237166,0.360768158794313,0.30900505900770714,0.5417080675354127,0.5348973362095961,0.6409421942533449,0.622647616905013,0.3533722376026489,0.15177591317544836,0.08310868500523805,0.4159687923230875,0.5472591584558266,0.5131232647489252,0.4354995923024978,0.34202293480812296,0.529213623835993,0.6650436261281936,0.5534244564087105,0.5522001791578051,0.6453855947780758,0.6968544934644187,0.6482152053621073,0.3138347677869695,0.2545319108695474,0.45040828384931686,0.6985369890201705,0.9697576334675606,0.7131510186246715,0.7177621166064707,0.5579050038508795,0.5046983285312088,0.6260214502915886,0.6693278939895375,0.6917667409389354,0.4681601901963459,0.24133630735323308,0.44324583624794567,0.6495387505326571,0.9657860391642936,0.7837193579265662,0.7892120468264476,0.6936060660837633,0.5193398656910588,0.589481350656766,0.6232701384937531,0.690541485493255,0.6859146661354707,0.3988000159044427,0.2592497176965547,0.46372478538115836,0.6739427987409847,0.9302921025298527,0.7069259709561244,0.7727834668006075,0.6158143260759656,0.5248782883469119,0.6079644091225589,0.572406121002567,0.612392411736983,0.5119417318777977,0.20032054075440442,0.30108587899096184,0.5561075587145199,0.871897560166162,MI
1.0,0.8845879167591464,0.8386584089155122,0.758430216672179,0.6433201806226561,0.7068338608062454,0.7760227246182456,0.6417149372078998,0.4941417315351783,0.6791456806331393,0.8316596546427493,0.8162164589646252,0.8589322761738873,0.8890577695713209,0.8962998734509771,0.8925785499390533,0.8337498880927343,0.8788955885195839,0.9527176279323724,0.8310220346975239,0.6189446672454473,0.6812173654645319,0.7590977316620453,0.6657406300358326,0.6584420749378652,0.7199089934192069,0.7436439061224782,0.7478398483286992,0.6649334173978048,0.7191247131662861,0.7947244124875603,0.660558483681726,0.46043611489451003,0.5876832469349655,0.7887071080733434,0.7847429487481978,0.7687678414965451,0.7947084773805424,0.8002343146138464,0.7831806900446119,0.7151394145112462,0.7256103783112973,0.7561915965435473,0.6098475303702093,0.5363712162435801,0.7328881570002668,0.7670940750766053,0.7305495691068129,0.7804657541232953,0.8024146857633576,0.8176318451706326,0.7613667250622387,0.6958956488131964,0.7790254209526102,0.7744324028988556,0.5836508295487657,0.5440665091937436,0.7574482725442362,0.817638155121823,0.782325218941625,0.8195990211814295,0.8270399567068518,0.8205179800928402,0.7828250942757851,0.7124279653859984,0.7724318480549364,0.7421257857474475,0.6081103156176522,0.7505125902465444,0.8437527476809361,0.8112861588475799,0.8687372854960003,0.8663353807791112,0.8195508569895376,0.7532230550085321,0.644404931290983,0.6538860880081081,0.7174184312947813,0.602696484561769,0.4699656535247841,0.6500251894905549,0.761585449631325,0.7243824284169857,0.7541166514199484,0.7524938818628131,0.727991968192399,0.7028832415210122,0.613883151482997,0.608044157093292,0.7652705867667318,0.7744026940938635,0.5974384751886865,0.49088443064073745,0.6914726684375037,0.792330805876887,0.7517625248684112,0.7594036770990624,0.7317520766665291,0.7091782342867119,0.7298902665596232,0.6970845185630843,0.45352429070071903,0.19894267146388572,0.21272783190459194,0.47491496429518826,0.705164238427654,0.7342001122383801,0.5797343349910666,0.5563884743128202,0.6589233265746761,0.6917548892340082,0.7147558627489896,0.7228871277375237,0.6775481823157801,0.705812673859705,0.5877073001403517,0.3150268335851066,0.13466482352110293,0.30865317391610453,0.5690197974290914,0.6729974565408785,0.5977669121264839,0.619967032336572,0.7299195708447785,0.7960210480848544,0.8357798319534153,0.8100420350251776,0.7663865208687906,0.7892093650743122,0.5994145918022558,0.32188980827757147,0.26286330732002333,0.5069502723895467,0.7208826510784818,0.7259310732072608,0.6719120476846696,0.755330274955704,0.7888336197746597,0.7947655519873555,0.7841282230409292,0.7397366022406129,0.7777764311007143,0.6594113976618288,0.37959871445050714,0.16086553857830094,0.2898597521692539,0.5629771228562477,0.7491261759595211,0.7118664855353243,0.6636435709371433,0.7550077496596588,0.7816924291288132,0.7633722877267131,0.7361507316348179,0.6870230864052067,0.7335882327750898,0.6149249655837914,0.3563705143966221,0.15025155906678783,0.2763545575649495,0.5470289736667371,0.7169028250663507,0.6917223244181216,0.6789164202933706,0.749336663877805,0.7679116191693263,0.7623721818618032,0.722479798890338,0.748328084917953,0.7026653251361379,0.44913069220518825,0.21160346142164171,0.3033450666188506,0.5729953749134953,0.7524502468398613,0.6973710876956416,0.6177917615684498,0.6959246712353151,0.7110939056158911,0.6896123018212088,0.6401694534404279,0.6008136620363185,0.6759204565108383,0.5854710453965237,0.33653479805565284,0.3451041022182541,0.6088531816442719,0.8506132199394654,0.9004945171704315,0.802571210567206,0.81872296396138,0.8658736522909007,0.8606175854435496,0.8470578435520748,0.7850126014034002,0.7881566500624357,0.6835542789675051,0.4094509357540404,0.19822478594440324,0.3365069287445432,0.5936666812107749,0.740119075917397,0.6667601086473836,0.5983791782180135,0.7136234645218296,0.8033584023867262,0.8410381190839693,0.9388842742324988,0.9193212809350704,0.7907202524961647,0.7073213010477062,0.648504574284926,0.4724782558372776,0.2284157691211613,0.0,0.07589108008799256,0.3422112280918605,0.5983410089639016,0.7057184619718335,0.6099319639330092,0.5983961949119974,0.6826734126206611,0.7263793003445094,0.7625606142291654,0.7497813548203016,0.7496516549213499,0.7632939019793348,0.5474113940308722,0.27371834659258093,0.2389901801659488,0.48444872532260147,0.7220132725043542,0.7667219255997821,0.7579695250732301,0.8135604364389524,0.7209524839933976,0.5462244158235299,0.6744131279856609,0.8260116202836536,0.7856263482926282,0.7904732344493326,0.7923148450588418,0.7521908307850371,0.7114157020310949,0.6347397080500687,0.6728036188298061,0.7449807681562921,0.6207947752740399,0.37740351103641673,0.33292456490892003,0.5588637188570227,0.6946114708911391,0.7586210251222469,0.8424421795725161,0.969962227694215,MI
1.0000000000000002,0.8961678186954718,0.9044835681986692,0.8322471059480467,0.5620572416595984,0.44654923947531233,0.44089285171112413,0.37644415093404593,0.27191999563812463,0.5454367701528018,0.8074975403883775,0.849803297722479,0.8294439128990334,0.8544977246892318,0.4758276485468216,0.21938729620164432,0.5933810545064477,0.7299995632820664,0.41577110407878326,0.2663644307514488,0.5544424564301542,0.7102954703550488,0.6649352248386957,0.695259414027835,0.4848485907254647,0.03818108051267477,0.13355863571252669,0.6099227044091249,0.6758224367569852,0.411677053307421,0.5084263604726826,0.828212194294278,0.9074873343533889,0.8309577839773661,0.7966631683862373,0.6704902223312084,0.1986525606776377,0.15418615314957318,0.599883559774844,0.6490286443462054,0.34275877633504104,0.34037712750576676,0.6343100722581985,0.7290154701073488,0.724444715341712,0.7619519045947392,0.48515042964505106,0.10794827580654243,0.3676829253353955,0.563807501224038,0.2834935408164849,0.11235975745915994,0.3985935474832518,0.6768272387399621,0.7949400743276824,0.7858039597735005,0.8036027033567563,0.4976531784320819,0.05502539900999359,0.17081039097098216,0.6037653507070335,0.5662375275995903,0.3075559938123851,0.4548171554666891,0.7338090203967116,0.8016309611266748,0.7500862906293515,0.7273584193796927,0.3349216044121326,0.0,0.33588967280627036,0.6208596125901169,0.3944031978782172,0.2385040815492685,0.5278712386077646,0.711281253017271,0.7219083000543856,0.7337382718306718,0.786771759600571,0.4391419048694467,0.12274423702304227,0.45745690714204,0.6612327256244812,0.41340122469738594,0.3001255228406836,0.6018020471257732,0.7726735032235352,0.7778842976530098,0.7349807142491447,0.7554543168350303,0.4236140297317903,0.04061233941087927,0.3139140991876592,0.6734925033552492,0.5070857378855642,0.3122982863854291,0.5598236904006846,0.7698365943827474,0.7493019285542661,0.6779802571343996,0.7151638573104766,0.5917260005977691,0.1641353136262178,0.2882351651756112,0.581619241667023,0.3682960995400888,0.18102032563080805,0.45023946693727646,0.7097534523342015,0.7659959682736404,0.712989872929221,0.7299834758438213,0.43034697553569434,0.004286828283722288,0.21669031233472524,0.6168952689291767,0.513722289716043,0.28653563636203594,0.501227361347522,0.7650137876043857,0.795247028170124,0.7202295586861538,0.6905287776948275,0.2858461786268105,0.004146412377770137,0.3770854432771309,0.6364497705719552,0.41884364567360954,0.3474016426676043,0.6481241310532619,0.7880690109348205,0.7430292286115676,0.7445219426696152,0.5497019332075632,0.14030484282909317,0.33040768027964895,0.568422290908835,0.30319229868527175,0.14962429353909834,0.4555996460578311,0.6887125333195796,0.701358605871049,0.4215835198993638,0.21694212927389533,0.48616502955221375,0.6817472311393449,0.5722854953899206,0.8116764752730596,0.8429525643717326,0.8024410011772536,0.8494304772231478,0.7430970781723956,0.44880113341850625,0.48249054383678214,0.7205053163186339,0.6409819197150435,0.7563574470142698,0.8377211279418451,0.8060844357042265,0.8644065981432385,0.8227219821821226,0.5717082704344458,0.385598554387413,0.6239728448789832,0.7106128907826237,0.6193102795090561,0.8531358979900878,0.7898777068093172,0.8090377770820496,0.7899842086585063,0.5935960686014559,0.2914227614819498,0.4191480834179111,0.6694632030294352,0.5881187346487324,0.7836666097475373,0.8374567270252593,0.7494500449314774,0.8071377066855037,0.8360342727448213,0.661538765908076,0.3971252184805636,0.5746797627995166,0.7702627416391941,0.6533748336653591,0.8556672615734475,0.8430347852237656,0.8159922230638001,0.8381597224461108,0.801884874362637,0.5435989175919265,0.3724202431843435,0.624594620378083,0.7739210152980116,0.6621130495788747,0.9024854808209029,0.8514038534010628,0.7891759685841409,0.7865689883816243,0.7348048678202954,0.4451499763043245,0.34273297504612077,0.6271161153844667,0.6694964960865348,0.49867244664049415,0.7846739613326108,0.8407519696966907,0.8298838626020182,0.8507904850010097,0.7255167369590312,0.4244314988260136,0.45165373827990907,0.7219614474397484,0.6706145404347807,0.596873294889728,0.89165064238567,0.8720126644657762,0.8718079103998451,0.7986651501439439,0.6062994033185873,0.26150116726980044,0.2529334182219316,0.572847256335558,0.6442118579454228,0.4809010706802179,0.7921538638735057,0.8381208812573233,0.7921751408344109,0.7879200266234523,0.6901829814208076,0.4000810598620572,0.45432461346326813,0.7558270117515729,0.728194945949036,0.6179995367145663,0.9113830999434709,0.8810070007000144,0.9038367407500829,0.9561720399892588,0.8323601341466602,0.5185578136162612,0.5444393145212387,0.8005663051656577,0.6909553112843072,0.5341477555708527,0.8016621900185921,0.7521012393029942,0.755710749064854,0.7607006434349584,0.5287843027491086,0.3498751899408328,0.630347530390565,0.8719459106837963,0.7356900362446306,0.8857391347970707,MI
0.8964160292943948,0.4201370207175743,0.0720867125083644,0.21061336511362505,0.4066355072431933,0.49674914404362847,0.5985474584745467,0.6057591052683744,0.6107023829756675,0.67517465860975,0.5973348813164354,0.3421581357707266,0.2958566479140958,0.562043961922388,0.7969131544155017,0.8660669696021324,0.9386689845006262,0.8916207510352301,0.831047156788189,0.832478454281194,0.7195940742322322,0.47620338871380774,0.27432315955051534,0.45217599596941493,0.6155051673444389,0.68072300160871,0.8186873464592304,0.7464082785134631,0.7139512168110622,0.6871954512403757,0.6183873102368209,0.7106511919048031,0.555092241787754,0.4747477045485513,0.47650451539265015,0.29499431384592034,0.1640945239641911,0.4180907317717395,0.6406000785080268,0.7430375477110944,0.7113426499321798,0.7962860685794046,0.7933677190942143,0.680949925373866,0.6951196170376894,0.4751711349704726,0.19915218526289014,0.19322706185561156,0.46141335440298414,0.5649380335472949,0.5213553967049065,0.4876058963529597,0.5104062486008201,0.31626468039098565,0.35530709961186124,0.21894021819388154,0.0,0.022661066179751277,0.48019889628538825,0.860966378871475,0.8209404279746271,0.7250330753504501,0.6983804652697971,0.7915404747102692,0.5885296016142312,0.5839591654345782,0.516398158709805,0.3038288475626598,0.19733239192343177,0.4668632651866229,0.640493491619087,0.6231202487474725,0.5523223942789492,0.6437739220985828,0.5507302960490272,0.5085958034775864,0.5177061720537623,0.33178824516360317,0.20052357173360047,0.44604003052254093,0.6357989040188707,0.6079789258136938,0.5444628846021238,0.6419593376212664,0.5609162301255854,0.4224269803980527,0.4854075874893593,0.3192593201311049,0.1570619346163622,0.3622867891699517,0.6065285861261032,0.648809085868542,0.5873352521434638,0.6197884778396725,0.6181644764118581,0.4456915219384445,0.4960673492085932,0.36707351123638254,0.2066402334837374,0.37206364666669733,0.6339408195532443,0.6903820758539818,0.6318462676598555,0.6681203268751346,0.630707592631433,0.4797336055367527,0.5758540334024342,0.45063551800694945,0.25057666860908556,0.334440558603895,0.5982817433283119,0.631543770972308,0.5746883094172683,0.6182952901902277,0.5654267147031966,0.4155437961217854,0.4874074893326834,0.33784209723389624,0.14258391776666635,0.3069482621326478,0.596566761417999,0.6753476947508523,0.6541577704274517,0.6747163942893502,0.7302700901417531,0.5027283714635913,0.560786894477955,0.5004277823108367,0.29077826794761874,0.20977695569519605,0.4823324669178346,0.6348019958993203,0.6160585601453459,0.5811742054109841,0.6645893801087253,0.523748970643938,0.5166569152684399,0.4945707237124979,0.2915309239847623,0.1557429971674491,0.3926945683333236,0.5932154437537402,0.6003611917656242,0.5553433047897895,0.6510424859329893,0.5181658683607973,0.4588266087949946,0.4740288454662145,0.306057049105104,0.2098993996152454,0.4768640854668451,0.6661762918287839,0.6743720769037078,0.6083591305219245,0.6837019470925148,0.5663769128547513,0.49149521782583694,0.48877107207607073,0.40626741062423877,0.547858910729278,0.6547781918019906,0.7140280066946119,0.7987411846099661,0.7167167142881361,0.7674093190818492,0.7686433495866174,0.5946245493656304,0.32789118462847844,0.4194815127724145,0.5878796475467025,0.640240344101977,0.7524945616061363,0.7195535326754756,0.6706177958052502,0.723434489999542,0.665227545555811,0.3962956027241056,0.3167782636226213,0.5250515386067951,0.6725823686907004,0.6752182768298423,0.7731591686861985,0.7117355347757344,0.714517936061978,0.7510130751764654,0.6397336781872509,0.3641934380691989,0.3932606389153155,0.6011144248497233,0.7257752105133939,0.7329517646684036,0.8679634509173657,0.791607056705034,0.7595330547949497,0.7881156146475186,0.6880151917328239,0.384678444810604,0.2944425704498079,0.5051433835929617,0.6410609893298118,0.6806406757186765,0.7524944836162875,0.6951147393867387,0.7155303632270162,0.7497206102067322,0.5946786394568453,0.3507460696580851,0.4734381113693904,0.6502000135180319,0.686279750021491,0.7591874821564968,0.7833365494374687,0.7335629620355171,0.7986219885935371,0.7694357101650451,0.5918820893195411,0.34222333448879594,0.4432055102588688,0.5944913469326734,0.6458906160754552,0.7472669675221719,0.7139522849101754,0.7113854697308377,0.7560008531462881,0.710277316980128,0.45987725268905777,0.2898050015042859,0.46811947482353666,0.6263375224557,0.6563065476584824,0.7721480399245015,0.6946908470996322,0.6666554357896182,0.7360515771670801,0.7079283806007446,0.44556781341660345,0.330368956102129,0.5267598959457551,0.6767517171691253,0.6804315699524124,0.7570249638807325,0.6675442680419406,0.697517128629066,0.749419649356132,0.6803722770206058,0.3990894260976643,0.3582872040697729,0.5714401660540522,0.7397712604560795,0.7805029186857899,0.9112921303883788,0.8421318347372173,0.7947812114401098,0.8930131258406186,1.0,MI
0.9999999999999998,0.9570430471950921,0.9310982438470417,0.885437366203961,0.8868593176069197,0.9011237768197162,0.6444411252628472,0.531044791998645,0.8147249348443832,0.9785244093604673,0.9324450853984483,0.9180891634838844,0.8773988784237821,0.8872157146516337,0.8798633423677704,0.5940209618737609,0.38035510370530917,0.6439012874424843,0.9465943097932474,0.9409689553273339,0.9151885582658137,0.8896791941787818,0.8740159658951603,0.9115606299127834,0.6904962507734087,0.5056037789381349,0.7767540325037054,0.9797479255412294,0.9311929048292751,0.9286871795289791,0.8877308035564537,0.9164384870544018,0.8965566041128017,0.6196424065770649,0.5386601638498034,0.8558854500658508,0.9852119375086703,0.9435742860212832,0.9345734419749157,0.8798175918647664,0.9187561960870827,0.8437847623541397,0.5992370338004276,0.757741633521837,0.9779850633920049,0.9090930307823968,0.899217195679926,0.7307333595585561,0.35675039328397723,0.02578718187226542,0.10646928787090054,0.4787655920712928,0.8106937164388635,0.8730562753381703,0.8453341057174708,0.8984640271323114,0.9043862933279225,0.8892447958551835,0.6537781414583186,0.2660894001633061,0.02500926906543105,0.26858185012311214,0.6433971267659169,0.8783006762995151,0.8409202695515388,0.8613671293435932,0.8948281116969161,0.8911695945324545,0.8017197519516253,0.44549050555058606,0.07713423547306492,0.07182357184696647,0.4303422445153568,0.7752760197074349,0.8698611626038533,0.8312619181252772,0.8735498260378138,0.8807898364573603,0.8974649222164968,0.7393902558104022,0.3599336378680756,0.02390479324535061,0.09690755913067611,0.4669186111275541,0.7993477076655497,0.8605751486812618,0.8343571761935926,0.8828981979647628,0.8897681663483279,0.8869218309344096,0.6898742552185659,0.30531450933817755,0.008324853063727655,0.1840902051826056,0.5622325732836071,0.8496932668286556,0.8449990938289964,0.8523835970565874,0.8997392770211723,0.9167286982836902,0.9121655045628236,0.7216099645134275,0.3381689503287478,0.03443663412590142,0.19821927765620256,0.5741896793175023,0.8590524518532892,0.844105595378458,0.8329043994775087,0.8745729768583361,0.8842693547147773,0.8854733707460025,0.726119109917547,0.34839684849187375,0.030426635053319273,0.15990942145140624,0.5237111996093116,0.8334114080518393,0.864591674037964,0.8528011365371968,0.8950586184613882,0.8962178944989241,0.9000599768218203,0.7223570841923233,0.33873983602444674,0.0,0.09137511926188852,0.46491967459118416,0.7983150540036568,0.8617856843094178,0.8297892525351962,0.8835482568012223,0.891922094891126,0.8876445028357456,0.7203389068889912,0.34072705266238285,0.00626359227645118,0.10992768692453453,0.48393155675910465,0.8067093217345394,0.8501591152928853,0.8345819837194228,0.8866303918770859,0.8933757557694546,0.8904446580564165,0.6938860903933255,0.3082830774233441,0.0013176550158456868,0.15879087753425153,0.5363073323281877,0.8393096079022611,0.8498332402375073,0.8342550806169866,0.8764341082904274,0.8871251701144336,0.8948074876290646,0.7149200073177995,0.3311970457649382,0.0022421804012630053,0.1168870829570971,0.4919614410906796,0.8169512598237283,0.8629819078374319,0.8405212670491127,0.8855124215309838,0.891036660252392,0.8899693623534624,0.7368080681840652,0.3969855725918509,0.048086124279871745,0.019421057803644615,0.36315009723404296,0.7235124449518229,0.864627041178524,0.8156496073008317,0.8536224581951433,0.8576187216272564,0.8641562124131796,0.8372407930669508,0.5063185578860923,0.12180954871495603,0.01615265336711763,0.3340195999381728,0.6998698412577598,0.9147766249929314,0.9006053016250235,0.961178095677029,0.8107562201338467,0.5698379489547372,0.7712333403130385,0.9850401453296878,0.9050609289617897,0.8910724722062495,0.8825215558809529,0.8540166136099934,0.9061748363445841,0.7362161952579604,0.5108789070789941,0.7407871718738177,0.9695053618604446,0.9326775943502978,0.923264090895908,0.8969437559243536,0.8764161077132899,0.9134690322892189,0.6896056185697297,0.400827158667929,0.5594606946188259,0.8877070338382809,0.9698250266303929,0.9263482052819496,0.9086794839633621,0.8680119526230121,0.8918837995172737,0.8786497233017154,0.5911999346352546,0.4331828989582342,0.7348641573083912,0.9778069966987228,0.9416785664633789,0.926093259393995,0.8925592223756214,0.8703181405637919,0.8986789577938372,0.6695580794961258,0.4817942902764993,0.7547569166791372,0.9778396227738735,0.934877730845938,0.9296464588299185,0.9006047807441726,0.8711493182171899,0.9116327302763374,0.6989787414621254,0.4909943545595174,0.7453331288069127,0.9783544883626905,0.9415080264399873,0.9309980851594282,0.8960763956467299,0.8943474670759173,0.9190205879893893,0.6838528858053745,0.4570159363927449,0.7003960417396364,0.9699254313771724,0.9401914370308873,0.9239294280524215,0.8991524926787646,0.855027605142836,0.9184958124804588,0.820837359575902,0.517966359008541,0.568802681301305,0.9048095599878312,MI
1.0,0.7043501893278377,0.5670808021151583,0.5508917242825535,0.4636862069785672,0.3330389388593331,0.17512245715152108,0.2219230149532614,0.5498387638626161,0.6880642509031769,0.3741131066462744,0.17673778200578627,0.09662580952476119,0.1345174314412143,0.1570436037377161,0.1220867275701425,0.26113065115034484,0.5847572656095996,0.831567135429633,0.5924601302385242,0.389048789013249,0.3478598642789663,0.4082403590424015,0.37997321201978473,0.2532489681990533,0.32225334610542045,0.6503530297803981,0.8562375083620521,0.5846330990175896,0.38350765908012385,0.3137248113219977,0.34549653684405346,0.3152288923343476,0.24849401092230772,0.4191875204250739,0.7797314256992252,0.8764055507700177,0.558041536359517,0.38933568017098086,0.40553869854745006,0.47244570075164205,0.3592889065414606,0.29271092054093617,0.5275549613567396,0.8311187642519466,0.6853689868249964,0.4086381072507461,0.2883528779253808,0.2848631195233635,0.19759745892583847,0.047812906261287313,0.14025449812308732,0.44968483924669544,0.7740757570140735,0.6134587940741736,0.3362682671305979,0.2848280700214203,0.34159044011148665,0.35127886242921824,0.24504283391827753,0.06588902480389791,0.153416960421767,0.3037144284772,0.2851548380392497,0.19781038881314483,0.20737733092109223,0.31783038024487675,0.4485199357112639,0.17965071701422364,0.0,0.05501266033304564,0.20533832170018518,0.22347476833006907,0.2549703174200124,0.30909333006063067,0.5598518994824004,0.539054169004922,0.2722980317706354,0.25572005698389555,0.40711912016985674,0.37929495560840465,0.3010991353147545,0.3247030281275636,0.4293963996818406,0.627081624576362,0.38497381390439056,0.20243419465693324,0.2442871480275859,0.29870958384253177,0.2537608653212049,0.28287277611235506,0.33833160812544083,0.5842875833857979,0.4540897379602684,0.21823557557025963,0.23366906039404234,0.35020712404999266,0.34654675388733036,0.2655330927615025,0.29832270892971935,0.4399448877616001,0.5314865400317563,0.2470144095529032,0.08116291847435009,0.09932840546774124,0.09430014453177837,0.04866781143507759,0.0655854122229853,0.1353199851262723,0.37004854550435873,0.30906399832836673,0.11221522193149136,0.17031595187025617,0.33650151987484334,0.45903105310212977,0.48693170177332457,0.5140749853737796,0.5645696602746137,0.8155422045613019,0.7630528158715042,0.4567677195363824,0.30333557062884053,0.3763276648699114,0.4525874776084091,0.411477096241587,0.267712599732882,0.243797678876726,0.5063415736588275,0.46676678241147807,0.19322647713139096,0.156434879924497,0.2911702508391436,0.31733944596260977,0.21080288044718265,0.21272106837640248,0.2621593710143635,0.5151473107989071,0.4208548654365325,0.18912924745477433,0.20809284733575817,0.3139028757553264,0.3133553689577546,0.227319350159344,0.19537882395370176,0.28543168902912797,0.47811040981002617,0.24676919358570348,0.1018932005383486,0.18030687706895576,0.28131001664896993,0.25905611857120725,0.298915412648459,0.34315359743455076,0.5894751181865154,0.49786898832438853,0.22854975291614132,0.19566484565339515,0.29622703435638886,0.2647029022649523,0.19049671205106544,0.22139472072608912,0.3821376334768325,0.5093152594606365,0.23010168624013305,0.042435063708298415,0.102493737027334,0.3230525636802384,0.3657781661022872,0.3524405311204677,0.38806671917104896,0.6027892970907507,0.5606371616663788,0.28704910152085006,0.1845464953314364,0.2724780686965682,0.2702521980595103,0.2291682697040891,0.2846362307397061,0.46863754297716653,0.6204223162798139,0.3448091085603242,0.20637024339782872,0.3160929679966056,0.3966733945194869,0.31962829675674276,0.30963487482486896,0.3282652894941023,0.3817988638541707,0.43657689828674506,0.41710793685731606,0.2779791142130468,0.326303331549318,0.6476049613461419,0.8554690605159734,0.5716884065354686,0.368745358285963,0.29871691638693676,0.3392067812769166,0.2858430654930557,0.2526099623513345,0.4563179907768218,0.8103847325269222,0.8582251529538873,0.5544887327425323,0.43285953715485026,0.4254096793588613,0.3709562363146681,0.15538265530665596,0.10371877975989663,0.3197086390766657,0.6847983957732049,0.7780277279055117,0.4592061034670558,0.28730036486644894,0.30919677663367984,0.3513707712766798,0.2582836263277819,0.26706248684739675,0.5519676848305755,0.8513086414304167,0.6682209076647492,0.42597991337030705,0.32395986583974046,0.3378430536582069,0.28694865745396103,0.15583443148880427,0.24285905717644796,0.5725739001440608,0.6963518995357527,0.39385617520230576,0.2892097040695911,0.33008018129804473,0.3673531972260591,0.29450667424643795,0.2168277490778654,0.40303477732282045,0.7245398910484238,0.6093634215043777,0.35353340613803974,0.26428674909741257,0.33289174870983373,0.3714991522457971,0.2930987243174441,0.1957822636579467,0.38331155107537707,0.731187523876359,0.6897642909551747,0.3887500752271551,0.38131988590001553,0.49490754324567465,0.48738949364830075,0.3831662751052427,0.38840633232879096,0.6284890199496707,0.9809712522569103,MI
0.8990236847641726,0.5816401009174119,0.9033339062410173,0.910553506129697,0.7754122198253426,0.7695931233195141,0.6997493779984856,0.594878064460707,0.7524970955810688,0.8805454924953247,0.5456765193910598,0.6390304554145394,1.0,0.9345027748667367,0.9913171878227507,0.9404674613413011,0.6448190791236446,0.3906715175783875,0.5682190029753675,0.8111799737732786,0.5972938114623862,0.5292056006455255,0.7686133433742532,0.6772850774524204,0.755097271028657,0.7584179111249338,0.6676304301949263,0.5585362203063879,0.7239442587646514,0.8149434361393846,0.42927278622103326,0.6138025489815231,0.948832400508433,0.7835353982577296,0.7860846489516113,0.7953889135197176,0.6076844648203164,0.606608583832152,0.7943917138073067,0.7766545050328921,0.4148956639505057,0.6247256996805706,0.8893535346577819,0.8009384890485105,0.8241780151456437,0.7404524706087523,0.5977634526546254,0.5036143358180523,0.5193523694220281,0.1467869720972539,0.08448357471537582,0.058460899017794166,0.12323929463645333,0.41039153471272405,0.5733291990556029,0.660934875942035,0.600894284065256,0.705245204407523,0.39479583162917153,0.09309073165742454,0.512662276338061,0.6026463617853324,0.4092078738371212,0.436384689708297,0.626261249268147,0.6074786287030967,0.5836178456254832,0.7159465800370937,0.29868963667193293,0.15232778579092887,0.5980385333422724,0.5199423668549894,0.36663235308897235,0.49968105613050495,0.5868762232065818,0.5693479726442452,0.4766960376201901,0.5264170013888063,0.2127280418220341,0.10568448099499195,0.5623194063246624,0.4666023513876323,0.2181347779105769,0.33628311341274886,0.7023513233860501,0.8238147179996407,0.7663832314790167,0.8002049957258737,0.47740619726694256,0.08793577635752836,0.5158485104838317,0.6426212843636128,0.4715906957022393,0.4433650552720785,0.5769383821333336,0.611121368694493,0.6456943087005445,0.7415423223776498,0.31758868874709467,0.36698199080910365,0.7454582292903882,0.6398174306819513,0.4845551156427441,0.5724127214926606,0.6626474023577296,0.596621666512021,0.5506216590322772,0.5356800233641463,0.04837296830467519,0.20060563535929932,0.57350105200317,0.44735705975732465,0.29805057238420574,0.45240231909123096,0.5245370679275392,0.45171771670160377,0.5773073694651871,0.48886091033067824,0.037453460712437714,0.37429706964657106,0.6475651735759125,0.5514179182313135,0.49992010395828235,0.6411630429402808,0.6783434383580675,0.6314249723312688,0.6539603933657827,0.5754295511948513,0.06214939880135484,0.23844826905936722,0.6586841993907449,0.5144883798982298,0.3362888056791422,0.49209284851225066,0.6034887260747097,0.5755120743025435,0.6472222056497166,0.47978125670427696,0.07828657360066016,0.45587854658944815,0.5699199077325452,0.40446596018140335,0.42603068734219685,0.6150839932036964,0.6454082083013803,0.5914984876676836,0.6828971212083714,0.39626053984276677,0.1144563584014957,0.5670076643576993,0.5989987576399356,0.4077829904094905,0.42877780479735295,0.582235796981188,0.6276677405483473,0.5892775568525579,0.6691009314400382,0.25894916883226005,0.16658693064955932,0.5890071470615115,0.546392822709334,0.425234419500951,0.5809867492414407,0.6552989020196236,0.586747941557153,0.6133232563727629,0.470461542928986,0.033275601726106,0.38964290445461813,0.6376036712817994,0.4754859370774027,0.3783510969862154,0.5385462540221928,0.6351667502280858,0.592790485213047,0.6357900214927814,0.39417762305934056,0.0,0.39604496185410154,0.3956015692179009,0.6022392500242879,0.8665757794876239,0.7806099899154479,0.8278737178545468,0.7725759616666892,0.62883186280142,0.6790042281698598,0.845072564513047,0.7457217562352869,0.461448753785775,0.7922640040990467,0.7882488905496898,0.8120165442002572,0.8356957975684134,0.7171473332723353,0.6382401147335162,0.7913786137742904,0.8236151159328267,0.47328757781812447,0.734455920585833,0.8944085149779526,0.7950940588987905,0.8010172905511492,0.6971905681552539,0.5724562439630505,0.7251895213724131,0.912152945287728,0.6582403921952991,0.7073157604772913,0.9317164144166541,0.7818620552005968,0.8347131343935645,0.8154281768394571,0.6746926549604502,0.615709551717019,0.7819214168442321,0.7734313675607756,0.36691641385457974,0.6513229194906702,0.9018247378426323,0.767621434107562,0.8040069409733777,0.768952985864984,0.5875553314732347,0.6184519832702065,0.8534719932193973,0.8320446391324676,0.5176415323282009,0.8113894660978382,0.8239873622706053,0.8602548109076564,0.8881624701081785,0.8381339110403441,0.7000108394446598,0.7884698918216073,0.883523443451987,0.6488203520668039,0.5982566628038781,0.8345302816479845,0.6524103336867553,0.6964196835302991,0.7066192575708516,0.5632910486110085,0.5612235051225691,0.7796703337667208,0.7803087670350131,0.3649517727174496,0.6374778346962904,0.8768163134627249,0.7252664442187458,0.8076522981258942,0.7975359851646715,0.6673987565457109,0.7318107224064199,0.9434220622716278,MI
0.9591762751081876,0.6910058209060659,0.5751342607213554,0.5558275935307595,0.44449358463823696,0.5842106440943775,0.822373054751175,0.6956571028382283,0.5423270393929602,0.6216922789368122,0.5205411795627866,0.5533478670246126,0.7750650285799239,0.7728462449083828,0.6033302502639852,0.650214518189109,0.5664656662999623,0.5476293237284438,0.7532904317052034,0.882873756611787,0.6569261076092343,0.5189517386421811,0.5011351269886006,0.20426400898379304,0.0,0.3271135352911956,0.4861578666102,0.42452825573214525,0.27446050789952414,0.3376081605635233,0.35926855487497633,0.35143302674593624,0.5104847690564531,0.5243362576796979,0.28755748533165226,0.22886076994812043,0.3550368540042994,0.3097514078132888,0.43317663961300346,0.49170388686148137,0.2856619487252474,0.19296616055011828,0.31312958764013654,0.32995539584252453,0.4783526083844536,0.5406191290300697,0.3247959067937902,0.18492476447130635,0.2888460668098647,0.24953734515774784,0.3318411029145363,0.54312061814684,0.5179753755834464,0.2072533454956038,0.1508317823895431,0.3075278910131196,0.2931214781910332,0.4006329526597332,0.39772076442846194,0.20412653224768773,0.147850611550429,0.23369429118045515,0.20976169472661033,0.4245281486129735,0.5656651015145333,0.565512157588206,0.4037039820792869,0.3912905155155828,0.5127118834775697,0.439827870532,0.5547774421763174,0.585534419196589,0.42876989682505284,0.30791822228881216,0.4109223661474837,0.36374016037183177,0.42852993955778507,0.5540176476397489,0.37251771163164404,0.19252014050746347,0.23113065092148544,0.27236370902367213,0.30947001622770287,0.45805475215342994,0.478668297692737,0.2695126598805051,0.24283799505216352,0.3960592203957445,0.34742785189027936,0.44052088735405226,0.5414963261578669,0.39354416024063044,0.2735166032840075,0.33292242865203336,0.3576959752386495,0.4243470580263424,0.5103750284711555,0.4351003199703918,0.2710283008662495,0.2368251201775804,0.3450815044325499,0.29151489674352815,0.4417576546946784,0.41558259019749366,0.27041507589724345,0.27040922462422046,0.3392759752879795,0.29272343616645413,0.4637273072915349,0.5330906510857476,0.3155595591326885,0.19683706435430404,0.33974570454333985,0.3263816488644724,0.4394240395433102,0.610996526252019,0.44092788200527266,0.21472232286308568,0.20767673283008348,0.29713164764884636,0.2841222784213602,0.47585698860329373,0.4842097131558529,0.30960656896610095,0.29114756189761204,0.44381834413617627,0.39416198227378585,0.4917728737437561,0.593222426406169,0.351601001065605,0.17559525870253667,0.23867600275972967,0.20372263800447277,0.3278845180614507,0.5400281585833979,0.40718609913182346,0.2848663947068877,0.3334729107984282,0.3796692983297869,0.32734944219960305,0.5035028560736756,0.556038732107452,0.4085344098303194,0.2942272460828428,0.3765401184433892,0.3224101696181352,0.40114541310531093,0.5487109562697436,0.7409491155386836,0.7803145422373574,0.6129827876875291,0.5704569127837291,0.5909639683472205,0.5695518082404667,0.7535177083954561,0.9285027679705591,0.6963436385391,0.5548034824077561,0.6029783140265876,0.5186384973655604,0.586270636921213,0.8390748972556228,0.7673161679693248,0.5112079582872875,0.45879805532861573,0.44686172246387734,0.444447403777648,0.7059739125404265,0.9572598034897388,0.7541551556253978,0.6520180642580007,0.6931654217017438,0.5528096568075349,0.5826626616284263,0.8773560400838138,0.9163642796900482,0.6358509254671088,0.500142610355816,0.5262705478405278,0.4341506347311923,0.5897896959753299,0.8976531917688346,0.7801005931799803,0.5824041499007127,0.6218995328179058,0.4890873284521997,0.4847795215056183,0.7206438372201345,0.9196609499694293,0.6903041240464218,0.5313298904187258,0.6014807928679988,0.5136724522515848,0.5723691342696591,0.8025020173090471,0.7641939065597181,0.5952489925631479,0.5404062831361673,0.5851521893003908,0.48318076733908377,0.5987475448483317,0.8784781029239195,0.8063051338488587,0.6031182103727288,0.6286685351466317,0.5688366477086189,0.5397861680644871,0.7118295466470443,0.8741883609910266,0.7044813563076286,0.5682902147684725,0.6286320027729699,0.510300082470645,0.5506263348061013,0.8460055995416105,0.8168450354033401,0.5638256144860683,0.5129300612092114,0.5089231552508777,0.44369740827304094,0.6241354758104549,0.9046408799976495,0.755204714825231,0.5956236664014609,0.6569275678244804,0.6197167155800498,0.5975948021345467,0.8113857590928855,1.0,0.8058388926011055,0.706602933099342,0.7806550347688872,0.6719530658542099,0.6831684337234054,0.8716375256685693,0.7809231887502035,0.5296741634941071,0.48297382351174845,0.430448781681827,0.421208121724697,0.5697140521860966,0.8287598017093014,0.6736119886671457,0.5121035551295532,0.5511620372398522,0.4613014483067741,0.40743886677777663,0.609470119821192,0.8013594311742591,0.5878134037445943,0.5076444472662756,0.5480468922917909,0.4419836199699101,0.5681552701566268,0.8967312500997804,MI
1.0,0.9253494628512762,0.9312432827596084,0.8844529481656709,0.8153118320587387,0.585244418492251,0.5899512568346785,0.7201320125647701,0.6918944019243782,0.49027895646348574,0.8100084936436236,0.8939163704526796,0.7558095005045433,0.7826442742569357,0.7790538544616266,0.743582692896299,0.5241306492474296,0.5252193318328522,0.6946154589569011,0.628800100925091,0.5144604048870769,0.784484883666237,0.688730613791849,0.7289901524027926,0.7987196295171031,0.8002722274448053,0.7507462554929458,0.523799283473473,0.5474947760985311,0.6239653583376481,0.47723955442387567,0.33266796361198425,0.7320182389713366,0.7494692345993785,0.7053667775144565,0.7585314299933272,0.7432009176450234,0.6941389395490858,0.49002853095200294,0.509213085824963,0.6423222425656401,0.5212766841634147,0.49433921970846306,0.8206655212863923,0.7257129621542804,0.7318384261737103,0.7289112504340025,0.7197823265915839,0.7410964886268858,0.6090511764962385,0.6270458719851733,0.682141960029385,0.5963902676154365,0.7576458309943446,0.6991396007949584,0.35090364099915083,0.1952977225821919,0.0825515972525841,0.093756532958716,0.4676118164303036,0.5335901677255785,0.4556396933315652,0.5615537297899689,0.6114899666025804,0.5750673241756155,0.6118404029908309,0.5805569849660173,0.5990988974067339,0.45511350133010575,0.09141390911944658,0.34606103621197404,0.48226963119045063,0.3529596215924382,0.3652636029555647,0.5681915572341061,0.6133669952151393,0.6243552649257995,0.5732002108348948,0.6379656660906514,0.3415230411855972,0.0,0.3145983249212927,0.4787533130680188,0.38931347641105907,0.45497025910275957,0.6532015360000352,0.6598053941601245,0.6611527419212653,0.5852264488510928,0.5466593473813899,0.5526176319217306,0.17775255538262158,0.3350937309850295,0.5419950781226746,0.4040602309419077,0.34093255397925093,0.5747120723805308,0.655645055182501,0.6549984806085192,0.6285572954624725,0.6951431767956753,0.35887811635920075,0.15299630820415455,0.49057921720200826,0.5545000737703667,0.40266168642130307,0.510401607029698,0.7120152547312255,0.7666156121138954,0.7999977166992802,0.7424239918766133,0.801641777339718,0.48007503450343814,0.23050401530236897,0.5949123462414891,0.6911608606008377,0.542109053025944,0.3240503220327313,0.34284924134671213,0.38041208124957393,0.4573450607556846,0.4637695067256806,0.5496282273921103,0.55954655929464,0.11935996486465417,0.1692327471737971,0.5167147855528009,0.494928178260571,0.33582326816943686,0.418524687127964,0.6254451294933161,0.6872608649160004,0.7592409873105703,0.7043047210182745,0.6903132014164015,0.6208652317841361,0.19130152792747257,0.32601566135164983,0.5553635482298067,0.4535790804494275,0.3781954184935197,0.5612830533277839,0.5917852174075562,0.5503146925425391,0.6243126036703908,0.6276491483153652,0.7045480065148761,0.353506783581901,0.3903463229870625,0.5910818108025984,0.44549445665759757,0.3895490559483763,0.5792591394896345,0.5914086754635304,0.5918434647041999,0.5799690700389428,0.5565845923507973,0.541715296910724,0.561714875891147,0.15253122981016887,0.14961272833136174,0.4645241903567774,0.46369544378424266,0.3469449689758495,0.43803408572720093,0.6245976547411387,0.6410067261441008,0.6700254146101048,0.6841135456245349,0.6054795863714038,0.6658073025792004,0.43224606552449085,0.06331314290539347,0.34975824367748887,0.5134451558889825,0.39635186001979106,0.47326245426864455,0.684766852678981,0.71486818180971,0.6489922296185564,0.5926126586419276,0.5208427092564367,0.5683881096313921,0.17462363402325654,0.15639460220628942,0.49025691834803586,0.3657366959249573,0.5955897692195329,0.7208739498173076,0.692491116378771,0.7724780732120555,0.8291752290893943,0.8514436540638313,0.6742636980190229,0.5466204734542912,0.6529986040458016,0.6308006365910157,0.4290260473520169,0.756648379354425,0.8240356122209254,0.761632103629998,0.8319085098413463,0.7881105576555183,0.7713807775089867,0.7801288382868949,0.6306140948396819,0.5018233987872387,0.5995907621962688,0.5756960962570425,0.45312718633000326,0.7748894199117498,0.7219219627831488,0.6684393567013949,0.7052754493538167,0.7268377566651205,0.7325538087628307,0.6674384596616734,0.5223481071988765,0.6309934636605079,0.754401454483379,0.6296385238421851,0.8593989435290705,0.8915455820520495,0.7689822781183651,0.7141947591330586,0.6884683381038679,0.7197752645831201,0.6096809170487698,0.494951463202733,0.6459469104596738,0.6570440531958552,0.529027097718521,0.8587595514507576,0.8532688812863665,0.8307085108272423,0.8763016485488531,0.817361032163205,0.7799548482802985,0.6480186566437087,0.4641479333254588,0.6056640392072405,0.6769476590135666,0.45511492155439504,0.5592023878287011,0.8053830471038466,0.6238598811526148,0.6040556357270925,0.5577815409695859,0.5026914392302757,0.4528499864175388,0.602415654317082,0.8054336394760693,0.810304557012504,0.5828641299273505,0.8389371273266066,MI
0.9970111492337401,0.896426930681649,0.939597292729951,0.937101729845307,0.807711801985056,0.5059266060493002,0.6101358323142745,0.903167245189862,0.9987321804092488,0.7478345647222344,0.5602749127413218,0.8967156309147435,0.9094182074480255,0.8541464232012914,0.9232034654011043,0.9077226619158512,0.8378235609132729,0.5448702003328179,0.4914435882781909,0.7965157071305415,0.956712757465191,0.799427630035698,0.6066522206379039,0.9029045519640513,0.897881678735061,0.8906787465377013,0.929593974147036,0.9220880553165198,0.8821206934839734,0.6632348574229177,0.4913171151234197,0.7502234488863575,0.9404317050742677,0.8448300414989904,0.5854537442967609,0.8715920503991286,1.0,0.915699574677312,0.9477153595363204,0.9323059278029917,0.9011972895775302,0.8650653718041164,0.6783296444170777,0.4595356134605346,0.6981603848131939,0.9501118215876274,0.9270334754663017,0.5716544651094675,0.547008123648816,0.914614219933449,0.9195419315077249,0.891622694169623,0.9386907998757272,0.9348530205721466,0.9053947967965339,0.8004422994606508,0.49964664849479634,0.5325440457630202,0.8410988136317763,0.957845981505709,0.7399645854452443,0.5461442003564976,0.8752187392583828,0.9155872862387082,0.8923158280175398,0.9418726071196417,0.9278736456055254,0.9087604959397515,0.8356734685607772,0.5453377390201148,0.4919589692029569,0.798503870064335,0.9639117684243081,0.8923416206484069,0.8380740603365062,0.6379552871262142,0.32551945995112286,0.40349895682421755,0.7102854913884915,0.7874131612213642,0.8076514904120162,0.8216758146157215,0.7788387256435532,0.7882030511162568,0.6842294383847767,0.19212416510145358,0.17446754040546075,0.6436514433052647,0.8202318393979096,0.6563906745670538,0.33627448968703755,0.35496687243985336,0.6752945379463187,0.7874982537772888,0.8137418048463112,0.8138365528080285,0.7661236729373222,0.7785430283785226,0.727914907805919,0.23669845338109186,0.10387281168476781,0.5725875739281903,0.8450713542225401,0.7520917454259517,0.44306280118221775,0.32827534724812857,0.6255220314967342,0.7603304168707772,0.7885367826765886,0.8196153650046569,0.8044950649769187,0.8046562259813501,0.8334537054137603,0.3999583512036371,0.0809427542234018,0.4839671805425434,0.8036211077060318,0.7381509747972324,0.45187688111398217,0.33946202367374845,0.6380057693608032,0.7900059869323846,0.8051189750469416,0.8090187132987259,0.7551749352180424,0.7732108737077859,0.7018095189841862,0.20535227168269277,0.1308362143046531,0.6073170824016536,0.8186530892277251,0.6618829921552103,0.3498071825204834,0.3767575694272711,0.6917559982732802,0.7889273666643182,0.800632187616463,0.7468401445690183,0.7638699826355708,0.7121871518125307,0.24282565958682678,0.28045005272400525,0.7374867557890674,0.8619413277079677,0.6673924545129424,0.36222383632755406,0.46721714304219564,0.7579635980339998,0.8197824319198324,0.7906461451129387,0.7795220855449134,0.7627509453848487,0.2931440301095778,0.1506743287504877,0.6120447977261891,0.8487063506508954,0.709387475880821,0.38305176087838877,0.3431847403420605,0.670238160471011,0.7866380390230452,0.7925548771113449,0.8104468916154506,0.8140170857927655,0.7964411337426238,0.7571888622716298,0.769754749060414,0.361522997119176,0.0,0.3734291863039676,0.7730586569576103,0.7991768908699033,0.5561158737902661,0.31389569269649975,0.5167195458503495,0.7415687699082416,0.7791251995807964,0.800782840121157,0.8053548963149901,0.781587893914653,0.7691695782556942,0.734986041039007,0.2673873054285516,0.15800146001900606,0.617689060203785,0.8332991783191748,0.7210736659294494,0.4039526575754575,0.32274771920099843,0.6426864466200843,0.7905630408992099,0.8061044805978774,0.8110040503346272,0.7851953578046551,0.7372950724309781,0.7939829041834554,0.5048159048535399,0.0762307292081168,0.3613273227589424,0.772266895661049,0.791044429653367,0.5209288122073814,0.27274570625826033,0.505392248937091,0.7564644092764872,0.8560784749708779,0.7978818205032736,0.48080751901083474,0.47361271875286626,0.7973650859857453,0.9667133654903983,0.7977065316045002,0.5082199003166217,0.801353911434334,0.9203673814512516,0.8789986730536699,0.9095104069867386,0.9285703797488969,0.9263386729585563,0.9046007446651569,0.7047600210457228,0.4325379321907934,0.6277903644948917,0.9057828692217065,0.931253585970091,0.6469667714805931,0.6913717611400227,0.9379130206918687,0.8741407870720623,0.9174158286237581,0.927419549447384,0.9160303789865325,0.8860326609855607,0.767976864010544,0.4859255958203841,0.5936282840352587,0.8693794816552614,0.9640188105045984,0.7351052825248927,0.545942397369243,0.8732650885730657,0.9123155477248162,0.905653164533752,0.9416138717226765,0.9305928543668571,0.9174561478532328,0.9081360211495144,0.8976912519226685,0.7225770651338412,0.44338239532253976,0.6453958678466272,0.9212722907843114,0.9666960062692627,0.7069364888573308,0.7913458378606895,MI
1.0,0.8845879167591464,0.8386584089155122,0.758430216672179,0.6433201806226561,0.7068338608062454,0.7760227246182456,0.6417149372078998,0.4941417315351783,0.6791456806331393,0.8316596546427493,0.8162164589646252,0.8589322761738873,0.8890577695713209,0.8962998734509771,0.8925785499390533,0.8337498880927343,0.8788955885195839,0.9527176279323724,0.8310220346975239,0.6189446672454473,0.6812173654645319,0.7590977316620453,0.6657406300358326,0.6584420749378652,0.7199089934192069,0.7436439061224782,0.7478398483286992,0.6649334173978048,0.7191247131662861,0.7947244124875603,0.660558483681726,0.46043611489451003,0.5876832469349655,0.7887071080733434,0.7847429487481978,0.7687678414965451,0.7947084773805424,0.8002343146138464,0.7831806900446119,0.7151394145112462,0.7256103783112973,0.7561915965435473,0.6098475303702093,0.5363712162435801,0.7328881570002668,0.7670940750766053,0.7305495691068129,0.7804657541232953,0.8024146857633576,0.8176318451706326,0.7613667250622387,0.6958956488131964,0.7790254209526102,0.7744324028988556,0.5836508295487657,0.5440665091937436,0.7574482725442362,0.817638155121823,0.782325218941625,0.8195990211814295,0.8270399567068518,0.8205179800928402,0.7828250942757851,0.7124279653859984,0.7724318480549364,0.7421257857474475,0.6081103156176522,0.7505125902465444,0.8437527476809361,0.8112861588475799,0.8687372854960003,0.8663353807791112,0.8195508569895376,0.7532230550085321,0.644404931290983,0.6538860880081081,0.7174184312947813,0.602696484561769,0.4699656535247841,0.6500251894905549,0.761585449631325,0.7243824284169857,0.7541166514199484,0.7524938818628131,0.727991968192399,0.7028832415210122,0.613883151482997,0.608044157093292,0.7652705867667318,0.7744026940938635,0.5974384751886865,0.49088443064073745,0.6914726684375037,0.792330805876887,0.7517625248684112,0.7594036770990624,0.7317520766665291,0.7091782342867119,0.7298902665596232,0.6970845185630843,0.45352429070071903,0.19894267146388572,0.21272783190459194,0.47491496429518826,0.705164238427654,0.7342001122383801,0.5797343349910666,0.5563884743128202,0.6589233265746761,0.6917548892340082,0.7147558627489896,0.7228871277375237,0.6775481823157801,0.705812673859705,0.5877073001403517,0.3150268335851066,0.13466482352110293,0.30865317391610453,0.5690197974290914,0.6729974565408785,0.5977669121264839,0.619967032336572,0.7299195708447785,0.7960210480848544,0.8357798319534153,0.8100420350251776,0.7663865208687906,0.7892093650743122,0.5994145918022558,0.32188980827757147,0.26286330732002333,0.5069502723895467,0.7208826510784818,0.7259310732072608,0.6719120476846696,0.755330274955704,0.7888336197746597,0.7947655519873555,0.7841282230409292,0.7397366022406129,0.7777764311007143,0.6594113976618288,0.37959871445050714,0.16086553857830094,0.2898597521692539,0.5629771228562477,0.7491261759595211,0.7118664855353243,0.6636435709371433,0.7550077496596588,0.7816924291288132,0.7633722877267131,0.7361507316348179,0.6870230864052067,0.7335882327750898,0.6149249655837914,0.3563705143966221,0.15025155906678783,0.2763545575649495,0.5470289736667371,0.7169028250663507,0.6917223244181216,0.6789164202933706,0.749336663877805,0.7679116191693263,0.7623721818618032,0.722479798890338,0.748328084917953,0.7026653251361379,0.44913069220518825,0.21160346142164171,0.3033450666188506,0.5729953749134953,0.7524502468398613,0.6973710876956416,0.6177917615684498,0.6959246712353151,0.7110939056158911,0.6896123018212088,0.6401694534404279,0.6008136620363185,0.6759204565108383,0.5854710453965237,0.33653479805565284,0.3451041022182541,0.6088531816442719,0.8506132199394654,0.9004945171704315,0.802571210567206,0.81872296396138,0.8658736522909007,0.8606175854435496,0.8470578435520748,0.7850126014034002,0.7881566500624357,0.6835542789675051,0.4094509357540404,0.19822478594440324,0.3365069287445432,0.5936666812107749,0.740119075917397,0.6667601086473836,0.5983791782180135,0.7136234645218296,0.8033584023867262,0.8410381190839693,0.9388842742324988,0.9193212809350704,0.7907202524961647,0.7073213010477062,0.648504574284926,0.4724782558372776,0.2284157691211613,0.0,0.07589108008799256,0.3422112280918605,0.5983410089639016,0.7057184619718335,0.6099319639330092,0.5983961949119974,0.6826734126206611,0.7263793003445094,0.7625606142291654,0.7497813548203016,0.7496516549213499,0.7632939019793348,0.5474113940308722,0.27371834659258093,0.2389901801659488,0.48444872532260147,0.7220132725043542,0.7667219255997821,0.7579695250732301,0.8135604364389524,0.7209524839933976,0.5462244158235299,0.6744131279856609,0.8260116202836536,0.7856263482926282,0.7904732344493326,0.7923148450588418,0.7521908307850371,0.7114157020310949,0.6347397080500687,0.6728036188298061,0.7449807681562921,0.6207947752740399,0.37740351103641673,0.33292456490892003,0.5588637188570227,0.6946114708911391,0.7586210251222469,0.8424421795725161,0.969962227694215,MI
0.05990604719612144,0.3114380523720912,0.5827759104261009,0.8337356934265651,0.9379938763779679,0.8504860774739329,0.8386491587759993,0.8820909213895186,0.8764246202069067,0.8802960343558158,0.7704002942598467,0.5076287452441608,0.23821083480855562,0.028977124334544274,0.12709239898720803,0.3885667086452582,0.6477081433559434,0.8864644993701534,0.9424972127037948,0.8388909049854637,0.8443722999028785,0.8751738204297319,0.864078882906093,0.8596057147959314,0.655940118983012,0.3838113259728352,0.12072286590383771,0.05842660091306853,0.2907872847802646,0.5510511236172606,0.8068986215673661,0.9499322170665853,0.877252162568329,0.8276266335032686,0.8754104860452655,0.8731241946507452,0.8805444201205613,0.7180920109380955,0.4495001383654348,0.1798043147360607,0.04500268285033185,0.2317818477506635,0.49896985684625517,0.7641005201287648,0.9537225669761412,0.925124433277147,0.8313711985213363,0.8701844965744547,0.8756345403686028,0.85639468447692,0.8012330124088274,0.557684201630477,0.2936213922299834,0.06280668323611538,0.0727575689864434,0.3196669894310865,0.5828722777820476,0.830922811395543,0.9213288261334068,0.8337100064178014,0.8422790433726546,0.8821978593877855,0.8683550540881465,0.8677944755165484,0.686108001793261,0.42580430842598815,0.15782042672947763,0.030670398578029334,0.23298164051723932,0.5039558396595417,0.76808148344127,0.9508026618785125,0.9222747509210504,0.9385677554738762,0.9921548676987132,0.8447005036344856,0.5875105470186824,0.3834515816554751,0.5061023589995274,0.7694334196024117,0.9315202495018845,0.9024714941399976,0.9108476928207464,0.8842663650854513,0.8583555715583419,0.9486423972826153,0.9271868808909575,0.7149359022254965,0.48448331996371874,0.5392189911805073,0.7899744982600239,0.91157732519589,0.8956327556547248,0.9110478934187086,0.8716588113828792,0.9098769476367924,1.0,0.9061610812324025,0.670717446048415,0.42549939892998256,0.4226083446895659,0.6461440123099992,0.8831552493307325,0.9281538790148399,0.9077542062958769,0.8969288736268836,0.8570576324492942,0.9416976434539038,0.981841825981094,0.8131004493929447,0.5599493199030244,0.45466019361829746,0.6645630505457959,0.8954364170871044,0.9133238749889482,0.9005926037083778,0.8960976206190077,0.855897152823228,0.9314354371382606,0.9875498528570074,0.8374268043360755,0.5839906777153092,0.4732818563638913,0.6843510818843863,0.9032228748841329,0.9126997767106931,0.9140580509556097,0.9015976908842721,0.8563774318512607,0.9272817611576233,0.9651794064298543,0.7982103208453697,0.5408809742653751,0.3948188476055231,0.5820568012426901,0.8265998017139772,0.8870370408833944,0.8917456134222829,0.8959351189368172,0.8677525776907851,0.8885718568514555,0.9788594165068379,0.8943706488370018,0.6523126760507989,0.4539295431402428,0.5825857326306164,0.833723066001038,0.9261978650974635,0.9241211702263931,0.9147452981333187,0.881956033925329,0.8852822296234153,0.9776146186223883,0.9080255281629429,0.6710670754146049,0.4256629641569467,0.43245838757824373,0.6839428876046918,0.8951448858501054,0.9168797027911143,0.9203892531756416,0.9025911827605478,0.8582043168508547,0.92884074362231,0.9747084153002531,0.8202146070838681,0.5705649263646011,0.4360813958125819,0.6321286045670634,0.8711344952744352,0.923164660578688,0.9167457870745898,0.8999479155341767,0.8510370020600493,0.8839738852890009,0.9612982527479951,0.8528892820676994,0.6069104879537985,0.4579064538622065,0.6414607061758442,0.8690510141125246,0.9072285361521263,0.9110091707164284,0.9069038701188424,0.8662204213027411,0.8991816875345793,0.9833848833214515,0.8890509256268736,0.652372318555926,0.4284452954701471,0.5049235736878169,0.7636282004401357,0.9232480750899433,0.9224100864342114,0.9179809800628863,0.8967623469119709,0.8580504638353406,0.943184695268971,0.9635767079999235,0.7886361001103768,0.5374145747557425,0.47128169209346726,0.7010791626606941,0.8946572265965116,0.9049300768635148,0.9093735737321272,0.8996236172051185,0.8588150279430755,0.9426036862620525,0.9874600792409641,0.8421358744237323,0.6116059242989816,0.3493254007340526,0.10838624354236007,0.14871856041957668,0.40739826349434904,0.6578924170405149,0.8776187300780963,0.9468805778375732,0.8452399155960271,0.8451062379142772,0.8816237727307717,0.8776731797975852,0.8610953221734197,0.7155304932200889,0.45055508030092417,0.17777343900318707,0.0,0.1504166615414784,0.41780001685519874,0.6857255217187614,0.902783894376905,0.9153930626643393,0.8256222090117306,0.8629604694607154,0.8894816810009273,0.8901690176989756,0.857837125270259,0.6519955045843161,0.38909079729390394,0.1283627369139223,0.02841423022846004,0.23686510955599668,0.502848546261678,0.7604352870026021,0.93821428823654,0.9033149926214433,0.8228533207697778,0.8702147538698122,0.8823091154872993,0.8720360294445962,0.8149840592886257,0.5829950785116229,0.31106763532879855,0.05789415939372111,MI
0.9681769856606128,0.7289990435355049,0.6331049119887515,0.47093445528284406,0.7700605035356523,1.0,0.7289572704874421,0.5208602584053481,0.6940226957762388,0.7381769356931045,0.916930136499174,0.8916082072693801,0.6522388502995184,0.6236768113493172,0.512524164016551,0.7186636013744687,0.9124426950021669,0.6273044197832562,0.6258315741664875,0.7081401715114479,0.96722389883934,0.837026645798955,0.5784754400102989,0.6958289480654116,0.7573824106981517,0.9717761198188075,0.8358913536301462,0.544648901058927,0.6682103924154381,0.784260087453108,0.9173309896845963,0.9205039988617432,0.6297383047653016,0.5172426901727336,0.6784934644260137,0.8547368263227577,0.9170132210615014,0.9351268465334179,0.8171113933523486,0.5332054109496069,0.6266371314071639,0.7117463678818305,0.8855884228633211,0.9458485898063915,0.8114137536424026,0.584363438301303,0.5710105418747085,0.5295269918558168,0.9420792792744725,0.833732220670651,0.5387090463397248,0.6475272705186077,0.6900880728174719,0.8333425803793126,0.6106410496857326,0.18499013224757954,0.3574168408194969,0.4927952184438076,0.45029136777720824,0.7912443865670675,0.6165839879306798,0.056503914384077536,0.26231944020660736,0.48116057259278167,0.5972212472769733,0.8520171718758709,0.8041369984955442,0.5152919870599764,0.27183558330633817,0.510461601082508,0.4025212166494323,0.6576300946828342,0.8313781248224936,0.8239919236070432,0.7104036437791734,0.2651379090833963,0.40861765123995264,0.4062194789464857,0.47941097637577323,0.8051052622726855,0.8148219945116462,0.5575373471106815,0.28770300699011875,0.526783788585814,0.42856714493877046,0.6906047464694058,0.863318966481406,0.5097452790576096,0.24193132316091281,0.5493042380404827,0.4555838641996024,0.690143235887362,0.8485967281668509,0.4130641050073032,0.2930222067558237,0.5027814641213331,0.5147689169955485,0.777958193474332,0.4648829042928555,0.04776318441790517,0.4115990659281201,0.46283400167849065,0.6286028740914711,0.8188625168366186,0.7654360890801848,0.28466257333556744,0.23777070337004913,0.5422533953515423,0.3741745825492515,0.6596206613787317,0.8572434691297448,0.40058808615849584,0.0,0.390392490166394,0.5213569690721171,0.7264583766024315,0.7861529206413653,0.29592715925521773,0.29259099159518787,0.4983787974704321,0.5182341899362557,0.8082008263933091,0.8265698817682936,0.6849950479685716,0.26027936003464003,0.4532803861913064,0.42804374310242244,0.6433936483598348,0.8393214175884545,0.46703419800422674,0.10207431772932685,0.455490589785136,0.4906699129642824,0.7052314800467392,0.8156808832859084,0.5239990822884439,0.30372991552680784,0.5613693490516374,0.4227268578002965,0.6887796298552007,0.8379627100018405,0.3799552890986546,0.16643283910810736,0.5199754131511716,0.4684116416414166,0.7524442634854327,0.7934736158450741,0.29166706101426554,0.18118137018984282,0.5420327772701858,0.4325787640363177,0.6685302415535248,0.8417956906949522,0.7161098107351132,0.3424311437619849,0.4661316019114605,0.38473700366340413,0.5794157601947738,0.810151027003533,0.7926749924526999,0.6249086007722342,0.2524740694910279,0.46635375666492696,0.4360366275794725,0.676210958575981,0.8558747975726293,0.7556253492245655,0.3695473223936694,0.4219518647358793,0.4670298306166334,0.5486052759231672,0.7655055182401544,0.38762095469071234,0.1217250307645461,0.4724472409470408,0.45942989717617566,0.7155251209513005,0.8321066971458597,0.736692876513322,0.2706399755721356,0.32626516271168704,0.48102141528181175,0.30986660637818497,0.6650498966954568,0.8438454230932053,0.6660666540509608,0.20675813927342102,0.3949529225697228,0.46335363471696844,0.5496070573927487,0.8305962106041278,0.9053741078528157,0.8405286545651176,0.5674061708647153,0.6404603061205818,0.7497335032103778,0.9243361898508278,0.8733857884968939,0.5118729846235768,0.5455575337459697,0.6592749687716255,0.803190992922818,0.9249883802178167,0.8782642062959103,0.6058856931662593,0.631974510788532,0.5582872881432852,0.8224486051902429,0.8729667493752151,0.5938268274103602,0.6202797894273644,0.7583556307464963,0.9203511583575898,0.9344999691447153,0.6861227010798285,0.5526008827939202,0.6656157977138735,0.8504545346595203,0.892005120602128,0.8681275592534194,0.5733617836832012,0.5546978387451507,0.7149877099391788,0.8707872928043039,0.9345144444758753,0.7483983520446316,0.5546012720288274,0.6837708331745826,0.5807767305177491,0.9067543865470871,0.9280412000184848,0.6144987082319755,0.6491658354157588,0.6843168552828987,0.9570965225152084,0.8467332216542691,0.5278371248261284,0.6718495710028156,0.7358078949633442,0.9003620766169895,0.886524960273436,0.6498527469913227,0.6290963432411338,0.5847917223599133,0.9152155657499992,0.8889066223946736,0.5802237062902034,0.6112940735269246,0.7488220159766041,0.9344368697258707,0.9318416545366865,0.7145743898937771,0.586167247119358,0.5985910320872767,0.7708990238459998,MI
0.9174055689217144,0.48434205837414335,0.3341571445112972,0.34153300835408973,0.3624327615873739,0.31931392572889683,0.48182738623419596,0.6484281384510575,0.9695931469988988,0.8043156655239099,0.39682911939445087,0.32314598691001484,0.33844527131568314,0.3622364533134015,0.3054856175505012,0.4711113984419739,0.6830650131620988,0.9337511555861211,0.6168076536415816,0.32385495142593235,0.26985326272778476,0.33752201434418594,0.37705898612738875,0.36344585705702737,0.5300826491136685,0.7288214320488036,1.0000000000000002,0.6930566756976322,0.3567784642829468,0.2927680076641639,0.35406246886508286,0.33509732480579846,0.36772405797199315,0.5564038902585835,0.8168924936212056,0.9533374662987766,0.5420570769304709,0.35902655144143525,0.31644130058321185,0.36327303787575604,0.3055953914933103,0.39227027699517936,0.5815880572781136,0.8816899785325323,0.8639916128574263,0.439722483275683,0.3486453160020144,0.33582628368688305,0.3848194250003787,0.32970287653614583,0.4426512101215294,0.6246627772029709,0.9390484937153196,0.818556256903799,0.4056730461406104,0.2976868164726707,0.3404417705785363,0.36554122129104827,0.3349141938674125,0.5051811477155763,0.6812682720734691,0.9563341322931362,0.6837764994093478,0.34925486790772675,0.2829317558775901,0.35937113223886663,0.3591055916096686,0.33526183729017434,0.5118019917668086,0.7282577662939429,0.9475718731891216,0.586370463936986,0.3463168941319803,0.29175630455477664,0.356476031761769,0.32717196559783446,0.3557160690602461,0.5182284282983132,0.6958530909938643,0.9234956166157018,0.6454957131766805,0.44192902649845434,0.27144332042458674,0.24204881611658635,0.28289588571573177,0.21323180489678384,0.21767616948099122,0.0584528196944607,0.33739604436656023,0.5791940528245278,0.4492392600034967,0.26689722423621043,0.2940368813101235,0.2813459646619587,0.20658327615433691,0.12420445105857691,0.1511233690155931,0.5542021344245456,0.5394464135522308,0.39521151593992165,0.2494149826295189,0.28971907843486755,0.22201279975377575,0.1952346571795689,0.03718400286222545,0.22020341794861897,0.6267006948142548,0.5558187511507742,0.4075309692818163,0.24365860873383105,0.30026200584294593,0.2947782949003166,0.23622508763578187,0.1587756967458056,0.1758770985709106,0.5686646307092305,0.5710680058175852,0.41383650946289063,0.23684939770801972,0.28280726375088006,0.2642784170737762,0.23617581649870423,0.14311206342955685,0.14048079466311392,0.5737342950069013,0.5996394050109377,0.4273776056189622,0.24447008882546495,0.26631786259822987,0.24301522790183472,0.20578996408372752,0.11669823856624495,0.2886295829943004,0.6256116225982786,0.5220679920445541,0.37009245098374643,0.28481559528248757,0.307266934715795,0.19565412156848794,0.20091886756566457,0.05282086840275735,0.34017988128713883,0.552411745237962,0.4184922168878218,0.23922028479449664,0.291961642358894,0.3003418825248132,0.21820259761269023,0.16903660673506238,0.14862675993950014,0.5434225811912505,0.541047756398773,0.3829535853191399,0.22771622526675372,0.2958076822466422,0.2714986285008065,0.24203500455850002,0.13228183869801668,0.27137059215707415,0.6155803901172245,0.5232428550962005,0.3198547691965563,0.23392009854796525,0.3010107403791067,0.23768350011127826,0.23455066841893157,0.07363993533948032,0.3133153717342283,0.5932938798179477,0.48885614092279783,0.31158714642437113,0.2684150891560775,0.30194251503682734,0.1987277346634544,0.19556466266495032,0.04826658039509324,0.2717741528922768,0.6087267128916356,0.4965232225821825,0.33735386066167994,0.26963090160281356,0.3300792304662741,0.2696375922152152,0.24084816655801733,0.06529019024236837,0.17673787283100317,0.5986811851362395,0.5397547308531341,0.3911009120214257,0.20438781103509696,0.2342173822963265,0.25430121119865845,0.16367993311681972,0.13480776103789172,0.0,0.3786548091611912,0.5333290021139201,0.3825964589285842,0.18336148238840178,0.17918755270354558,0.20048094057643273,0.13119680842501036,0.10433606742777246,0.10934012591960762,0.5293577069216597,0.536009803426625,0.4251617291421528,0.47414392031192043,0.6618234831524428,0.9339608190179185,0.6195414705896114,0.30718547733579693,0.21899443207510583,0.2791052414092827,0.2553688645167682,0.28476932833713575,0.47048023849700304,0.6600900194253472,0.9645649534290512,0.6751607486119446,0.29841124517909257,0.25977674736603507,0.3001745880800861,0.31517025060393533,0.26758164913434057,0.4203000994153532,0.5903863810081937,0.8990082048281518,0.793434326008599,0.3921335126899337,0.3319053225425874,0.35950350798728037,0.3799712224965317,0.3373979165734542,0.4787923190438319,0.662260189994978,0.9663622850280749,0.8071606617644289,0.36835285563779596,0.28312354622073843,0.29149180606803426,0.3690242099906591,0.3287067190137969,0.4527938724381111,0.6210277981677133,0.9105316827788024,0.7843647294483242,0.3979049635505141,0.3164820798886874,0.3370140151423333,0.36240749825946694,0.2939429667926716,0.43308883773665596,0.6130836346402175,0.9058816456644185,MI
0.0,0.14291035974415098,0.2980424423104379,0.44494307250137716,0.569005831132279,0.6989859829463054,0.7644217884248481,0.6969681832467052,0.6227708741279072,0.6904451985935658,0.783248165839747,0.7859720316642125,0.6727658077486296,0.5257974026871794,0.37326423563373196,0.22736464283305247,0.21670441525933315,0.3591663473941647,0.5158373804051453,0.6716094118552689,0.8249147325979507,0.9401708447388124,0.9376027352144829,0.9053075896944058,0.9210619186561793,0.915034402552481,0.9044323085061146,0.8947902612146914,0.8877618953506576,0.8760418693407346,0.865598162863487,0.8625790987415112,0.8574104083044667,0.8516524424886944,0.8521717883580036,0.7898041938165796,0.6686079845152639,0.5365388020118973,0.4348893295032043,0.481891384253573,0.6001347201510836,0.7107019820657003,0.7788498796240484,0.7221843738081692,0.5844778833624193,0.4342383207947345,0.28358234305588825,0.2048679345255085,0.3192328887929371,0.47513480287422954,0.6307753758673644,0.7813143266844205,0.8712648755346111,0.8335263755208224,0.7984663832940748,0.8148199764716306,0.8039743789115772,0.7963858689593468,0.7935499131479113,0.7901908453772857,0.7990042756093687,0.8015220542723125,0.8064803607587596,0.8197605932513095,0.8184213440741597,0.811314318417917,0.8165528117975109,0.8365423644866699,0.8783682295247315,0.9140916491521796,0.917685157123215,0.8822617172565836,0.7768503873094932,0.6454739085155123,0.5172968460367231,0.47346360724261544,0.5723011439161108,0.69383816191557,0.8006544773092699,0.8426103894022337,0.7529439165666729,0.6089673105506939,0.4584021971699577,0.31673304233783756,0.24029629729593455,0.3529036110911748,0.5075713622151132,0.6630885787555614,0.8184263379215253,0.9462289402831334,0.9535730413330294,0.9150062309630977,0.9043374371047799,0.8835167959593202,0.8682638881140383,0.854440210592325,0.8394873411759773,0.8321859351048977,0.8329893324434758,0.8399423522021465,0.8477859355190629,0.8513694104544556,0.8543997895044952,0.7863975202803564,0.6639607286917961,0.5740167008685206,0.6344823843980607,0.7471956930494437,0.8349162835205652,0.8169597086758968,0.6930101451616375,0.5444304064902035,0.3940779107825193,0.31726506657774517,0.42989167978922865,0.5844423827613485,0.7402031839259249,0.8891408884246266,0.9606308770241103,0.9481572192630889,0.9105808261206079,0.9214662440802206,0.8813062376852427,0.7674049342449667,0.6517208115074207,0.6214712017681923,0.7207080954913749,0.8250494344067312,0.8697226534043407,0.7862490033960687,0.6430255129538502,0.492748214843518,0.3402412826841682,0.20404103153742414,0.23203155010835985,0.3813414231881979,0.5371293883890975,0.6881389546575238,0.8326440502004699,0.9597977244942577,0.9728307528265794,0.9243616320030426,0.9194159976936063,0.90746020875264,0.8081553335695251,0.6818450785428627,0.6036885172272166,0.6793942331320684,0.7948600017809127,0.8868098019521278,0.887978775266411,0.772975012021998,0.6266713554249164,0.4745633271543315,0.3489279312017922,0.3993459604447573,0.5501648038105751,0.7057256607877682,0.8604341622901845,0.9891102547047979,1.0,0.9514248748850145,0.9532478572137484,0.9223980264503955,0.8093567880089334,0.6771071854003072,0.5616965449979006,0.581745124992133,0.6941891536248579,0.8006763972984576,0.8489086956747189,0.7700238801645876,0.6283434478383954,0.47715427345060096,0.3257107605268272,0.24365181179767642,0.345079401385251,0.49694538014449613,0.653098659027165,0.806778682300898,0.9343811411903722,0.9380564111999701,0.8860932466679796,0.8842579274290663,0.8870056279247529,0.8730948881614526,0.8616319668318824,0.8558651902900605,0.856168752257634,0.8598466857384457,0.8663762491061429,0.8728582120263777,0.8603235718906623,0.7666164593091478,0.6368787872667878,0.5064924736048033,0.45938164435271694,0.5574094220563506,0.677455929838042,0.7785020634510902,0.803978898501037,0.7052877912071067,0.5595159647294614,0.40662790908963026,0.25743607383977724,0.19006852813559866,0.3091371875560661,0.4639064859626523,0.6200417141155077,0.7749165039004442,0.9033246534194228,0.9038918567724576,0.851990899528797,0.8509675899538958,0.8521569294800788,0.840025299582106,0.8368611442763885,0.8359367907318576,0.8401027980067692,0.8425075022789035,0.8450908090862783,0.8528451702545037,0.8564048322250386,0.8741462147464887,0.8979363981995065,0.8324040052171082,0.7061829804405619,0.5746771761124938,0.52583658053171,0.622861823971407,0.7392678208568384,0.8260782470521295,0.8115996318987697,0.6908754635015484,0.5506164101713922,0.39814644439424973,0.25563883488373385,0.2627337102769401,0.4094817699800025,0.5656202272926052,0.7212045255178186,0.8737738851272974,0.9762670472771933,0.9569095361802737,0.9356899960197897,0.9450056080999432,0.9044104465142508,0.9299269232238083,0.9056978847281087,0.7667557445904594,0.6108657237394017,0.454656084850989,0.2988683588969198,0.14359279237124348,0.0011059192917224764,MI
1.0,0.8525746390814748,0.6941258083650101,0.5367493552822962,0.3951396058195673,0.36267452943592615,0.38937139939737986,0.4123895040427462,0.41086217635196953,0.4751282882389487,0.4183712216470713,0.2716451922477878,0.1604819295074419,0.22909966042938934,0.37063688988774646,0.42385506296152253,0.35353317023878317,0.3007277899463492,0.3471817016313733,0.42534337875290495,0.4616095431646995,0.4704715254970806,0.5001296873933965,0.3835148705644954,0.23822270078854468,0.19349005228264227,0.3191093046453891,0.4528260559017353,0.4614638258035135,0.39017489143066175,0.3383036382482143,0.3769430332714473,0.4401569192870174,0.48251737763455627,0.47700298535105734,0.43111637886880405,0.2870837542171888,0.14043610599143408,0.1013593128281125,0.22400805964440473,0.35019596228843,0.3578414236626748,0.28415819893934324,0.25825140983583916,0.3059933729238058,0.36764285487825155,0.39210706870454004,0.4505940266872035,0.46123384083247576,0.33480508336735804,0.19185881087730028,0.14792703850104272,0.27454040050801687,0.3993751065750537,0.38357558497281374,0.29297688469453576,0.24142267735662926,0.28355679869716754,0.36655852234716746,0.4268341673906717,0.4620487193731677,0.5389408123363216,0.46448186229867805,0.31731325364644913,0.20834429119733533,0.2764386052854343,0.4188913007878756,0.47810473782428053,0.40740734964059777,0.33212290876903594,0.35509382166628645,0.415643810503287,0.46902823801582405,0.4674714406896934,0.5357915769952613,0.4725186430978021,0.3255449176911327,0.23060518726480084,0.3194191691943733,0.4563076465815912,0.4774781382654796,0.38929920518115646,0.3186771698966553,0.3224824006338559,0.3441905917302869,0.38002046195224704,0.42944096300029366,0.4759626035971364,0.35923995836902123,0.21633924478492306,0.19534392329710015,0.3284590997908675,0.4486829516491011,0.4265863845932173,0.3475021842236877,0.2994474426636339,0.3434195641539134,0.4196158510685677,0.4388102791055092,0.4915536008894039,0.48457849255888685,0.3447832459273543,0.21380146815315626,0.24033602651956598,0.3818786813399626,0.47677711540083534,0.4204736212858625,0.332218518901074,0.3071651090221905,0.3526518561847175,0.4091348167890557,0.40446467294263033,0.45466809307622913,0.4418322925239989,0.30160803504116807,0.16930362852664615,0.19169209226071882,0.33274162768198456,0.43995694912132366,0.4077899613853535,0.3161169097915044,0.2888180503677171,0.27917355659248866,0.21041416282057712,0.23128919251549251,0.20501517547730141,0.26478531341572153,0.36146319682948647,0.39635923364605996,0.2804760115188999,0.13372337765365128,0.07496123489147088,0.18980666201343166,0.33542285211169354,0.3976663571367606,0.3797852971662168,0.3759997360409736,0.29104177102995343,0.28049929645300775,0.27227005023405904,0.31262955832874517,0.40445195047811566,0.4147599506400347,0.28455352151839075,0.148636058809965,0.15206647412925445,0.28818567472459367,0.4245373267334376,0.4331683163221203,0.4145262547022335,0.35664076789343346,0.25838518047567405,0.26982846806531813,0.27056160129766194,0.34328491874271927,0.41722672803849825,0.3543649657886724,0.20881747493703195,0.09986834306799186,0.16525859152335687,0.3042351583586159,0.41988689266919865,0.3855890491966476,0.35569711871567566,0.3033119345831604,0.2491053904620747,0.28466429259279047,0.3081756686163324,0.3974855542381095,0.4525138476669629,0.35941693649795536,0.2171615064872645,0.1696364151420503,0.28831370957057334,0.43283289835222305,0.4761444931757429,0.43471796434038135,0.43586054326142165,0.34954953751038376,0.30023775112668294,0.309286420086918,0.3142022533583474,0.4016232728444946,0.4422813265891361,0.3305895824522975,0.1845104992493174,0.1285362191574424,0.24363811247233658,0.39102271292117197,0.47116054969595955,0.41730791971032777,0.3830490895170253,0.2888856587521087,0.19460108765638007,0.21863657438167117,0.2116304827752593,0.28319607386320644,0.3661244977356919,0.32741463110737246,0.18349016751377278,0.06768841973630979,0.12614192228225407,0.2710438278675674,0.4010791924113988,0.3887667230627546,0.3653102506526936,0.32408656636848754,0.2428859565254463,0.24119465094113668,0.22665646266530537,0.29757751701039115,0.331654274278816,0.21999954471638827,0.07253587192178357,0.0,0.10424042988399529,0.253938491575458,0.39344287447276804,0.44877928609653084,0.4419076121494816,0.3489461937371682,0.31394595611710396,0.3149165238510129,0.32512360230378523,0.404440720485829,0.4318142055609948,0.31274355003563015,0.16720850216646543,0.12475783610501223,0.2456627942333408,0.38965162687650035,0.439264520176892,0.4370827436690343,0.3928352336143742,0.2910134722484021,0.28648160929029876,0.2706523083975316,0.3203309074672698,0.38419553672726003,0.3116119899670958,0.16600354895583003,0.08306149203318697,0.18034261340267765,0.32666262125131307,0.41412474073736616,0.38185051906947864,0.38814997531737705,0.3384986431613233,0.3398828934285516,0.3175373376742707,0.3878588235588858,0.5349841613814221,0.6922759316458109,0.8514378740772857,0.9985226295636591,MI
0.9999999999999998,0.9641438317820057,0.9608937899043835,0.9448000740186993,0.9387385318030128,0.9260396981200396,0.7259732880310044,0.6561445031256754,0.8440479951195312,0.9007987362078012,0.6224857496449858,0.571857534807017,0.9076764043291361,0.9811352326419234,0.9769776975438138,0.9690311086230803,0.953641245319208,0.9463225175938492,0.8972148604474162,0.6711143952265322,0.6649412322758406,0.846767057202259,0.8638267282350462,0.6342075965785829,0.7925008314552882,0.9689337199548971,0.9510091589129452,0.9527833658845821,0.9595595255969147,0.9668178339120821,0.9224595264841347,0.6948621412191363,0.5946383853246553,0.763182973478135,0.8142831013351486,0.5460301972708623,0.4574614334459437,0.7806885097300211,0.8209685443276931,0.6888202645607284,0.4883680202142613,0.5901771417465198,0.48898613730659757,0.6924402321682115,0.6554562959075458,0.24360880051230005,0.0,0.3180886602970472,0.6968222536017548,0.7176158261171832,0.5412159589464236,0.5936762706714065,0.8448061770472173,0.9194239610067501,0.9092454378704347,0.9030088533360783,0.892852150024509,0.8891886057279004,0.638914596923523,0.20317736338918357,0.11486499349897783,0.510974153476881,0.8058963909539896,0.7237947054180496,0.5449047360732673,0.6702591037605863,0.8764126895641693,0.8988826396749585,0.9084798353021231,0.9247409660569239,0.9207770186828921,0.9102339909726436,0.785458487523661,0.3641334565279004,0.08866418172585422,0.378449850862298,0.7726278828610726,0.8236684012565025,0.6335305311246688,0.5994504535966567,0.8267672003498585,0.8910480665192517,0.8872742401921967,0.9031958446772392,0.9158136622742183,0.9041474359157029,0.8606806300138163,0.481132785949282,0.12051678198743909,0.30188120825388665,0.7244155232846312,0.8674378691508979,0.708906597246431,0.6088479418177821,0.8155974045987364,0.9212698236357608,0.9140740755395969,0.9162729646707783,0.9262771841132407,0.9086328732162652,0.9034995891627526,0.6060636888213642,0.19105457123134517,0.22383562956724123,0.6365370818621268,0.8360912652784893,0.6984240947245464,0.5683418648058034,0.7567653895588251,0.9003491890745161,0.8854045130665662,0.8885596715704736,0.9033348775839933,0.9010261314185286,0.8871378292693135,0.5902425331139045,0.169121069379496,0.17515807964617358,0.5896395468150957,0.8382183746130385,0.7188010212929885,0.528676675706143,0.6495468385982168,0.8664147651326572,0.9068108336056746,0.9133108226667452,0.924565186015845,0.9204677749440651,0.9130981823763273,0.8168378730150361,0.4231781454614658,0.09529336205712369,0.3036018881419811,0.7168469354959721,0.8188240580941801,0.6435095457661268,0.547171023166009,0.7674682621815634,0.9002345032594403,0.8985366816088158,0.9037553995374636,0.9149176818184317,0.9200964640012106,0.9152867469272243,0.6368793084803901,0.20830514092209929,0.17439540813371557,0.5829030133163158,0.8543085472326812,0.7548591940343217,0.5866426034872845,0.7153568622562954,0.8927356130655999,0.9004887654267983,0.9040431130973461,0.9201480097199106,0.9016973279508627,0.8784329489262219,0.5799578454080776,0.15763563557874627,0.15428102708089164,0.5685556560356888,0.8295785552105277,0.725884916728559,0.5531288846238414,0.6860771872366791,0.8767849396558056,0.8958760274681283,0.9164012148637493,0.9274434867634025,0.9051677420101691,0.8722191186376234,0.5225292189377213,0.1280134106908124,0.23118715790961453,0.6591029248366045,0.9094488716707618,0.6880296540025577,0.5394734447367755,0.8686845962696352,0.9780427961459182,0.9732312321842491,0.9675745368701267,0.9493669974258745,0.9451849924884017,0.8743062905222192,0.6554637569849744,0.7018217069635693,0.874417400068298,0.8194074498412875,0.5435197821529927,0.7445079088399689,0.9639031051305389,0.9643572797343516,0.9707170129696514,0.9576043120614492,0.9536058505616987,0.9420023504073318,0.7722635432961205,0.6573317783401402,0.8298969314714835,0.9261983862290062,0.7217438077047473,0.7412489982191866,0.9861198431547316,0.9831240086736892,0.9642763798242859,0.953861933088332,0.9534620217479011,0.956841910152529,0.8387904991326727,0.6234190911312949,0.7265279179970592,0.8858854691072129,0.7822197969048428,0.534850366426266,0.7977015206841631,0.992611378555021,0.9761004819712997,0.9736486286165931,0.9718311884987616,0.9593646248839416,0.9466096654515657,0.8268345323657542,0.6108958555141795,0.7102672288855265,0.8845207614638879,0.8069208589258354,0.5887052204256402,0.8403767359509062,0.970280829528843,0.9601455842523638,0.9439364413025897,0.9306711116429731,0.9462828543055071,0.9430116868438809,0.7498144946349812,0.645033614809768,0.8200875163270396,0.9007884655195351,0.6687255512101773,0.6684244569628883,0.9643224678595466,0.9784267498724517,0.9807066227352699,0.9709546679509053,0.9677720652874193,0.9728701497827015,0.9291216627063668,0.7131555537550132,0.7248112964363871,0.9030904881976134,0.8813214961173148,0.6561606999148344,0.8656869273621728,MI
0.0,0.13844354885173754,0.2912305224459172,0.4378704155894544,0.5698697125670636,0.6563197803624782,0.6450805517382954,0.5560639473211243,0.44460524986874805,0.3547138250683317,0.39029111467015776,0.510204908574848,0.6392933117139458,0.7644681862586875,0.846323321769808,0.8121852315712164,0.7675314748600336,0.8201026043492168,0.8404466027175282,0.8464604639966614,0.8596046801219233,0.8767672023029842,0.8863325818878965,0.8733438440953735,0.8636636167102163,0.8591684518198807,0.8234019116268116,0.8096019976293284,0.8726266703737272,0.8527924317566477,0.7499743100846689,0.6225950800039511,0.4936622694725751,0.3915921952670587,0.42701550824798407,0.5369596220283377,0.636965627660216,0.6911453258483325,0.6558397292196344,0.5453433590753083,0.41889786511330274,0.4269907178845228,0.5551106192807509,0.7064241476396675,0.8548696643699203,0.9660912607707374,0.927403188004431,0.8817100900504198,0.8665280446761242,0.8624446217810015,0.8585719834820958,0.8598282690642433,0.8801955341525447,0.8467476776835973,0.7546813969105174,0.6517552387996909,0.5311412921300864,0.4142153861541714,0.4000336674489636,0.5033253029504556,0.6078228318557062,0.6762290899118039,0.6684125964561324,0.5727510129391583,0.44184464711449867,0.41818554590678936,0.550110722079347,0.7027411759211013,0.8516451482321238,0.9705854105524362,0.9462835482041155,0.9067448699081138,0.887322416923839,0.8860688830783949,0.8917838193305992,0.8930484986293596,0.9079696995034889,0.8987128681121639,0.8140571322681343,0.6918724910671937,0.5605838243086978,0.43086138563449017,0.3203639985894815,0.32741874150375805,0.44492420203650107,0.5662202311592577,0.6603561102068402,0.6818038447884734,0.6109853551386336,0.48068583971195866,0.33971737910664224,0.31265038722375005,0.4470125983711726,0.596678988876931,0.7490365998611763,0.8961139979698557,0.9770219694042489,0.9159438010393671,0.8736218935803028,0.8513632714947124,0.8493546730781331,0.8483068049112256,0.8561533278802625,0.8772720892819922,0.8551618901323808,0.7711130778804257,0.6563444755694515,0.5313842010522764,0.4119365335133006,0.3890949096983636,0.48679427891200555,0.580285153022016,0.5875693627738086,0.6368564158220951,0.6513115205639333,0.5508900769316641,0.41199649609645583,0.2652814313765389,0.21166478928520202,0.3368082981454211,0.4863039936989897,0.6353629337634482,0.7754935497637728,0.920553007506035,0.9725043800527916,0.9066094055107394,0.8788642178514651,0.8662743399664683,0.8565727250168901,0.8470173832438139,0.8501580764948418,0.8680585717221451,0.8483982210814884,0.7522929881939865,0.6275638535035012,0.49951960035351106,0.39844722789566955,0.43368633869068907,0.5463361561285762,0.6501227582553236,0.6998870106260427,0.6591794466539705,0.5473427298384568,0.4182761150448062,0.2774369819978616,0.2433695148489248,0.3766913276196915,0.5261977023635238,0.6727140866785242,0.8146748211487276,0.9284438658274629,0.9240865944892943,0.9050029618130565,0.891307662107721,0.8838992806677726,0.8853412205580716,0.9009362205095002,0.9065478383502178,0.8461654512830953,0.7293875185979419,0.5997883131623535,0.4718091689916887,0.39736671720929684,0.47077687402785773,0.5828512228645042,0.6679265106717525,0.6851439414080401,0.613512519815401,0.5096411514832985,0.5650378958079437,0.7129690633280581,0.8625867019779839,0.983008329096848,0.9487841304699308,0.8671585845551876,0.7958909122090145,0.8284088487057737,0.8562656977344393,0.8377747763129114,0.8191373454204764,0.823720666405975,0.823720696393139,0.8140766770500739,0.7327053460001097,0.6066939680183778,0.47866368719924945,0.3801382514341305,0.42154199278010074,0.5328967609932046,0.6376747651640529,0.7140338629386669,0.703658617075258,0.6101365256317028,0.48372710048967693,0.4747655954355542,0.6082529117397252,0.7431988587687396,0.8839654873636412,1.0,0.9640617388958351,0.9026050579026752,0.8290314203373675,0.8328911464527968,0.886281020292298,0.8813282046435855,0.8729464570227482,0.8850882401426897,0.8810608883049966,0.8260742125324559,0.7133084297661737,0.5853534628656771,0.4593315725682481,0.39268756465616683,0.4696838779361928,0.5788403458734822,0.660800008420275,0.6827306285065867,0.6148557117896521,0.48560375058063854,0.37089405236522655,0.43439211092625785,0.5813125017268871,0.7338771005618318,0.8824105193527385,0.9843544104365717,0.9272289817906222,0.846324500064,0.7938188933443506,0.8529845713359162,0.8777938359340789,0.876706985842475,0.8659137728862153,0.876763737712318,0.8824602864076203,0.8370378984304063,0.7267854293309154,0.6065702097514722,0.48055680221049324,0.39737627313429413,0.461311981097445,0.57033605377665,0.6605977454427423,0.7025349252079838,0.6617467103470651,0.6095153048015461,0.6934224127047665,0.8239208921963177,0.9409041250486315,0.8881324567311739,0.7429381586224821,0.5931310106814123,0.44153813304751344,0.2918434777239195,0.13898312310118513,0.001449944957844465,MI
0.9731013174236129,0.745572562422621,0.8532881221432373,0.9094992036664862,0.7755936598503963,0.3853000770196018,0.7802971652151851,0.9962259142826593,0.8059703107717135,0.9120115203234014,0.9424376294508674,0.8764295898438927,0.4378825252120748,0.7167420709738872,0.9796853049881729,0.822450527143948,0.9159946356497533,0.9853210626836755,0.8511944764071049,0.519027740092108,0.9351924104123968,0.9395027014746753,0.8934182875623957,0.9579545123955908,1.0,0.853875270286145,0.4725257178680544,0.8490549938334451,0.9357491889767813,0.898602337632946,0.9450329502424784,0.7741230903837559,0.7618977850711137,0.8269480519790844,0.24273753467465697,0.2070864712391427,0.7656728775647568,0.8639917105756174,0.8250649445752152,0.7291224543497665,0.8142394785729405,0.8100226670714985,0.27737443308496257,0.5347784944369463,0.9026004899536506,0.8269831472620566,0.7452257722656688,0.7486671953746109,0.7738608582501012,0.24282790172677737,0.4269141023495586,0.8271593025605615,0.7817838325658246,0.7388972402467489,0.7034515449292815,0.8496312562975574,0.3211382959191327,0.13924906166467954,0.673175363861489,0.7734449965190375,0.7306906782116696,0.6238585511775914,0.771290952738581,0.6380091411855147,0.10936940519721139,0.4507036184424025,0.8233174383483184,0.7843690930798228,0.6483081112472919,0.6890192062470533,0.6015582977755205,0.103836849054598,0.4549626952113761,0.8023517646549156,0.7371895101186174,0.7298809017048211,0.5882766162591233,0.7311420746735173,0.44858045520188394,0.0,0.4265405313656636,0.7669912415028315,0.7113534433925466,0.6880920598656144,0.645355228452853,0.7432548583656606,0.22249277184516947,0.29813754296087325,0.7733767983133215,0.7690865325193728,0.7006072453211454,0.6521219204152828,0.6927687221123073,0.1458666723030695,0.2881353473258099,0.778654809169514,0.7850146101725044,0.7571002788423331,0.6534604738210938,0.7973388149726857,0.5681950478160522,0.055491881859204284,0.4117841804310367,0.7544143188565808,0.6692488321906436,0.6600637104970382,0.5922838754782416,0.7636172270670851,0.3372744368723062,0.1509831465814906,0.6693392099731881,0.7832697276436771,0.7523616906035717,0.6540097825419329,0.8162591622060384,0.36607862386460566,0.2709585902305798,0.7888336236315454,0.8378246094021571,0.7814052084481147,0.6419721804845335,0.8099358788368223,0.36920688008810565,0.07481303243644843,0.589584769688805,0.7658074265471346,0.6699214562880216,0.6255857269140175,0.5712930656984003,0.6574057710043659,0.09145490854330074,0.08396550871153963,0.6136170808363759,0.6914297167606942,0.6615670985292312,0.562188819429652,0.7665926240316452,0.403931366867726,0.15461808221825502,0.663491042056779,0.7877198553612437,0.7231439721011883,0.6282307912202523,0.802784663956936,0.38235228105860264,0.191905725833589,0.6994924351861593,0.7867446126751738,0.7283843638039378,0.6036852705377322,0.7526391255363496,0.5793992165524755,0.06690374373428831,0.3692484056265912,0.7748194001216064,0.7475171122505735,0.734136069789419,0.6737668182240091,0.8049085491125845,0.28803349543642787,0.2869249398908007,0.8075568348597102,0.8834570947892364,0.4758774733907165,0.6453579761208661,0.9625432508709979,0.7729284951704138,0.8826642844298531,0.8837705126071156,0.834870061671618,0.4514120002975943,0.75089276013941,0.9770110547211566,0.8099835049629833,0.8908315601031211,0.8994430409737997,0.9086627897142363,0.4621858136314567,0.4988061169246163,0.9588698846551678,0.7947812801148264,0.8192206675526745,0.8569017623449331,0.861393263163265,0.4573338133562701,0.64585407190045,0.8791379857247903,0.7096767667037791,0.7788461699064522,0.8264871768309416,0.7063317933000199,0.330696191430627,0.7289671349355422,0.837358556631874,0.7622512450532688,0.8546465594117314,0.9029972809979401,0.8001376498872856,0.3920840937208614,0.7473899065290768,0.9434746929022002,0.8206328971634829,0.9253830823864009,0.9632901186808573,0.7634065690128966,0.5059112299984849,0.912240011879522,0.8049077631155632,0.826794523571762,0.8629432432637758,0.8689054333706725,0.45977353807604704,0.494852937945669,0.9111489660387893,0.7472029165766876,0.8346901592001879,0.8364250054130431,0.9098718409703785,0.6406299695953654,0.4501530218232257,0.9266774886519484,0.8593633489784849,0.8476204950722175,0.8858306718716094,0.9297477146212918,0.5947484645577701,0.44756570614507707,0.8781681437809894,0.754097280023454,0.8048563601246825,0.867953977157983,0.8470372623200837,0.4269379374774336,0.5846126514852821,0.9258977887459339,0.7409875342905892,0.8362653233132513,0.8705793174441259,0.8690198728069838,0.4474768250952694,0.5496235861101066,0.8920383673689605,0.7287635265325192,0.8599482041144455,0.8900434349780864,0.8901439810378813,0.479010057744754,0.6183169372940416,0.9015302771094418,0.7447171520917215,0.8558089031135356,0.9308232514261534,0.8332130967479938,0.4214056123796812,0.7671795979909977,MI
1.0,0.6808574328642778,0.4976320011592974,0.17463549927118427,0.36699161656378454,0.41519114652653233,0.3236931576434916,0.8026178494547369,0.7944097573492535,0.7773069320095329,0.7028616557439173,0.5022622894545097,0.7194869287671688,0.5054134640662404,0.6110448020859085,0.9733367854791637,0.777655414363593,0.7366774352382417,0.40971588067683395,0.24032763294351556,0.45513371236321687,0.24620496472136022,0.5424932715328263,0.7831146105915758,0.6519419365260366,0.6668869522646408,0.5920314767344101,0.5735655993900299,0.5112252059290006,0.05365738445561408,0.26488178067877577,0.24058819311213275,0.17102409702835963,0.5580541910420971,0.6568275045644172,0.7611992540999162,0.5569544535614148,0.21985262834783192,0.5667690578964573,0.4814543072594848,0.48223283877503187,0.7263137939411273,0.6236340397640237,0.6835478851448995,0.2413608281112345,0.13111157981080046,0.3694906846726642,0.1098095689301819,0.2540037202083911,0.534152972220876,0.7084248518323037,0.7674397820692276,0.3181360988035671,0.5467615047505734,0.7186883213119932,0.45040790214952064,0.5245669299092337,0.5274514316771319,0.6058638227681747,0.17248078789049082,0.128605953128472,0.44390580108500677,0.25026707096182577,0.41430791218802376,0.5659509344523461,0.6636804094346118,0.48391969025157566,0.1304116816912071,0.4768800975241345,0.42982292828969637,0.45137531297060596,0.7106580844793475,0.752020444068823,0.7627531310974076,0.23194593203793668,0.27615951149740514,0.4624718264439722,0.2324940401710749,0.4582880446005997,0.5314577764431894,0.5230040138140573,0.3815131490206318,0.0,0.3243260753167285,0.36779388132467883,0.46697476996093235,0.6192641567115,0.6576493846999871,0.5789682985327085,0.14294462576027112,0.42006575612438546,0.46712253451642605,0.3781823789228622,0.6507407374004526,0.6196472032916063,0.7053821665425648,0.29290038244925176,0.20613699332525304,0.5035534567908186,0.2962359624616262,0.452600320459025,0.5912895264225515,0.6483363303268423,0.466269673286126,0.08656757230196943,0.3853355838861847,0.2918746144489508,0.30078101107199373,0.5766348046398053,0.6801926450478373,0.6823356293843452,0.208910998379372,0.3742308318193954,0.48286419398237523,0.2956902283881453,0.5616718152699369,0.5774752635317109,0.6853797068526783,0.36818359699726466,0.16670931512049814,0.48537321344257345,0.2990486869074829,0.41373627309328853,0.6412820664549042,0.674666820076983,0.6454297158691031,0.17366430461735582,0.39047050221312496,0.5027118905150965,0.3544389793259448,0.6299303352148637,0.6391131818895905,0.7163125926178178,0.35651409463651706,0.15014473085642743,0.5182672304227705,0.3685671722772055,0.3957097747859182,0.5430578520939373,0.5641851099868744,0.49577170506715795,0.0675331299664923,0.3364642028581133,0.35559312166331525,0.3419338281731199,0.6272500375143975,0.6303560743337959,0.7310752855503835,0.27542932659456065,0.29057980691024987,0.5655680788513968,0.3566851167994085,0.556846796525623,0.7634685500785836,0.506946316176522,0.5405680040680405,0.6549410705590049,0.4294097559008736,0.8276438020030361,0.8704747682742746,0.7361960336232807,0.6132139707926845,0.3675520385346016,0.5246181062435933,0.3033336891661649,0.48524060009298164,0.7895191859908448,0.6199943796561218,0.6038234728213854,0.4086785739501657,0.6192881448023848,0.4852210202010938,0.47029842083990125,0.9032166449949179,0.7780098912763909,0.7557936411578021,0.510377879190826,0.4996996342018232,0.6458808971776544,0.3543178158157234,0.6974137472972428,0.8920910377383504,0.7222752667726926,0.6322109348910119,0.35167667030952376,0.5470239891419721,0.49160242370776475,0.4860357526329202,0.8852248340904678,0.7165066804828162,0.6993310578367766,0.45880350912254597,0.4756948479369836,0.6285615952246086,0.3899680827429166,0.7876450070499286,0.9030233268093348,0.6984778658679436,0.5215251240424315,0.30282979433653345,0.5262843478116079,0.3610396718091753,0.5350296846502736,0.8711593100628785,0.6963194971234112,0.6472870385244076,0.37154632212819827,0.5374308795852345,0.5286233991780356,0.3871821178260011,0.841739236182431,0.7917998379831102,0.7467654723549222,0.555184059050235,0.4694848535611933,0.6628963414185525,0.4022120666250544,0.6542415787627021,0.8826033974200782,0.7009734767893572,0.6750562670610001,0.42899426328919565,0.511763312144871,0.27300587650721697,0.45716375266693055,0.7442638728186535,0.5878256217342548,0.6350471398951121,0.3697980995328791,0.4509087523299282,0.5757116916352474,0.3675585581325378,0.8188669271935423,0.9703644047095712,0.8063609648194343,0.6703590026703976,0.44953550586241064,0.6425990916853688,0.4248644801213839,0.5569135631179103,0.9013546739379752,0.7015901790198891,0.6245548512189081,0.34993986587974746,0.4503260695795053,0.4973979749391062,0.2730763605174502,0.7041962756675004,0.7222010626094013,0.6400884649179299,0.5285206944445084,0.699467000790996,0.8518842467443442,0.5465617270502054,0.8503941261520205,MI
1.0,0.8691750883850093,0.8580797063687675,0.828682412239226,0.7893015878311715,0.8548509215622953,0.8777931615258394,0.6166220839276018,0.6225033800032287,0.6951918647591253,0.5573301882387389,0.3396229297519182,0.2038434372677871,0.365546129729758,0.544774761298233,0.6077112934313313,0.6097334831254597,0.6246609185190575,0.6491464178435471,0.6268382478665495,0.7066907461672025,0.5889749154612582,0.4571648810837792,0.536572495284281,0.42693835940387137,0.2319015295096556,0.03790914282557689,0.10829871571464622,0.3987585892522183,0.6565631379002184,0.7354377838717419,0.7450588946201098,0.7370681865870985,0.7261881109028565,0.7010655280350773,0.7652914041316554,0.5913874428676651,0.419140807046569,0.549614353839265,0.4756421875557437,0.2732171838119877,0.030546822628941595,0.0,0.26977214978790554,0.5795153529179387,0.7401416062322175,0.7003487382513582,0.7177046054782377,0.632643769282075,0.6492928917439176,0.7187579790246119,0.7033014165144684,0.7314193009892449,0.6662518075661339,0.4657659804377685,0.5499369088478898,0.47848031274301217,0.29793309719413097,0.08617477796765449,0.11387584626845482,0.3907285413110315,0.664048336370572,0.7627660760843733,0.7425736539706143,0.7313909607581806,0.7160275726229106,0.7073420146111677,0.7628166565731214,0.6723253915884762,0.4033451594966888,0.471085754910503,0.4606344632818302,0.3000351223721156,0.07735678679419733,0.06409009904394991,0.33262463309435586,0.6139662709324236,0.7389497361210118,0.7116625329502841,0.7101628838087275,0.7080751585989231,0.6989352862486062,0.6835211148647093,0.7539554651566334,0.6747891606895762,0.5140824776619255,0.5812855868657167,0.4776705752530348,0.30354233135341624,0.09177252052737606,0.10809915805282966,0.3701524322604641,0.6003638083847784,0.668441950463899,0.6896540619339533,0.721395505707902,0.6905118144636075,0.6709558653601984,0.7160839508339207,0.6584132997984264,0.4138841685047365,0.4688620120350686,0.48166378577037894,0.33129873799525655,0.11525983817438212,0.08316705029138216,0.33824042181178493,0.6260643065966212,0.7445768248171556,0.741592236864643,0.7177938127131713,0.7073003041616535,0.6983960244223257,0.6757216823150451,0.7178762955230964,0.5152858328184262,0.4762968095780864,0.5430388111540196,0.4163640073985293,0.2124598937900033,0.04948757360188538,0.20074521829168357,0.49395973969369655,0.7134464961037523,0.7533432513822254,0.7151768594342158,0.7197671458924615,0.7045810639778494,0.6934030945373808,0.7071629334877918,0.7083726065991709,0.4860835889857551,0.5426860328519594,0.5215504321410849,0.3915892231433731,0.40876273763096926,0.5524049845850485,0.6940336428725316,0.8191562715962388,0.7728327529023757,0.7438622194640419,0.7477876869810791,0.7646120199533739,0.7629296887300765,0.7983134284597386,0.7721511541388322,0.5831847150560863,0.29103471349286436,0.1098007044846685,0.2596677943420289,0.45981890544662063,0.6007772745749029,0.695127902264671,0.8123505950977477,0.7578790256881374,0.7337758174328881,0.7582555654732335,0.7528608982474767,0.7753856081492609,0.7930735226503354,0.7895293059688384,0.618894032352842,0.32149370966704915,0.12302475106921062,0.25883819238569217,0.4554664485623796,0.5797495449442716,0.6580747331393064,0.79262305815611,0.7594866623074872,0.7186562378154384,0.7511467624826953,0.7636309271803983,0.7325483899937932,0.7087987302994725,0.6138873941394025,0.3642110688738207,0.1355529068289829,0.22182735331847026,0.42891229039054957,0.5760034543832209,0.7360398752846424,0.8619591947282963,0.8004603688083658,0.738465129428379,0.748257597024462,0.7586611379372139,0.7571861258426382,0.7689035027564337,0.7872080757985829,0.6215393278971262,0.3339184474813559,0.10169416171330892,0.2081713151375013,0.41678949156089473,0.5519736357394203,0.6612876422966696,0.8372381607719976,0.8157108275678695,0.7620330852440249,0.7670439531760214,0.7751320022882111,0.7950119335238683,0.8114403154950702,0.6986541660100392,0.4254764958377286,0.1575351765267261,0.18645126766254094,0.39913653419560724,0.5640081089467424,0.6932028679231466,0.8270736158171084,0.7879682545914568,0.7622828285119385,0.7713845794555607,0.6803843530088218,0.7313242824561825,0.7607882814516704,0.7769255990049913,0.7618104378090098,0.513294777962406,0.1999488469872075,0.029816659121721045,0.20914479850148715,0.4373020760716366,0.5950460015433436,0.7121562972162154,0.8580716987410959,0.8023447496876108,0.7584967162634921,0.7807063268809225,0.7936785067290524,0.7939518511001029,0.7636792838545663,0.5908698597636228,0.29932363193141787,0.08593299141657118,0.19290286805832846,0.4090427234374776,0.5635311260152516,0.6661878856833732,0.7809127086069823,0.7577915680224467,0.681703100434198,0.6915460801017097,0.6566161993316888,0.6644182130078464,0.6317850432371757,0.5581426640200815,0.3550757144341423,0.29082248965009216,0.4942309328881207,0.6814486782122677,0.8050477802367668,0.941057825178905,MI
1.0000000000000002,0.8961678186954718,0.9044835681986692,0.8322471059480467,0.5620572416595984,0.44654923947531233,0.44089285171112413,0.37644415093404593,0.27191999563812463,0.5454367701528018,0.8074975403883775,0.849803297722479,0.8294439128990334,0.8544977246892318,0.4758276485468216,0.21938729620164432,0.5933810545064477,0.7299995632820664,0.41577110407878326,0.2663644307514488,0.5544424564301542,0.7102954703550488,0.6649352248386957,0.695259414027835,0.4848485907254647,0.03818108051267477,0.13355863571252669,0.6099227044091249,0.6758224367569852,0.411677053307421,0.5084263604726826,0.828212194294278,0.9074873343533889,0.8309577839773661,0.7966631683862373,0.6704902223312084,0.1986525606776377,0.15418615314957318,0.599883559774844,0.6490286443462054,0.34275877633504104,0.34037712750576676,0.6343100722581985,0.7290154701073488,0.724444715341712,0.7619519045947392,0.48515042964505106,0.10794827580654243,0.3676829253353955,0.563807501224038,0.2834935408164849,0.11235975745915994,0.3985935474832518,0.6768272387399621,0.7949400743276824,0.7858039597735005,0.8036027033567563,0.4976531784320819,0.05502539900999359,0.17081039097098216,0.6037653507070335,0.5662375275995903,0.3075559938123851,0.4548171554666891,0.7338090203967116,0.8016309611266748,0.7500862906293515,0.7273584193796927,0.3349216044121326,0.0,0.33588967280627036,0.6208596125901169,0.3944031978782172,0.2385040815492685,0.5278712386077646,0.711281253017271,0.7219083000543856,0.7337382718306718,0.786771759600571,0.4391419048694467,0.12274423702304227,0.45745690714204,0.6612327256244812,0.41340122469738594,0.3001255228406836,0.6018020471257732,0.7726735032235352,0.7778842976530098,0.7349807142491447,0.7554543168350303,0.4236140297317903,0.04061233941087927,0.3139140991876592,0.6734925033552492,0.5070857378855642,0.3122982863854291,0.5598236904006846,0.7698365943827474,0.7493019285542661,0.6779802571343996,0.7151638573104766,0.5917260005977691,0.1641353136262178,0.2882351651756112,0.581619241667023,0.3682960995400888,0.18102032563080805,0.45023946693727646,0.7097534523342015,0.7659959682736404,0.712989872929221,0.7299834758438213,0.43034697553569434,0.004286828283722288,0.21669031233472524,0.6168952689291767,0.513722289716043,0.28653563636203594,0.501227361347522,0.7650137876043857,0.795247028170124,0.7202295586861538,0.6905287776948275,0.2858461786268105,0.004146412377770137,0.3770854432771309,0.6364497705719552,0.41884364567360954,0.3474016426676043,0.6481241310532619,0.7880690109348205,0.7430292286115676,0.7445219426696152,0.5497019332075632,0.14030484282909317,0.33040768027964895,0.568422290908835,0.30319229868527175,0.14962429353909834,0.4555996460578311,0.6887125333195796,0.701358605871049,0.4215835198993638,0.21694212927389533,0.48616502955221375,0.6817472311393449,0.5722854953899206,0.8116764752730596,0.8429525643717326,0.8024410011772536,0.8494304772231478,0.7430970781723956,0.44880113341850625,0.48249054383678214,0.7205053163186339,0.6409819197150435,0.7563574470142698,0.8377211279418451,0.8060844357042265,0.8644065981432385,0.8227219821821226,0.5717082704344458,0.385598554387413,0.6239728448789832,0.7106128907826237,0.6193102795090561,0.8531358979900878,0.7898777068093172,0.8090377770820496,0.7899842086585063,0.5935960686014559,0.2914227614819498,0.4191480834179111,0.6694632030294352,0.5881187346487324,0.7836666097475373,0.8374567270252593,0.7494500449314774,0.8071377066855037,0.8360342727448213,0.661538765908076,0.3971252184805636,0.5746797627995166,0.7702627416391941,0.6533748336653591,0.8556672615734475,0.8430347852237656,0.8159922230638001,0.8381597224461108,0.801884874362637,0.5435989175919265,0.3724202431843435,0.624594620378083,0.7739210152980116,0.6621130495788747,0.9024854808209029,0.8514038534010628,0.7891759685841409,0.7865689883816243,0.7348048678202954,0.4451499763043245,0.34273297504612077,0.6271161153844667,0.6694964960865348,0.49867244664049415,0.7846739613326108,0.8407519696966907,0.8298838626020182,0.8507904850010097,0.7255167369590312,0.4244314988260136,0.45165373827990907,0.7219614474397484,0.6706145404347807,0.596873294889728,0.89165064238567,0.8720126644657762,0.8718079103998451,0.7986651501439439,0.6062994033185873,0.26150116726980044,0.2529334182219316,0.572847256335558,0.6442118579454228,0.4809010706802179,0.7921538638735057,0.8381208812573233,0.7921751408344109,0.7879200266234523,0.6901829814208076,0.4000810598620572,0.45432461346326813,0.7558270117515729,0.728194945949036,0.6179995367145663,0.9113830999434709,0.8810070007000144,0.9038367407500829,0.9561720399892588,0.8323601341466602,0.5185578136162612,0.5444393145212387,0.8005663051656577,0.6909553112843072,0.5341477555708527,0.8016621900185921,0.7521012393029942,0.755710749064854,0.7607006434349584,0.5287843027491086,0.3498751899408328,0.630347530390565,0.8719459106837963,0.7356900362446306,0.8857391347970707,MI
