0,1,2,3,4,5,6,7,8,9,10,11,12,13,14,15,16,17,18,19,20,21,22,23,24,25,26,27,28,29,30,31,32,33,34,35,36,37,38,39,40,41,42,43,44,45,46,47,48,49,50,51,52,53,54,55,56,57,58,59,60,61,62,63,64,65,66,67,68,69,70,71,72,73,74,75,76,77,78,79,80,81,82,83,84,85,86,87,88,89,90,91,92,93,94,95,96,97,98,99,100,101,102,103,104,105,106,107,108,109,110,111,112,113,114,115,116,117,118,119,120,121,122,123,124,125,126,127,128,129,130,131,132,133,134,135,136,137,138,139,140,141,142,143,144,145,146,147,148,149,150,151,152,153,154,155,156,157,158,159,160,161,162,163,164,165,166,167,168,169,170,171,172,173,174,175,176,177,178,179,180,181,182,183,184,185,186,187,188,189,190,191,192,193,194,195,196,197,198,199,200,201,202,203,204,205,206,207,208,209,210,211,212,213,214,215,216,217,218,219,220,221,222,223,224,225,226,227,228,229,230,231,232,233,234,235,236,237,238,239,240,241,242,243,244,245,246,247,248,249,250,251,252,253,254,Target
0.8730003128807724,0.8941018713973727,0.9176599311561604,0.9490310298999038,0.9686134262477399,1.0000000000000002,0.9949806491103816,0.9701990101640028,0.9362780837977323,0.9101431940304743,0.8776563927032714,0.8538110668596011,0.8186677428644977,0.787080906792262,0.7494913162448238,0.7124400239576467,0.6805766168873582,0.6463570672876571,0.6305304919984522,0.6129908191890825,0.5824079722088455,0.5797804425094017,0.5752902282678798,0.5441938163034796,0.4858832709810017,0.42651340752658107,0.367144086437339,0.31043258215736613,0.28582873673849085,0.28289352763416775,0.2858853480506147,0.31080245983809784,0.3675871228585772,0.4269564687619123,0.4863263074022395,0.5445432413616118,0.5725181733162927,0.5665090341139452,0.5677649262867812,0.5887704122183137,0.5893249462672323,0.579415983144435,0.5734242847990056,0.5723382272582895,0.5631169642623768,0.5729643031351432,0.5825186481515863,0.590746976832351,0.608317976049823,0.607166766449575,0.612767263407098,0.6085904012708483,0.6056749181015124,0.6056683827559743,0.6056683827559743,0.6044208729626581,0.5916245620680669,0.5891430840502665,0.5774508198895336,0.5806498166336074,0.5588147279490785,0.5017198491092991,0.45537125452994975,0.4076079401764334,0.3586626690860897,0.3108491220751206,0.2574147580352142,0.20844952629159352,0.15055664075938435,0.11687870801287414,0.11854004512201421,0.15253234082613765,0.20492701540062686,0.25218499322520427,0.3109921106065061,0.36675793270052304,0.41410824980655847,0.47297154277419584,0.5323417483086141,0.5915815861010307,0.6416373244931262,0.6904046921271421,0.728608663947367,0.7534275229392924,0.7749811734157424,0.7899735149393214,0.8149299272969588,0.8452616840997538,0.8692307524004883,0.8921413302623697,0.9239296651889684,0.9522988362224838,0.9840433596075668,0.9786968128047058,0.9593789945075051,0.941188225360649,0.909330535818017,0.8702805941620861,0.8386868652799115,0.8065260005801587,0.7730334231255573,0.7438121670900635,0.7118817650160969,0.680334970241925,0.6443182397173548,0.6117522375855866,0.6056809648919728,0.6056683827559743,0.6061875506126431,0.6151578102887185,0.6064960358327605,0.6054107188014479,0.594903388376691,0.590314284495556,0.6030240876531792,0.6142987008390788,0.6325992396658109,0.6175396579995274,0.6141770438759508,0.6164201554551825,0.5975896918626609,0.5896139230051733,0.5895282948974703,0.5895254519113744,0.5863245702281394,0.5776020590307176,0.5977848842481477,0.5794322437438983,0.5275910230522511,0.48136138188339284,0.43452302952054533,0.38981323145823255,0.33622664275334935,0.2768852989089219,0.21751599377159647,0.15976007001536963,0.1148280462688398,0.0912761239876485,0.1135504850079625,0.16680139430253438,0.21445996965141778,0.26978854788190776,0.31957121452410164,0.3725499737931026,0.42900905236212616,0.4758819418662352,0.5329512431198056,0.5793423976301717,0.6348308378104195,0.6770565596234916,0.7205038378434667,0.7508149915661406,0.7747800095366737,0.7914774088984846,0.8155901720411791,0.8412379360189506,0.8660725799073064,0.8925923800031537,0.9222668419808862,0.9509960517360241,0.9697894088034096,0.9576809572952525,0.928705052035087,0.8990027122645199,0.860721620174371,0.8345138291964724,0.8021784070381022,0.7717266887390284,0.7336827628537315,0.7033662184471996,0.6705173141063272,0.6375543281532672,0.6111237480820633,0.5908918461513404,0.5828236536288405,0.5735185747809683,0.5733882070389666,0.5724505925390233,0.5597231747417124,0.548753295028588,0.5411902919303062,0.5411402605113051,0.547129778222543,0.566361334917086,0.5861934678293295,0.5990072590952942,0.5899617380897249,0.5888795658405022,0.5765914862951529,0.5733960596852088,0.574638806617797,0.5901520230361765,0.6035821424479668,0.5930500894782462,0.6037617368325259,0.5925662619809813,0.540083022103534,0.4932843301437402,0.4405673461552102,0.39292522748551995,0.33410349272887285,0.2747358324114353,0.21830888772185664,0.17140466094697282,0.11279966488346704,0.060263810325563716,0.01603128934006315,0.0,0.027600495592327245,0.07740911385761318,0.12394989985308835,0.18055103347088397,0.22862495481588163,0.28360515309488776,0.3428848621838372,0.39478351630038566,0.44565276396698583,0.5048510612865587,0.5565882051609348,0.6050234064727593,0.6497342112367022,0.694984282686695,0.73521429492895,0.764767894190993,0.7871801630997906,0.8102491278409427,0.8310244940577058,0.8615919633338958,0.8924742837261161,0.9138083359763669,0.9402264764370629,0.9747038933013854,0.987915767012004,0.9653538374534072,0.9446901396707121,0.9157570895609772,0.890071203736827,0.8604602506626324,0.8293231685751146,0.7867420215585856,0.7547649255455242,0.7171695900202855,0.6809796212581924,0.6541068088074182,0.6292478084542215,0.6218787044394121,0.6217942722429759,0.6171548060978884,0.6060641192860563,0.6055323763387206,0.5963980593229248,0.5883796922900626,0.577238125938573,0.5972078925415134,0.5950158744238292,MI
0.3642147326527745,0.3575426003299582,0.38048895419413675,0.43569125829208266,0.5127910293723956,0.5894450380666187,0.6396447164265417,0.6674742742670556,0.6690018257889867,0.6675044094301743,0.6250351269845962,0.5588609166329159,0.505912170053409,0.4376825136888831,0.37742905158278495,0.32327274132083605,0.2663598126509341,0.2276485664712018,0.21360310900358037,0.22270101415765664,0.2868085242326135,0.3548008915198291,0.40766621087151167,0.46758960145099726,0.519811687209971,0.5330754602258638,0.5642920159097335,0.6231010233140899,0.6672436402040951,0.6591751669059729,0.6602827010279504,0.6540917651899902,0.6156020009105885,0.5396953783076177,0.4608630220047729,0.3820288023464067,0.30323143910267625,0.23493222310940087,0.2151769094310314,0.21323681318872278,0.2170213580663809,0.24411943542284842,0.3179679074124291,0.3967984592513747,0.4756326789097409,0.5544606739090119,0.626378679717003,0.6447585366464668,0.6314822900111494,0.6343673015382598,0.6541884863813894,0.6546089052058219,0.6546312981525562,0.6663452334452917,0.706332163448113,0.7263101003955228,0.7591300472168827,0.778080493611943,0.796780536204813,0.8127102176805217,0.8129373359643473,0.8151548835852194,0.8346571531990388,0.8369244418858646,0.836924827594653,0.836924827594653,0.836924827594653,0.836924827594653,0.836924827594653,0.8367145144075478,0.8212804530702287,0.8130123843462047,0.81952120178937,0.8158455832686093,0.8129654257452796,0.82043364058906,0.8528689184684914,0.8452323832470947,0.8369650544218707,0.8369280888992621,0.8404204888582476,0.8470364004922617,0.8099373126996281,0.7766720415123523,0.7751202795469503,0.765360799869105,0.7734752279739023,0.8099359157118156,0.8478210950366734,0.8679364684678501,0.8845312488250823,0.8850870245256055,0.898151651590863,0.9088255605221973,0.9088994977023215,0.91427847629001,0.9415491718137621,0.9900375009418743,1.0000000000000004,0.9365209066513178,0.8710102183414237,0.7923806712602417,0.7136364170791265,0.6463130200204446,0.5797459012243245,0.5010327258163754,0.4222062074441961,0.348918986317849,0.2879052267200426,0.20969031389811787,0.13570918456050451,0.07536399219710432,0.01632035829063705,0.0,0.04540596479319037,0.12349710050818086,0.19020663469769694,0.25738058288702925,0.3360533344501335,0.4038270947927547,0.46956666786695545,0.5330147444094226,0.5998161275235754,0.6540430341150332,0.706254792473811,0.7478724012782809,0.7619815131612961,0.7427895765404262,0.7281395774809436,0.7170476299625275,0.7162079117068036,0.6984470855965035,0.6930001686253031,0.6929912540022158,0.6933541167875914,0.7086567330980169,0.7096681140015821,0.684202241244511,0.6838508020611096,0.6961025889567529,0.7269983206439274,0.7563144290622108,0.7943335775380662,0.8135776269013277,0.8336652934057498,0.8579097910465134,0.87775831511328,0.8843189312719968,0.8675693644320699,0.8766709580209908,0.8848886711213595,0.8851887346527549,0.8995351002585674,0.9088639693657679,0.9088916271634484,0.9089310517686413,0.9169484352724706,0.9176099910357975,0.908938539174208,0.9089409458402833,0.9180480842304308,0.9373914489835191,0.9514800874899199,0.9151480420470421,0.870447995278349,0.8513272617025214,0.8371905262481283,0.836924386883239,0.8340189721721125,0.8136704711332952,0.7801565618571074,0.7425022866047315,0.7174853513318471,0.7248552047809786,0.7607461592318598,0.7792171636620777,0.7809385219799236,0.8129708140212006,0.8278883150919585,0.8133634986766474,0.8153276928949,0.8349858557412975,0.8371381866618064,0.8506140047616673,0.8697506560180921,0.9074647330891148,0.9589238941096068,0.9210726924834653,0.8426163152141033,0.7637820999283291,0.6850796687102125,0.6192208705711439,0.5512032784328329,0.4724404616872362,0.398690583996407,0.33801945611981354,0.259990675307487,0.19198835754651755,0.13206929093068442,0.08875714350370423,0.07713967993514803,0.12371228687006086,0.19333340566176327,0.2673062368089383,0.32791490827668346,0.40527918011841013,0.466770369072381,0.5378278601496334,0.5971582974166671,0.6554284478071728,0.7029980558407329,0.7168658278549334,0.7154947149461908,0.6959216271302782,0.6928901854022147,0.6808985475205009,0.6690867165646464,0.6659612031253581,0.6468258315477153,0.6450141537281171,0.645013362077866,0.645013362077866,0.6450650874207762,0.6541571270964601,0.6539910864808753,0.6672354180714875,0.6995216832846922,0.7387614091323993,0.7641457134327774,0.7804043693909435,0.8061430730093151,0.809844886794092,0.7907391046997891,0.7889477203702553,0.7890951281664478,0.8017040259728416,0.8128561712860902,0.8129358944050544,0.8129357646080635,0.811857146683777,0.7931167859692532,0.7813739565773461,0.7780446326190136,0.7767049993301551,0.7742483984701658,0.7725433285591081,0.7738870016247446,0.8098199774319128,0.7975604178360629,0.7893080807603479,0.8040097737523486,0.8129203031648582,0.8143215181790731,0.8329322435794904,0.8241046468393902,MI
0.3642147326527745,0.3575426003299582,0.38048895419413675,0.43569125829208266,0.5127910293723956,0.5894450380666187,0.6396447164265417,0.6674742742670556,0.6690018257889867,0.6675044094301743,0.6250351269845962,0.5588609166329159,0.505912170053409,0.4376825136888831,0.37742905158278495,0.32327274132083605,0.2663598126509341,0.2276485664712018,0.21360310900358037,0.22270101415765664,0.2868085242326135,0.3548008915198291,0.40766621087151167,0.46758960145099726,0.519811687209971,0.5330754602258638,0.5642920159097335,0.6231010233140899,0.6672436402040951,0.6591751669059729,0.6602827010279504,0.6540917651899902,0.6156020009105885,0.5396953783076177,0.4608630220047729,0.3820288023464067,0.30323143910267625,0.23493222310940087,0.2151769094310314,0.21323681318872278,0.2170213580663809,0.24411943542284842,0.3179679074124291,0.3967984592513747,0.4756326789097409,0.5544606739090119,0.626378679717003,0.6447585366464668,0.6314822900111494,0.6343673015382598,0.6541884863813894,0.6546089052058219,0.6546312981525562,0.6663452334452917,0.706332163448113,0.7263101003955228,0.7591300472168827,0.778080493611943,0.796780536204813,0.8127102176805217,0.8129373359643473,0.8151548835852194,0.8346571531990388,0.8369244418858646,0.836924827594653,0.836924827594653,0.836924827594653,0.836924827594653,0.836924827594653,0.8367145144075478,0.8212804530702287,0.8130123843462047,0.81952120178937,0.8158455832686093,0.8129654257452796,0.82043364058906,0.8528689184684914,0.8452323832470947,0.8369650544218707,0.8369280888992621,0.8404204888582476,0.8470364004922617,0.8099373126996281,0.7766720415123523,0.7751202795469503,0.765360799869105,0.7734752279739023,0.8099359157118156,0.8478210950366734,0.8679364684678501,0.8845312488250823,0.8850870245256055,0.898151651590863,0.9088255605221973,0.9088994977023215,0.91427847629001,0.9415491718137621,0.9900375009418743,1.0000000000000004,0.9365209066513178,0.8710102183414237,0.7923806712602417,0.7136364170791265,0.6463130200204446,0.5797459012243245,0.5010327258163754,0.4222062074441961,0.348918986317849,0.2879052267200426,0.20969031389811787,0.13570918456050451,0.07536399219710432,0.01632035829063705,0.0,0.04540596479319037,0.12349710050818086,0.19020663469769694,0.25738058288702925,0.3360533344501335,0.4038270947927547,0.46956666786695545,0.5330147444094226,0.5998161275235754,0.6540430341150332,0.706254792473811,0.7478724012782809,0.7619815131612961,0.7427895765404262,0.7281395774809436,0.7170476299625275,0.7162079117068036,0.6984470855965035,0.6930001686253031,0.6929912540022158,0.6933541167875914,0.7086567330980169,0.7096681140015821,0.684202241244511,0.6838508020611096,0.6961025889567529,0.7269983206439274,0.7563144290622108,0.7943335775380662,0.8135776269013277,0.8336652934057498,0.8579097910465134,0.87775831511328,0.8843189312719968,0.8675693644320699,0.8766709580209908,0.8848886711213595,0.8851887346527549,0.8995351002585674,0.9088639693657679,0.9088916271634484,0.9089310517686413,0.9169484352724706,0.9176099910357975,0.908938539174208,0.9089409458402833,0.9180480842304308,0.9373914489835191,0.9514800874899199,0.9151480420470421,0.870447995278349,0.8513272617025214,0.8371905262481283,0.836924386883239,0.8340189721721125,0.8136704711332952,0.7801565618571074,0.7425022866047315,0.7174853513318471,0.7248552047809786,0.7607461592318598,0.7792171636620777,0.7809385219799236,0.8129708140212006,0.8278883150919585,0.8133634986766474,0.8153276928949,0.8349858557412975,0.8371381866618064,0.8506140047616673,0.8697506560180921,0.9074647330891148,0.9589238941096068,0.9210726924834653,0.8426163152141033,0.7637820999283291,0.6850796687102125,0.6192208705711439,0.5512032784328329,0.4724404616872362,0.398690583996407,0.33801945611981354,0.259990675307487,0.19198835754651755,0.13206929093068442,0.08875714350370423,0.07713967993514803,0.12371228687006086,0.19333340566176327,0.2673062368089383,0.32791490827668346,0.40527918011841013,0.466770369072381,0.5378278601496334,0.5971582974166671,0.6554284478071728,0.7029980558407329,0.7168658278549334,0.7154947149461908,0.6959216271302782,0.6928901854022147,0.6808985475205009,0.6690867165646464,0.6659612031253581,0.6468258315477153,0.6450141537281171,0.645013362077866,0.645013362077866,0.6450650874207762,0.6541571270964601,0.6539910864808753,0.6672354180714875,0.6995216832846922,0.7387614091323993,0.7641457134327774,0.7804043693909435,0.8061430730093151,0.809844886794092,0.7907391046997891,0.7889477203702553,0.7890951281664478,0.8017040259728416,0.8128561712860902,0.8129358944050544,0.8129357646080635,0.811857146683777,0.7931167859692532,0.7813739565773461,0.7780446326190136,0.7767049993301551,0.7742483984701658,0.7725433285591081,0.7738870016247446,0.8098199774319128,0.7975604178360629,0.7893080807603479,0.8040097737523486,0.8129203031648582,0.8143215181790731,0.8329322435794904,0.8241046468393902,MI
0.07727676191940214,0.08939719067293117,0.11603592667375295,0.174251920371709,0.2516621336656275,0.3250992600665503,0.36751978693318677,0.3525205551242192,0.3051454374348821,0.23688156098115032,0.21035489532757978,0.1845552694074426,0.11820368071636134,0.11082539547490677,0.1638484442721202,0.22241724392381057,0.2502541589407583,0.3060595571308906,0.35573014622292076,0.3729887564360399,0.40509447910303464,0.4625483810630473,0.5389368459210941,0.6175442778864717,0.6961524576905651,0.774760637494659,0.8532558233744951,0.9196576089618156,0.9819234840910576,0.9618323215933304,0.9011878465165775,0.8351219020835612,0.7719772336561115,0.7069051307761547,0.6506939978171169,0.6228660838599192,0.603478274818241,0.5952992077817729,0.5952605379909981,0.6010913006131378,0.6176895521355132,0.6197229028472702,0.6450691521177965,0.6650034959994335,0.6893746197233837,0.7193006720967268,0.7526874959355649,0.7789594167420186,0.8050391035097157,0.8231389258591002,0.7989123837864027,0.7588723454389004,0.7082965393867493,0.6493351838874375,0.6034300555944374,0.5512506445259882,0.4988672142613675,0.4548654022947587,0.41565631977886497,0.38813246343013663,0.36811278510576617,0.36559482698363643,0.3813602814276016,0.38991658950242414,0.40833159463872715,0.41114050646820965,0.41114139934231275,0.41114139934231275,0.41114139934231275,0.41114139934231275,0.41114139934231275,0.41114139934231275,0.41114139934231275,0.4111407602801376,0.40927491329032906,0.3960060360645863,0.39823758121850616,0.398321382010288,0.39405917974963556,0.4047028768575527,0.4012376692748547,0.396827802389097,0.410913848559161,0.41114139934231275,0.41114139934231275,0.41112641607740175,0.40472456118108235,0.39421105649343247,0.41048879289516327,0.4124701243830651,0.43743040602742456,0.44752818139210193,0.3963569589580267,0.36931010200101166,0.3701916751883205,0.3953593469582488,0.4272893430701741,0.4172646771768127,0.41115463812986786,0.4128540592580028,0.42961551240492835,0.4140198786612834,0.4050522927786462,0.3599775117571684,0.2906574852634076,0.22470696946336677,0.15639103357083162,0.08929787037638004,0.025009378157358153,0.0,0.04324047068685344,0.10294372931457785,0.18019043756590136,0.25755865343669804,0.31821693997133904,0.39300219231042854,0.4716092299608463,0.5502174097649393,0.6285511103282109,0.6933776017076201,0.7630524753512407,0.8416362531488883,0.9202359273876541,0.9869754541216271,0.9518703123845778,0.892282064182043,0.8273548364412338,0.7627743645288767,0.7032153776717744,0.6451847693027495,0.6026013057740678,0.5625418212177009,0.5421322201906329,0.5287121544308526,0.5468759052011976,0.5492265955203881,0.5519413164246014,0.5748737453490285,0.5965241268438621,0.6196531389899591,0.6476261443208977,0.6921980022225958,0.7260099132348654,0.7697769666238918,0.7998175193684438,0.8246398399476846,0.8348759726177364,0.8162304517562586,0.7777523357363161,0.7287422937631369,0.681613860121971,0.6294037807490094,0.587166000758566,0.5396843292910463,0.4879294036523638,0.4463805894246873,0.4140849447648498,0.39461156712024215,0.38814606659667117,0.38812752350988644,0.388133174151418,0.39229548799502956,0.4101027138705291,0.41188466613034835,0.4293060655505525,0.4284807214102133,0.41176749983694716,0.4111415069857647,0.41114141180629105,0.41154871327902054,0.42662960961592367,0.43413598333657255,0.4341544593506863,0.4316782572724276,0.4196474949521085,0.43374325129897384,0.42488869507273863,0.4113872279624551,0.41114116819216395,0.4098368200542222,0.3914349571840736,0.38813207276857886,0.3888031114402417,0.40582359412140123,0.4112060012137402,0.4211552618926113,0.4362004525001426,0.46708543991666307,0.49790616052560877,0.4678288131059678,0.434328114990568,0.4153663152207674,0.4424476755032263,0.47541483422546715,0.48026552616137375,0.4881426037109651,0.4842038219716067,0.49410160024570793,0.4806080109773361,0.47989082162321894,0.4598310762063518,0.3995106565863189,0.33971442952467346,0.2642249515278712,0.19925803616609494,0.12991540590637163,0.06414757990394548,0.023504294569090867,0.03708162677997606,0.09192987694952848,0.1522444961251006,0.2297380026661835,0.30834608729080326,0.3869542670948989,0.46535047810329155,0.5307883614413926,0.5997927530679563,0.6783731104788462,0.7569812902829391,0.8355894700870352,0.9141974595321822,0.991193472730473,0.9999999999999996,0.9432901794419384,0.8720529695274251,0.8130716413110073,0.7550067891737098,0.7007149181138539,0.6613342170400118,0.6379799182059585,0.6178892764807915,0.5980354669492902,0.5952553318429463,0.5953938962077578,0.6037340216889793,0.5993523031778496,0.6184211345944148,0.6387253043695496,0.6685896713200528,0.6960144993499706,0.7343443932193021,0.7688421509862753,0.8000834679356479,0.8168317384004617,0.7989532235969761,0.7585847534354131,0.7062939642934882,0.6622174274233839,0.6222005311574468,0.5733402789255169,0.5327686249238175,0.49017468832168776,0.4514251701239065,0.4186874329273307,0.41116892628068413,MI
0.28469069951316195,0.2823890545659067,0.30766243035207497,0.35490325943514645,0.40512707887251365,0.4238343054491307,0.4317176707464534,0.42602534367449607,0.3860175039759097,0.3398426479559893,0.2944983627150912,0.25481930654662666,0.21712340288934184,0.19427223069645327,0.19195242841019367,0.22304170629820375,0.27403418811174873,0.3130583914808285,0.35533196577212056,0.38889993653294086,0.3960300952903255,0.43631200516147084,0.4580693021605913,0.4618396328812593,0.4477055094375313,0.39559374205668574,0.33878913204328587,0.28197506409937834,0.22604396987641628,0.19512003069934503,0.1906529771756058,0.1925296181202807,0.21203354125855034,0.2651914136569258,0.321999038669452,0.37881286241082046,0.4345071491373411,0.4611118282315423,0.4548989166820596,0.45866595933318965,0.4776414530540323,0.49251095046070725,0.4994421636212967,0.5038624784223287,0.5064851141042648,0.49319761338529444,0.48062213670726717,0.4993895252206584,0.5071759617540725,0.5135925096745133,0.522116118911216,0.5240986668900653,0.5262442463969559,0.48744692923697386,0.43678804979888985,0.39081873054670746,0.3380979705553995,0.29062453004783695,0.23932428587366505,0.18284835940111321,0.1363749183132308,0.09077691122549592,0.07823635646857552,0.11597327041917005,0.16739742740784314,0.21415489256869646,0.2706828377944954,0.3274792658611094,0.3793149117683541,0.4263110043770695,0.48286468680396455,0.5396789827938449,0.5958533727229782,0.6304713798652659,0.6130237196329227,0.6056380942854576,0.6332935063571203,0.6658609365726069,0.6882304522539311,0.7060599083863806,0.7282273099143266,0.7481632208088893,0.7784554692062451,0.8075467227723623,0.8320666465557789,0.8644513958217268,0.8930050458145793,0.9240362020350048,0.9615219784092419,0.9893910656705107,1.0,0.9732342269046588,0.9398063823631455,0.9013145035170727,0.8596615686063092,0.8189405897233497,0.773945220113986,0.7346599410332093,0.6930697652520728,0.6529907838073195,0.6156287632733077,0.5811771536410961,0.5598185521558845,0.5524710157193575,0.5524538575028202,0.5589877463605384,0.5630815750667999,0.5527839701111801,0.5514642586453498,0.5374863746828797,0.5231058181184749,0.5146333782004189,0.5072526591898381,0.5047366862958094,0.49287883268168553,0.4943524022664847,0.5050447587059561,0.4941812307408524,0.4920004753078002,0.48456353728703894,0.48986382682321805,0.503595014855506,0.5017979806623107,0.48781923037289143,0.479472442046466,0.4909796599226137,0.49239140251976465,0.502461428903783,0.5031388387325197,0.49115061403811344,0.462237135260295,0.419788973246785,0.3757751413779471,0.3235852307472271,0.27775739657141507,0.22150852262805998,0.16913128848249803,0.12393475629298667,0.09037161580003406,0.09727752766286524,0.1482514511060007,0.2050438939013559,0.2573084259543683,0.3039153791271554,0.3604270692785776,0.41724143453299556,0.4739358226670398,0.5133911276708667,0.49524737419814313,0.4987610816039352,0.5250940940660076,0.5546976273349058,0.5842773476611316,0.6033690598173123,0.6131849493200376,0.6265126514391861,0.6530094518768048,0.6862262249376059,0.7184894549565564,0.7520553595566297,0.7866338515279008,0.8212625632996349,0.8466647342271738,0.8362123009492972,0.8106298773441503,0.7822180772173524,0.7504847675972077,0.7127021611599487,0.6748608231919921,0.6370254936380482,0.5972608601749099,0.5472524220367307,0.5092030253351107,0.47533121093010644,0.4396114944227305,0.4182367809131886,0.4030330561464197,0.39516011786692307,0.39008471469618566,0.40118711592691936,0.4016336660235398,0.4016337421009806,0.40164045146062,0.4044747275886258,0.41571260523757836,0.4023664830083704,0.388599203053412,0.4000749379592734,0.4017753857682611,0.41261738841443085,0.43059832390156094,0.43515292938341466,0.4447423106731736,0.433087784886534,0.4285872888677451,0.41734040927350735,0.41952260952514164,0.43125288667562733,0.4403557080816207,0.44070872285913154,0.4319150838054755,0.42739290153224685,0.40449000480111064,0.3531701054077576,0.3018010582185333,0.25441585270657985,0.19913652784985292,0.1542891764419556,0.09925310358198303,0.047237661444582635,0.006334004304346497,0.0,0.03410603850222116,0.08861070413216887,0.1334356283539524,0.18815341030618793,0.24496558778733712,0.30151080223807636,0.3484424359977303,0.4003542392530197,0.45713312734809275,0.5055217492167321,0.4907011369369494,0.483468651745504,0.5091017839689713,0.5374994225683105,0.5636482726966783,0.5829719769269066,0.6061513073301619,0.6284086804644153,0.6505867584913738,0.6797436978310523,0.7136014396474866,0.7421600375227646,0.7731168420924166,0.8064485156723951,0.8349086927277112,0.8613836042907348,0.8654287757752539,0.83496674279951,0.7971349628228208,0.7631037122135744,0.725648224035492,0.6830959567871675,0.6404223994501974,0.597938199490307,0.5598196968755236,0.5258512890173503,0.49733427389129625,0.4703900558623739,0.460906755736918,0.44902440820266865,0.4534524326579108,0.4675322278130083,0.48047982182512383,MI
0.18021741216262654,0.17066178236432705,0.18293441365462648,0.23712796280572324,0.31218139617524887,0.39613716163162405,0.47198719539432865,0.5281754976137343,0.5610221042305374,0.5424571903348196,0.542408920674216,0.5646607186408614,0.5545470709131344,0.4860428776172414,0.4292081253068334,0.37323151231989105,0.3131186024212971,0.23392755816542987,0.17683902634854753,0.11832520501013288,0.05893649643106569,0.017521513672130506,0.00028317865458538094,0.002437387744252284,0.05566065745023563,0.1371115255450457,0.19602498740086371,0.2536105168409275,0.31745414176101683,0.37122454741488564,0.360270956731223,0.2902399947191423,0.22372404937025792,0.17009561099287662,0.1317652666913327,0.05788197587055732,0.009741586988397888,0.0,0.0032847538516951325,0.04325479820768097,0.09245269614323792,0.17297344069471077,0.24754802646564933,0.31283134236949106,0.3964889134446956,0.48021059740254657,0.5469946058020492,0.6200238040574106,0.7039804562803145,0.7879735433377624,0.8697438347158011,0.8856505282502383,0.8324070236481482,0.776702578857881,0.7328420410148997,0.6929931484919898,0.6832816394156671,0.6832613566813288,0.6832613566813288,0.6832613566813288,0.6821192468257511,0.6613031441385528,0.681267212255305,0.7012037966887341,0.6905741914102945,0.708544625733885,0.70696938848348,0.6847584264441062,0.6832735251236386,0.6897056383261999,0.6996032218595705,0.6892044240766388,0.7108543897679116,0.711720311413873,0.7025288904533875,0.6749447858353337,0.6549317084023967,0.6366562459216869,0.6250837147106783,0.601132466019064,0.5978188590210589,0.5978160133216308,0.5978160133216308,0.5978160133216308,0.5978320688959915,0.6057451947304369,0.624973567325422,0.6045506726700172,0.6137976550699156,0.6262495183353121,0.6262977944415304,0.6262977944415304,0.6262977944415304,0.6259439037698344,0.6071119856266138,0.5893832493898357,0.561799127041466,0.5412301626279623,0.5408529630366878,0.543571928510123,0.5699896204986086,0.6049390993501014,0.6259525073856427,0.626236310253371,0.6120647551401364,0.5999421337480086,0.6299444374878922,0.6498440128590106,0.6153047685507786,0.5649295253683331,0.5056434518784236,0.42363002511533576,0.33966083729656393,0.26498530930756115,0.2110541817206384,0.20360290074426146,0.26016541156993966,0.3202024912410648,0.4029451627547127,0.4769401683813177,0.5427216421546666,0.6261478215631824,0.6916342891050187,0.7659962248313619,0.8468183328233554,0.8587633445813969,0.8184029078088857,0.76269796883527,0.7191633335314842,0.7004624861695161,0.6835229705825503,0.6832613566813288,0.6832613566813288,0.6832609591634418,0.6811921281626887,0.6580693440029064,0.6765048593086185,0.6939245706019435,0.7115886854677633,0.7117431378012284,0.7106912129457212,0.6878390244302564,0.6855024493829127,0.7034695424294473,0.6845704439302338,0.6832603779441051,0.6789552459904362,0.6631005891714414,0.6703068883402397,0.6343233656937777,0.626313409686726,0.6262977944415304,0.6259530845896455,0.6080174939466847,0.620000096861574,0.6262958951894007,0.6262978054836932,0.6266755059876612,0.6468853918103914,0.6547667357726166,0.6547795755614292,0.6547795755614292,0.6547795755614292,0.6547795755614292,0.6547795755614292,0.6547784231610887,0.6505305304926603,0.6160748366453639,0.5980192841875134,0.5869497161688813,0.5749254809512285,0.5969898546875294,0.6116689030209361,0.6493349037949914,0.6686819582635168,0.65514674787656,0.6547795755614292,0.6547800624204587,0.6573536172328431,0.6649505347000995,0.6333664188889383,0.577345231336885,0.5035069200416009,0.44144964756786376,0.3595072821161551,0.29745426757815796,0.24561740191392367,0.2343360737960971,0.2776615418225701,0.35127784555874175,0.41325623505574427,0.496342565789484,0.5794794777972205,0.6420973011545241,0.7198427742601607,0.8038342300889045,0.8878275610777822,0.9713551438192729,1.0,0.9459788040313502,0.8825059926299517,0.8394242105602148,0.7884928059693888,0.7688220411021565,0.7555228528264015,0.7404220341307326,0.7401840522267307,0.7288553974428407,0.7261938105929522,0.7199218939010388,0.7118812241178407,0.724480406047106,0.7219159085396907,0.7338819580027831,0.7402230036076691,0.7402217435825165,0.7334293246189052,0.7223274101237918,0.7237313905626843,0.711835621799989,0.7117431378012284,0.7116829422064281,0.6976763348730515,0.6786781419698995,0.6562864996214044,0.6547363856500734,0.6428971534846708,0.6267092245118375,0.6407980806816607,0.6547200242633098,0.654407554131712,0.6354873828162244,0.6242255144690363,0.6011057817631071,0.6195202438338967,0.6193186157438246,0.608644410773036,0.6260890050448209,0.6262977944415304,0.6262977944415304,0.6262977944415304,0.6262977944415304,0.626243397516852,0.6129880028587245,0.5973059208548603,0.576278373031724,0.5655971293261084,0.54415131789687,0.5697285926886435,0.6019986366568624,0.6253285891136926,0.6305982959307235,0.653686856500376,0.6547795755614292,0.6547795755614292,MI
0.7928091589898107,0.7808536227503655,0.7412069223971365,0.6972934182726496,0.648684263710984,0.6019745498283493,0.5582698324367961,0.5095038220936594,0.43013331604494276,0.31610600424080726,0.22807636409291465,0.14757519770022487,0.06733754712276774,0.014448777954557457,0.00015914618895163102,0.028973135066640232,0.13449069845545125,0.22366648508851927,0.3038403315339311,0.389069560384927,0.43136859581262144,0.3594510309420835,0.2893485942821723,0.3289809599925686,0.41621298479585356,0.4824332948229415,0.5222556373193283,0.5881592776858442,0.6219145224870815,0.5731631418648506,0.46278520743073415,0.3470077801554936,0.2312249798776742,0.11557229856794127,0.02327297079635393,0.0014913034450181328,0.0,0.010081392124952515,0.07152045371491855,0.18531141596718914,0.3010939110798061,0.41663621502182835,0.5074720479062522,0.5762784132650696,0.6101920778473975,0.5932961533534815,0.5955750552878971,0.6236492680855941,0.6242876120624938,0.6245017113013862,0.6525887841622859,0.7274879298916774,0.7755662165897999,0.8199348848984753,0.8839943095493252,0.9163101689886499,0.9421499928077592,0.9500630976212916,0.9515411886343923,0.9777183196535972,0.9840078764968636,0.9840122701104708,0.9818141264006384,0.9544946407346275,0.9498104725538941,0.9300511372175384,0.9162368245427128,0.9157710669219821,0.8940303600083563,0.8822679321366618,0.882203744337402,0.8807019693846687,0.8520426268244243,0.8172092749469444,0.780653198961688,0.7477422549884469,0.7653457982539162,0.7813675962631308,0.81510644337874,0.8798765976016503,0.9219662097803756,0.9485744501038686,0.9468379474528632,0.8765215321693631,0.7874092681071971,0.6783771297648418,0.5626033392935055,0.4468205390156861,0.3310384711343506,0.21773407099434117,0.1342680412156616,0.07684234594170292,0.09976359621126107,0.1746565290418829,0.2741800597469579,0.364507535214174,0.4727749550790392,0.5823017683563458,0.6719022102451877,0.7861835651486944,0.8992965712017362,0.9686581495564894,0.953293336713541,0.9244233395345116,0.9131205410534147,0.885263041517403,0.8609467352942985,0.8173138723541715,0.7803330735653633,0.7263348831924921,0.6973057837275851,0.6563812395754507,0.58634721118574,0.5370824485552044,0.4977641340971637,0.45039741174933656,0.4411922435476434,0.45919665266735876,0.49777261565288633,0.5412742388197804,0.5864643112482479,0.6400669783896111,0.6984607063315167,0.7696784596171788,0.8306508398767418,0.8806963377567039,0.9149861025511834,0.9437811515917796,0.950071538484397,0.9500764691887635,0.9500848423447428,0.9563293574295724,0.9824893418839986,0.9744542931604174,0.9508278630728411,0.9497074903807032,0.9279666980208212,0.9161797158108014,0.9060666713531225,0.882897872797618,0.8822038541968755,0.8822037931638347,0.8821770584217354,0.8715083413314044,0.8488831969547279,0.8364997893138204,0.7837043850024212,0.7458016388949655,0.7135124004437525,0.7125225181261872,0.7136283022453487,0.748154329745855,0.8057514620120818,0.8616751429865497,0.8821020735352896,0.8955393225036907,0.8755628927760482,0.7904787089192382,0.6763895792289194,0.5606338188584008,0.45551973567091064,0.3623410561896341,0.24719649829488954,0.13649690635030165,0.05757507159069508,0.014054717637154823,0.03857023424096617,0.11052775951770677,0.21496130406359892,0.3060294412825604,0.42082949853439455,0.5263455493099816,0.6189402234465913,0.7312311856684977,0.801182902694614,0.8880682312591652,0.8987171356224621,0.8612448044640555,0.8483276777902118,0.8390815307881407,0.802407575716984,0.7939062363141769,0.7596389362777067,0.7290793867280261,0.6835594247876466,0.6481222982377668,0.5831258629829845,0.5349765877465558,0.49121671485836504,0.4430189628697594,0.4103839357233081,0.40807807251715467,0.435251317795176,0.47070031416403246,0.5069864856335027,0.5787573367268815,0.6389785223913043,0.7111556655804989,0.7677178951286159,0.8210033013623068,0.8682302081023305,0.9061612346325649,0.9337427022114984,0.9416266354415557,0.9238230541069496,0.9487221542305457,0.9553159124933748,0.9807315886687089,0.9563291132974108,0.9500848423447437,0.9500753461808147,0.9466379987193623,0.9198319363670837,0.939346930999573,0.9368702311796726,0.920482518712415,0.9362813087793258,0.9167190818385622,0.9171977860077822,0.9291605753457501,0.9164810337964076,0.9151878198160395,0.8833719663047752,0.8463403941137333,0.8117272702546838,0.7830360687779363,0.7942510264452274,0.8017039802994086,0.8303181942591111,0.8880107048842749,0.9459690473139899,0.9500748090900579,0.9475030577561689,0.8828805237294404,0.7682398133809283,0.6619932874820575,0.5698376008618657,0.45714499127609276,0.373156704749829,0.3149106556929615,0.33510863595918305,0.4018873135014447,0.5062896442484819,0.5947457378926782,0.7075217961857669,0.7993268975007721,0.9058921430180638,1.0,0.9514149679806136,0.9165698661407209,0.9047227867992707,0.8671118563905766,0.8480032461978082,0.8232760163196851,0.7873151977613748,MI
0.6721046601062315,0.6770998716098835,0.7104821464548174,0.7494878082459366,0.7640289186688842,0.7839389178223732,0.821190703558389,0.8403308069005786,0.8510981971326084,0.8437222066445251,0.8361116534936239,0.8272611140765265,0.809084452459349,0.7926057202969043,0.790277449668189,0.7905481109823729,0.800619104665786,0.8155990443291357,0.8375333004072854,0.8430251404108193,0.830332298973282,0.8268863124407,0.8359778428616131,0.8369922053928005,0.8490750211531712,0.8590121974851996,0.8666688160874711,0.8658181408421699,0.8536992077103713,0.8442200701673079,0.847843144714266,0.852038436315246,0.8627378506914658,0.8488796685002029,0.8477336754519511,0.8658237094306451,0.8770763706404314,0.890529053511953,0.9048093014885086,0.9251094311990062,0.9146077911372603,0.8857678384641114,0.8820294660729688,0.8820249557452366,0.8840637353884833,0.9065582408627386,0.9017804494274282,0.860561139493317,0.8070941823993234,0.7532013008607792,0.7103341572661366,0.6572372032763099,0.6052481845010607,0.561824844635622,0.5073788810045268,0.45232928333848843,0.3975585290235717,0.35314899629062424,0.30246149879694295,0.2474218046830432,0.19238441382115234,0.14164803869232645,0.10517272436511615,0.09516768951069388,0.12677082455171407,0.17118877866879845,0.22601356064441513,0.2810633310294599,0.33609212110632214,0.38604427011024844,0.431145854990282,0.48536683021194893,0.5287901700773867,0.5806162172613263,0.6259539438902055,0.6580574076995904,0.6979015202883447,0.7403407358256477,0.7838418468137127,0.8294326594433725,0.8655372498108229,0.8874648227520816,0.9015166035630604,0.9131655419585711,0.9217757472693959,0.9130866595475093,0.9082808129626332,0.8908717513303497,0.8820602442242431,0.8747995333597149,0.878704324233039,0.8945947875561426,0.9164307516838446,0.9394611674657325,0.9560237909868379,0.9584797267791476,0.9584813388232081,0.9585420006818279,0.9660082457567367,0.9865024431914331,0.9890629325486171,0.9890645445926776,0.9894488070111609,1.0,0.9964008675592906,0.9789716142335663,0.9737918493880473,0.9707721228093797,0.9657628737944477,0.9699789638677934,0.958975459768928,0.958581682232265,0.9685283166265912,0.9876321602810276,0.9878798256971892,0.9672262506602745,0.9355912166969795,0.9279385461937819,0.9210168363855735,0.8952058390209872,0.8913087060207951,0.9136383823599297,0.9350478278815233,0.8987316528374643,0.8438201321816092,0.7946815115619184,0.7488218339383317,0.6939377603773402,0.6407159822665118,0.5979154195626815,0.5440784976358817,0.48902913026185146,0.43489294054943706,0.39189925544186366,0.3391676794143892,0.2841216516064069,0.22907188122136146,0.17402211083631713,0.11946873558629467,0.08889471119732151,0.10363310726114139,0.14960860566893408,0.20023296744327723,0.2446425001762247,0.2993331836548203,0.34688933397699206,0.3942835796468058,0.4476881494704905,0.49042869397920175,0.5435854705772036,0.5875142856183353,0.6387927326409923,0.6854721565399546,0.732881988153725,0.7739453341072764,0.8131521576784495,0.8517724507011617,0.8707430519213197,0.8723385399689483,0.8718893883109367,0.8793407881537365,0.8632800964841092,0.8487443787628552,0.8317003422843823,0.8174284570058101,0.8001262087393775,0.7927607651197905,0.8062345425942823,0.8196428748154387,0.8358219707009993,0.8603461528039635,0.8479849044396768,0.8365330660288244,0.8363130611093408,0.8455832247071209,0.8583176068905871,0.8548610367846172,0.8635054216823237,0.8572397644987433,0.8426062828139305,0.8228893588097601,0.8208585442062972,0.8199491859963897,0.8107041855920896,0.8124721830883495,0.8056453808121828,0.805532777246571,0.7987982455970668,0.796993786628891,0.7977304649022927,0.7906283545377013,0.8011233164597074,0.8193594360009433,0.834313389692209,0.8196226851737571,0.786120815785444,0.7633405591862519,0.7710134723150248,0.7628556866213843,0.7744934565940964,0.7901987420476275,0.7894000816531141,0.7507233781602491,0.7000434040920536,0.6461600806676362,0.6032929370729931,0.5501939104550893,0.4951648686742782,0.4451424921768301,0.4000634296391432,0.34528806314534477,0.29023829276030133,0.23520761963378845,0.18518524313633966,0.14010618059865299,0.08533150498088027,0.031715270367529635,0.0,0.0057143989894161695,0.054760678734566914,0.10975670156953665,0.15898229488938198,0.20477627735451454,0.2596341066826493,0.3095862556865754,0.35468427070855313,0.4071908583265982,0.45012416944056266,0.4976375158605286,0.544115762898604,0.5915549801327473,0.6388499762805453,0.6854120704113571,0.7268778575781245,0.7616882689745785,0.7784222775395158,0.7957110212523117,0.8057774601855732,0.8147345270762529,0.8067403669280564,0.7995118151395806,0.78182986685646,0.7750483320084243,0.7778829286234981,0.7947297134564439,0.8090108379301086,0.8286166821134335,0.8519192932412265,0.8602856090783186,0.851489246246873,0.8424796780278663,0.8482424101847816,0.8424867891573316,0.8621599815516086,0.8667193419916455,MI
0.8973232259539188,0.9263514832944963,0.8453359701896037,0.7636153813068933,0.7110718060045347,0.6298435584929933,0.6012551377795585,0.5444006707422222,0.5405998661874474,0.5405989555915216,0.5405989555915216,0.5405989555915216,0.5405989555915216,0.5405989555915216,0.5405989555915216,0.5405989555915216,0.5405989555915216,0.5405989555915216,0.5405989555915216,0.5405989555915216,0.5405989555915216,0.5405989555915216,0.5405989555915216,0.5405989555915216,0.5405989555915216,0.5403033613609018,0.48915070631793256,0.3802453204189433,0.27880294004964057,0.2715031085427171,0.3372955545385832,0.4698840846357353,0.5385434769365265,0.597265352803733,0.6233433850724062,0.6604284620627574,0.6239601652283291,0.6750199531170225,0.6419437448136662,0.5460923930210164,0.5405999800119403,0.5399723880130551,0.4895277601289596,0.4920321416693181,0.5501272369883043,0.6714430425030322,0.8378892976788279,0.9849662011042817,0.9639800070111733,0.8817056110351089,0.7668735573779824,0.6814758457063519,0.5994711539641049,0.5427146585493805,0.5399248296753161,0.4879048814133533,0.42160223400115093,0.31731814694694727,0.2610604095259248,0.20536484949984946,0.16652550529618537,0.13222083661279882,0.07769584812780117,0.0675763491673198,0.06757486944893998,0.06757441415097531,0.06056806064388276,0.003801715150700602,9.10595925773805e-07,0.0,0.0016328144222832464,0.05092454372886479,0.11122112671225359,0.20257612828456573,0.269844045522591,0.35171351268090767,0.41250233655956237,0.4849395120741935,0.5670400240797999,0.6103495552383276,0.6889557223339793,0.7568887366595796,0.7976704278899298,0.7454383563002747,0.7433236777628327,0.7433235639383415,0.7433235639383415,0.7433235639383415,0.7433235639383415,0.7431260458199649,0.7072615066634871,0.7051199002045969,0.7430783736577347,0.7433235639383415,0.7433235639383415,0.7433235639383415,0.7433244745342691,0.7471252790890421,0.8038916245822243,0.8102237383486237,0.7584999534397348,0.7433499610705034,0.7433235639383415,0.7427446685221106,0.6895884290480634,0.617082037910647,0.604946596736978,0.5161862231916707,0.40903069129748815,0.3396967740581065,0.36786753825175644,0.4824905945988345,0.5987475346938105,0.6706120466927459,0.7286630637046674,0.7433167344688947,0.7323886945694529,0.6783431883011666,0.6655943151311927,0.5898896853522881,0.541887748445868,0.566741567109343,0.5499911928980037,0.4939264523768543,0.5176017363632948,0.6019545728910725,0.7256441333570329,0.8917996887553095,0.9999999999999982,0.9393928033618764,0.8751016615660294,0.7760881341150654,0.6643894083650519,0.5491408183864905,0.5406002076609209,0.5400677323375209,0.4889132855196401,0.4151455230804544,0.34119145721608923,0.24011641321377653,0.20289914406776433,0.2027209659631133,0.19021851475240048,0.13726453125981308,0.13514985272236935,0.13485687645503752,0.09464227786670243,0.06770002564028665,0.06757486944893998,0.0676259563458963,0.08527896436159565,0.13548103246793097,0.18204666659244317,0.26568833776429734,0.3347928366295694,0.3988083553180797,0.4807131497562338,0.5436804662066539,0.613816497096968,0.6779759770775602,0.7712143568034353,0.8109575398359894,0.8444276958289123,0.8783234568800768,0.8746089424822259,0.8197555593605106,0.8108997992811755,0.8108984333872833,0.8108975227913575,0.8031070368898767,0.7518953563438711,0.7749403291416943,0.743510444541684,0.7433235639383415,0.7426493241976466,0.6909257669377364,0.6790948288326124,0.7347432544179373,0.7331729407883305,0.6786375406577623,0.6934532447000201,0.7427446685221106,0.7433235639383415,0.7433235639383415,0.7433235639383415,0.7433235639383415,0.7429317147873302,0.6859952771607194,0.5824647962404264,0.4976912868760124,0.42081419416573596,0.4258696049882644,0.506133798394254,0.5624958054948923,0.6658542813900095,0.6785796242913591,0.7142067005374031,0.6797350137536267,0.7300955584409898,0.687126696404448,0.6610357414648842,0.5803108347037647,0.5445892587129251,0.6138125132397878,0.6625202336940887,0.6106053830339722,0.62856952357029,0.7189793854199333,0.8298663810055729,0.9636642546341481,0.9547009506705653,0.9238516304695015,0.779304046388928,0.6318881225364308,0.6004578637313376,0.544159681772399,0.5402115455956515,0.4957767624083189,0.4451970778948713,0.35149519241268123,0.2724752079936259,0.22979224441356472,0.20260457425755973,0.1643710986569289,0.13528541877977496,0.12578734582392315,0.07824552506387761,0.1219223025229823,0.07089460665999248,0.06757555239588342,0.06757498327343114,0.0696896618108731,0.12264364530345873,0.13702069667771788,0.19162528959199143,0.26257873585802294,0.2906940380806784,0.38104160639587903,0.47287560608032564,0.5412432729040315,0.6507618660533794,0.6833752461959985,0.7551138336786067,0.8102718658088186,0.8108984333872833,0.8108984333872833,0.8108947910035766,0.7983940471602242,0.7580838533046599,0.7976705417144228,0.7457551219318521,0.7629290243327755,0.7606720805060565,0.7919692277835555,0.810893425109688,MI
0.7150862446060335,0.6946812511898512,0.6837035506710345,0.6427317981940499,0.6410869101339136,0.6410869101339136,0.6410886187100298,0.6446038845512847,0.6892633133529484,0.7014058418509874,0.7814002893080394,0.7965752548950986,0.7178611912681445,0.6516580596226715,0.6418234195154922,0.6690715782031029,0.6435634254296003,0.6413241114597232,0.6718453302385532,0.6585835558031432,0.676990617892403,0.6757647321678979,0.6081347298324848,0.5448664574541473,0.4843744980275142,0.39243589217545516,0.26212125726068347,0.15526809752432502,0.06650103672769436,0.058638613829745445,0.1538286629166068,0.2670671809258822,0.3610837204594892,0.45273912706923714,0.5239175658837043,0.547765246181295,0.5698901256213675,0.5380495307341588,0.5595783313866329,0.5387502672562983,0.5964049617421816,0.6404235509039955,0.657279238854021,0.6940959006006091,0.7138582431262206,0.7605937223531383,0.7845706206154679,0.751852155279713,0.8060192234425729,0.8965116635121602,0.9210093374021673,0.9619145527252373,0.9905059886105994,0.9640548761558145,0.9617619934849104,0.9617513037024059,0.9465862356534638,0.9093281642146627,0.9098159613640826,0.9500411910211417,0.9612127175084746,0.9246275142152749,0.9111736652306055,0.9543374841822176,0.9617652854011949,0.9735647750627914,1.0000000000000009,0.9344571662822903,0.8893438282872301,0.8223574277784662,0.795375710788119,0.7511901501902889,0.739890138221047,0.6971828247161485,0.7118499810356615,0.7415136604883026,0.6843930794978705,0.6150407543497467,0.6131966629455397,0.6080278934976233,0.5170098345047647,0.3820015985754148,0.29480569703743154,0.2683235916979845,0.3097521550901936,0.3992680034331775,0.49102514440592504,0.5682001329194906,0.5876274405178501,0.5868337909970789,0.5463011321115152,0.5538876951965017,0.5872740796194504,0.5711580977222122,0.5352341894436234,0.5630342837495652,0.587584924875471,0.5620099526652504,0.5412961293174421,0.6036090984502698,0.6870858009543097,0.6945377981968575,0.7071740705128322,0.7470127395482953,0.7182360496506108,0.6898897638224151,0.6485076866431081,0.6646693341802594,0.6262150685227033,0.5886663271883803,0.5830343504399407,0.5383733312530863,0.5341972492767946,0.5341959432447903,0.5369739233961086,0.5801790749480338,0.5910690268952719,0.6493612849523389,0.7374358649763915,0.7189338577126145,0.6550250447258774,0.6402340196954475,0.592373904417733,0.5374262038118411,0.5341965515336691,0.5301769438701927,0.4891122209903118,0.5395512256516009,0.6076688406155233,0.6055069004633191,0.5192339384907667,0.4805527710708999,0.4325461126535304,0.32677909037480024,0.18890771801266393,0.09220950181600873,0.05705712684017339,0.11267497567738705,0.20675890740927994,0.2784706360602245,0.3720735975403988,0.42480730615391504,0.4273035629785644,0.42730373294163204,0.42968673861620044,0.47211176645536046,0.48074621519621186,0.48242065524101907,0.5234443104095119,0.5343458403801931,0.5578994964445423,0.5904093573624545,0.6438533717800086,0.6938236192304794,0.7399691526875971,0.8004437984955457,0.7717752636115458,0.748137214745225,0.7479785837115882,0.7412977030242578,0.6975751078974435,0.6938030635251602,0.6557935677848343,0.6826400861571509,0.6939906794322424,0.65755819597456,0.6560448606756308,0.6939957663770508,0.715734532714813,0.7953891996776585,0.8012840811720059,0.7724816182636554,0.7085310431485778,0.6945405808807186,0.671326614908728,0.6411909211629938,0.6134864266663227,0.6137636235375377,0.6409798327344243,0.6521804120645305,0.6804455053321687,0.6150742942323868,0.5837516098793207,0.4979764932647148,0.401010522410588,0.2737735457227908,0.1350403943337879,0.01736689594879337,0.0,0.041625646868292954,0.1536248160253164,0.25907475364206345,0.3720235592235701,0.4412970219732708,0.5195421478552804,0.5867068156983466,0.5876410733450763,0.5844432123297318,0.5405039343311033,0.5341978933473728,0.534195299174212,0.5364993099534301,0.5787695689876644,0.5905875344210054,0.6342359350711453,0.6597101870114281,0.706656605033138,0.7480843349091151,0.7853149535659556,0.7966889496392993,0.7519791281519366,0.7474320197252036,0.7107250756428565,0.6945964910985891,0.6945327469227509,0.6945327469227509,0.6945226922654006,0.6801040690860729,0.6422078402403626,0.6498236756394364,0.6963377441163692,0.7423543494416007,0.7457590990085992,0.7023210301684601,0.6945358509851198,0.6936635081193812,0.6540455787253103,0.6846859971516244,0.6945273438862403,0.6957953074873968,0.7345607025316712,0.7194554214788456,0.6316101058557786,0.5882911076789332,0.5270380456802632,0.3911484627655364,0.25240806558253315,0.12629301982409213,0.05437051480837152,0.010100539849005052,0.06757697409383479,0.146165723082178,0.2368483195347837,0.331514225887239,0.44363972337467583,0.5354720969816915,0.5870858538971193,0.5875954909483996,0.5618203805122741,0.5353928608358833,0.5715938745905023,0.5466483111618894,0.5341997539957068,0.534195236556239,0.534195236556239,MI
0.8121827684658527,0.7870398789188613,0.7955940210873118,0.792262775902282,0.7893574197016031,0.8186378259731182,0.8447090224136007,0.8554740240781715,0.8626465198936355,0.8225436178688561,0.8121256477727323,0.7860099206011197,0.7803784879941631,0.7790330716495921,0.7458290049658789,0.6868934760558547,0.6195827303759911,0.5782910120340601,0.5061318346633152,0.4181114670181305,0.33000033561331854,0.24188920420850657,0.1537780728036937,0.06636035442953414,0.012885134504242224,0.0008986104929729066,0.0,0.002025299831297289,0.018379568935420032,0.08594864078897757,0.1739250464100044,0.26203617781481725,0.35014730921962833,0.4382584406244412,0.5261370531713219,0.5822799774657028,0.5849312147183001,0.5632707806332649,0.5283144380649674,0.4982110601156826,0.5616467678307657,0.5844348188095996,0.558368490856985,0.5587633183855454,0.5844359280319962,0.5672631239322046,0.5600641738433882,0.5891546671916652,0.6165063405332063,0.6172665342214776,0.5939105980758619,0.6007919742790158,0.6471612714830535,0.6264841333190612,0.6443433775832448,0.6526100538279556,0.6811335128412725,0.707386563303694,0.6880929664419506,0.7222779098166265,0.7717601988288294,0.8121709379008477,0.8128956858208483,0.822240172679237,0.8770970112807985,0.902452944247929,0.8621053169693287,0.8455430495925196,0.8436965559297906,0.7984762931839953,0.7804858534536327,0.7803680008005971,0.7734825058205708,0.7488337797682343,0.7355213657988129,0.7189244035060725,0.7457758410451945,0.7478587692074861,0.7456518972185107,0.7185420585273965,0.7238951635243671,0.763784720172862,0.7724062913148568,0.7486287404171614,0.7547873057167651,0.7776964596666094,0.7513391180732016,0.7480028746732739,0.7639067607846552,0.7793574005147779,0.7547492864769065,0.7724194715906707,0.7500426842253338,0.7501026380010778,0.7847050687131514,0.8094100825839536,0.7550854265316156,0.7164906384466718,0.7328301426800437,0.7612574634092004,0.7804102900176835,0.7990737621944337,0.7897894047138481,0.7917463699798164,0.7962458393907523,0.7801873132029771,0.7572888039388577,0.7197406748776931,0.7225980140480486,0.7470086064966672,0.7212177126658412,0.6626011338798845,0.5836675533564399,0.5530058932081534,0.562570264537932,0.6102249221889968,0.668314008754316,0.727135177164481,0.7963258703969895,0.7862577469734546,0.7427700457781716,0.7155599432337327,0.6867330612547118,0.6524909259916889,0.6503125453722118,0.6498257560319116,0.626914717935847,0.6295145982411468,0.659103613012924,0.6819829837840672,0.6607037764106618,0.6317418641566288,0.6194039689647095,0.6448079356766634,0.6495170836522357,0.6250933517748374,0.651825059780105,0.6950289063185755,0.696315507336859,0.6573931775728363,0.655003427466343,0.6927491176248477,0.7236649933408801,0.7698079684334065,0.8247177889537838,0.847236241125711,0.8809704078671086,0.9239789124674544,0.9225850946976468,0.8788553992642489,0.8234110250332591,0.811854541252294,0.7852604193780754,0.7870909833741226,0.810342218983716,0.7840703150516166,0.7803771266757673,0.7801155090962002,0.759528563726664,0.7473371627302274,0.7231723086350437,0.7191524286976323,0.756317485752878,0.7795300395361382,0.7571579347217137,0.7478713014774314,0.7478587692074861,0.7478587692074861,0.746392938380219,0.7136636669360152,0.6842905094441987,0.6976960060165149,0.7152707238508667,0.7104094477807861,0.6845376798380371,0.6828255836149104,0.6770807499843707,0.6587615027457963,0.6865456094415192,0.713183669933235,0.6727309550556964,0.6266465417039111,0.6210426751575238,0.6792583656328004,0.7148625102840516,0.7058991715208638,0.6856026453808086,0.7119215624663235,0.7126404366610863,0.6853556855144376,0.6828107603701596,0.669844249457098,0.648689113199854,0.6023048718836366,0.5447255112306841,0.521271719288289,0.5480186522733446,0.6053593542592912,0.6332002289861869,0.6316285898052838,0.6723235538322925,0.6530517342118118,0.6172837455730731,0.567495401878765,0.5260248164800547,0.508127641171022,0.48794358571805674,0.48195683300450654,0.45799284862597656,0.4819342378339364,0.49864657222931896,0.5215986475751517,0.5448061202822503,0.5226943494709486,0.5146724165826857,0.4905085338766675,0.5140372988568096,0.5012468491887461,0.5077690754928881,0.536064581291634,0.5527482907983048,0.5620870205006501,0.6024091223235866,0.6221703714523938,0.6740963249442249,0.7194231797373014,0.7531354103505734,0.8047703410718796,0.8428955396982012,0.8837101096775637,0.9233962935982296,0.9678223548201785,1.0,0.967050657392571,0.9425218724497126,0.9178685413296863,0.9440605834115621,0.9664980393433451,0.9378509545987948,0.8979984324794845,0.8933615309928422,0.934596249898128,0.942947334599646,0.9485883468545726,0.9746871818834073,0.9754685659623199,0.9754685659623199,0.9753029132283668,0.9561904472708598,0.9277608131332,0.9105979634071977,0.910437195460938,0.910437195460938,0.9064960448628394,0.8585964872940464,MI
0.9278720230563868,0.9288587817113827,0.9558485034318043,0.9597717363540594,0.930421920513588,0.95165617490923,0.9639281543907092,0.9639360115281939,0.96393718162751,0.9664641663976994,0.9966800528369291,0.9982274502710986,0.9688198592777821,0.9610899465761458,0.9312669630588895,0.9484800681768437,0.9638697628731352,0.9460009312456261,0.9258036542467192,0.8960530503666879,0.8918096600166603,0.8918080345845798,0.8918080345845798,0.8918080345845798,0.8918080345845798,0.8918080345845798,0.8918080345845798,0.8918080345845798,0.8918080345845798,0.8918080345845798,0.8918080345845798,0.8918080345845798,0.8918080345845798,0.8919604926089049,0.9128537934701839,0.9188853783585058,0.8926725307841057,0.8918051755183791,0.8855506550040992,0.8537292442364715,0.814666720333995,0.7847000083356663,0.7836452338735791,0.7937318960061672,0.8371449909935027,0.8578616287855816,0.8877812747395035,0.8948951674256307,0.9249192549454905,0.9278695451990133,0.9218419405275595,0.8762547856352318,0.7989788479615587,0.7340713466583981,0.6666668429283202,0.5847990698642382,0.5038071543299241,0.434340062195111,0.3453608119001279,0.282416715709072,0.1920463683589544,0.12421133777950288,0.06781044002155845,0.08166842852511014,0.1381380973433366,0.20018325536796766,0.28939774026584253,0.3807892975048599,0.4450279528499381,0.5323778227187121,0.6050743411420347,0.6411282744765732,0.6803714383924504,0.7261199609662503,0.7469358348961084,0.7216770659815843,0.7381112456184127,0.7191560289160996,0.7031655761131708,0.6587037139236891,0.6373967524027213,0.6017319688303298,0.5685325810447655,0.5443312076678772,0.5148169883905789,0.47049280534858795,0.45376907864081417,0.4126521120871667,0.36606368374813236,0.3361592298926679,0.2911879395080037,0.2784144262902144,0.253361782719022,0.2528901310658309,0.2783789707222555,0.2907013432099763,0.3353613816393297,0.36521233190251134,0.4193042396157409,0.4635407107855656,0.5043252090995134,0.5510905524503054,0.5981965667436109,0.6456014016608069,0.7202023338219163,0.7719161210816443,0.8021372495282248,0.8581004203860942,0.8926917086707924,0.920932882475177,0.9294399345549822,0.9580697296438183,0.9580173602065791,0.9294264288260594,0.9278721448314293,0.9278720230563868,0.9278720230563868,0.9278720230563868,0.925417569373443,0.895656094112808,0.8986498247753154,0.9272770718889793,0.9278655636846009,0.9176879350751967,0.8925086521634142,0.8976501302853874,0.9267289231312148,0.9278720230563868,0.9278720230563868,0.9278720230563868,0.9278720230563868,0.9278720230563868,0.9278720230563868,0.9278720230563868,0.9278720230563868,0.9278720230563868,0.9278642082754383,0.9157058468923216,0.9036190945431901,0.9275429127216102,0.9278720230563868,0.9278720230563868,0.9278720230563868,0.9278741461777686,0.933993607742968,0.9629765011291092,0.9598030250353036,0.9299453458505491,0.9094295228197229,0.8919268671580216,0.8918103271321058,0.8986393364098975,0.9400010346825072,0.9636815231815241,0.9644773855239821,0.9886723229907393,0.9999927782105607,1.0,0.9957942824118389,0.9334065879384346,0.8695512195211927,0.7845778219006183,0.7211337489139886,0.6326029832731646,0.5623814566072785,0.4822316052269544,0.3907560271518591,0.3269673859192155,0.23919256781956388,0.15259923383452279,0.0880482526325066,0.020847634845899243,0.0,0.04220001283850827,0.09971210524814467,0.19062199378328604,0.27178997707892005,0.34103261120976835,0.4337951109697089,0.5251779457653267,0.5893542935411089,0.6637870649619781,0.6820984188227568,0.7108837921313533,0.706987926680477,0.6774500932802159,0.6754167707783889,0.6628893049926186,0.6397257984779632,0.6239216796936509,0.5782554598600385,0.5323092088057271,0.4968476264529871,0.4742653477739269,0.4314728250531159,0.3994443886950956,0.357916898744989,0.3414058121443473,0.29683531134825714,0.2763028147612143,0.24638220690058166,0.24265772986538803,0.24288330633513766,0.26662484913798856,0.30933968923829536,0.3417153249980007,0.3879794681450832,0.4339326868496167,0.48090239085371067,0.5281749885640128,0.5895598710910495,0.6394394960838321,0.701789963178264,0.7441032949414623,0.7786053526728702,0.8259029713435231,0.8855437635018379,0.9162873560857978,0.92872912804033,0.9549590452988577,0.9639303569305984,0.9639360115281939,0.9639360115281939,0.9639360115281939,0.9639360115281939,0.9639988016834984,0.9760762167347403,0.9836875539074823,0.9676846902705902,0.9973806232243954,0.9881640612004841,0.9644075212637135,0.9639360115281939,0.9639360115281939,0.9639295097998719,0.9537200463017816,0.9387078317402313,0.9506821487624126,0.9283531488280223,0.9486057729206783,0.963926121276967,0.9639288320952915,0.9526725290635936,0.930421920513588,0.9593571647576624,0.9633385801757788,0.9347650461533927,0.9427283496341277,0.9446864359547469,0.9335073084115493,0.9625854934406464,0.9710906365558412,0.9913356667765232,0.9601078797362579,0.9298292305257698,MI
0.07727676191940214,0.08939719067293117,0.11603592667375295,0.174251920371709,0.2516621336656275,0.3250992600665503,0.36751978693318677,0.3525205551242192,0.3051454374348821,0.23688156098115032,0.21035489532757978,0.1845552694074426,0.11820368071636134,0.11082539547490677,0.1638484442721202,0.22241724392381057,0.2502541589407583,0.3060595571308906,0.35573014622292076,0.3729887564360399,0.40509447910303464,0.4625483810630473,0.5389368459210941,0.6175442778864717,0.6961524576905651,0.774760637494659,0.8532558233744951,0.9196576089618156,0.9819234840910576,0.9618323215933304,0.9011878465165775,0.8351219020835612,0.7719772336561115,0.7069051307761547,0.6506939978171169,0.6228660838599192,0.603478274818241,0.5952992077817729,0.5952605379909981,0.6010913006131378,0.6176895521355132,0.6197229028472702,0.6450691521177965,0.6650034959994335,0.6893746197233837,0.7193006720967268,0.7526874959355649,0.7789594167420186,0.8050391035097157,0.8231389258591002,0.7989123837864027,0.7588723454389004,0.7082965393867493,0.6493351838874375,0.6034300555944374,0.5512506445259882,0.4988672142613675,0.4548654022947587,0.41565631977886497,0.38813246343013663,0.36811278510576617,0.36559482698363643,0.3813602814276016,0.38991658950242414,0.40833159463872715,0.41114050646820965,0.41114139934231275,0.41114139934231275,0.41114139934231275,0.41114139934231275,0.41114139934231275,0.41114139934231275,0.41114139934231275,0.4111407602801376,0.40927491329032906,0.3960060360645863,0.39823758121850616,0.398321382010288,0.39405917974963556,0.4047028768575527,0.4012376692748547,0.396827802389097,0.410913848559161,0.41114139934231275,0.41114139934231275,0.41112641607740175,0.40472456118108235,0.39421105649343247,0.41048879289516327,0.4124701243830651,0.43743040602742456,0.44752818139210193,0.3963569589580267,0.36931010200101166,0.3701916751883205,0.3953593469582488,0.4272893430701741,0.4172646771768127,0.41115463812986786,0.4128540592580028,0.42961551240492835,0.4140198786612834,0.4050522927786462,0.3599775117571684,0.2906574852634076,0.22470696946336677,0.15639103357083162,0.08929787037638004,0.025009378157358153,0.0,0.04324047068685344,0.10294372931457785,0.18019043756590136,0.25755865343669804,0.31821693997133904,0.39300219231042854,0.4716092299608463,0.5502174097649393,0.6285511103282109,0.6933776017076201,0.7630524753512407,0.8416362531488883,0.9202359273876541,0.9869754541216271,0.9518703123845778,0.892282064182043,0.8273548364412338,0.7627743645288767,0.7032153776717744,0.6451847693027495,0.6026013057740678,0.5625418212177009,0.5421322201906329,0.5287121544308526,0.5468759052011976,0.5492265955203881,0.5519413164246014,0.5748737453490285,0.5965241268438621,0.6196531389899591,0.6476261443208977,0.6921980022225958,0.7260099132348654,0.7697769666238918,0.7998175193684438,0.8246398399476846,0.8348759726177364,0.8162304517562586,0.7777523357363161,0.7287422937631369,0.681613860121971,0.6294037807490094,0.587166000758566,0.5396843292910463,0.4879294036523638,0.4463805894246873,0.4140849447648498,0.39461156712024215,0.38814606659667117,0.38812752350988644,0.388133174151418,0.39229548799502956,0.4101027138705291,0.41188466613034835,0.4293060655505525,0.4284807214102133,0.41176749983694716,0.4111415069857647,0.41114141180629105,0.41154871327902054,0.42662960961592367,0.43413598333657255,0.4341544593506863,0.4316782572724276,0.4196474949521085,0.43374325129897384,0.42488869507273863,0.4113872279624551,0.41114116819216395,0.4098368200542222,0.3914349571840736,0.38813207276857886,0.3888031114402417,0.40582359412140123,0.4112060012137402,0.4211552618926113,0.4362004525001426,0.46708543991666307,0.49790616052560877,0.4678288131059678,0.434328114990568,0.4153663152207674,0.4424476755032263,0.47541483422546715,0.48026552616137375,0.4881426037109651,0.4842038219716067,0.49410160024570793,0.4806080109773361,0.47989082162321894,0.4598310762063518,0.3995106565863189,0.33971442952467346,0.2642249515278712,0.19925803616609494,0.12991540590637163,0.06414757990394548,0.023504294569090867,0.03708162677997606,0.09192987694952848,0.1522444961251006,0.2297380026661835,0.30834608729080326,0.3869542670948989,0.46535047810329155,0.5307883614413926,0.5997927530679563,0.6783731104788462,0.7569812902829391,0.8355894700870352,0.9141974595321822,0.991193472730473,0.9999999999999996,0.9432901794419384,0.8720529695274251,0.8130716413110073,0.7550067891737098,0.7007149181138539,0.6613342170400118,0.6379799182059585,0.6178892764807915,0.5980354669492902,0.5952553318429463,0.5953938962077578,0.6037340216889793,0.5993523031778496,0.6184211345944148,0.6387253043695496,0.6685896713200528,0.6960144993499706,0.7343443932193021,0.7688421509862753,0.8000834679356479,0.8168317384004617,0.7989532235969761,0.7585847534354131,0.7062939642934882,0.6622174274233839,0.6222005311574468,0.5733402789255169,0.5327686249238175,0.49017468832168776,0.4514251701239065,0.4186874329273307,0.41116892628068413,MI
0.24043943097277243,0.2300029728589923,0.23806313596385387,0.2895382732097964,0.3573094936141006,0.43996074330913437,0.4988597951913851,0.54154218167041,0.5877164199340807,0.6264497952947288,0.7065436575666704,0.7705109619246073,0.8429153170879253,0.9023878486179688,0.8627848123923769,0.819478159914441,0.7778133039098654,0.7403156477766766,0.7334556280141005,0.7334480092916547,0.7334480092916547,0.7334476316200158,0.7295632945739303,0.7054044939112938,0.6842869641911333,0.684286842796678,0.7037117399612027,0.7220857150166529,0.7580697907548695,0.7785765470310562,0.8306994657900209,0.8601958877482012,0.8993156196445078,0.9366663408573066,0.9675772327319079,0.998495136284621,1.0,0.9872403479425929,0.9702928567320495,0.9508263228814791,0.934586109818329,0.9114634135349293,0.8882737681366812,0.878849208283313,0.854272783238545,0.8456897926741371,0.8226030098053441,0.7994133644070951,0.7899888045537278,0.7652857877586543,0.7457598413826432,0.7520822609128537,0.7415789655313016,0.7581031258558442,0.7749996328446302,0.7752475530312486,0.7823731470178732,0.792667368135068,0.7926881165854383,0.7911600119382678,0.7688255845277849,0.789984150402252,0.7888032939615304,0.764955857663308,0.7630682652626382,0.7630681438681828,0.7630681438681828,0.7625771735955036,0.7418314841960116,0.7319236820582287,0.7009965071209745,0.6751841438341541,0.6809330958664379,0.7031603710113323,0.7072364660472932,0.7319185387825238,0.7334478474323811,0.7334477395261985,0.7307409166782266,0.7061720564028118,0.6967007056609225,0.630355301425543,0.5697360077495794,0.49353006249748255,0.41860933289783286,0.356805199904179,0.2895087964522034,0.22087739836053277,0.1384073632246352,0.08491674907850832,0.10601178596650485,0.16801469533819358,0.25063981569424154,0.33357285026591477,0.41310277398794515,0.46897222580961895,0.5106793947094479,0.5766038485586922,0.6593078109038206,0.7287413991642495,0.7695600892264203,0.8377956650173122,0.8123177539019739,0.7520336556872227,0.6982722301654212,0.656305103044514,0.615061814524898,0.5867793951543545,0.5853474712917404,0.5858516436072083,0.6069461949173824,0.6098923721653691,0.5867739146718272,0.5853474308269231,0.585347349897285,0.5855949059005372,0.606457971989034,0.6475495515783578,0.6879870797781367,0.7072363900202321,0.7422080935148312,0.7838675229899721,0.8252704264788928,0.8666699877252046,0.9048916508918765,0.9111642030641667,0.9104979708044239,0.8877830001880929,0.8603070410856937,0.843917514069795,0.8228127202194351,0.8223080758144201,0.8184236983035138,0.794264897640879,0.7731102505034215,0.763105261285479,0.7623972979217823,0.7401732975781306,0.733455466154826,0.7319185387825247,0.7072462230096574,0.7122148537213633,0.7329570390189755,0.7334480092916547,0.7334480092916547,0.7334480092916547,0.7334480092916547,0.7334480092916547,0.7334480092916547,0.7334480092916547,0.7334108023590256,0.7184699611572238,0.7208011497455642,0.7307118580570906,0.7061766700894694,0.702977871519872,0.6742123431258973,0.6460196643074108,0.6445877404447975,0.6450919127602655,0.6661869496482611,0.6743898435675728,0.6911812849344914,0.7179349829748221,0.714336906268386,0.72461361459849,0.7088820525262971,0.7033212048498729,0.6691554343183412,0.5883092284722107,0.5053729730523866,0.4231074421845076,0.3624159760235246,0.2965811899777089,0.23262028685125813,0.14993183022359347,0.0720863767629254,0.02555866418732311,0.0,0.03772859265915596,0.11438205336650409,0.18893993669286058,0.25113078596691896,0.3335761925085201,0.41651256932280134,0.4994489461370799,0.5823853229513576,0.6651794170084573,0.7338073109982481,0.7961261541628009,0.7888698170876314,0.7343923386309301,0.6919801580913347,0.6531662021707358,0.6445973625244337,0.6445503986294403,0.6294223107229584,0.6218350420291996,0.643916759615669,0.6445876055620694,0.6445503986294403,0.6296095574276395,0.6320832985386167,0.6590955085079608,0.6867380203953939,0.7253058782329003,0.7437142165747037,0.7950433622233097,0.826797171542367,0.8665508013037302,0.9118666796531656,0.9464653336182804,0.9699178458657469,0.9700979913049244,0.9508263228814808,0.9345489028856999,0.8969613459197747,0.8816910323728431,0.8812375875753391,0.8619704788854623,0.8511149433949408,0.8273749751589241,0.8184291787860403,0.7945632302416854,0.7846676093488298,0.7635724510663779,0.7623973383866014,0.7401732975781306,0.7334589702567067,0.7368566006238204,0.7615381877812313,0.7580132639093327,0.7415998758409454,0.7623973923396923,0.762936924942947,0.745520946245251,0.7412505001961227,0.7398246100626329,0.7475917544301129,0.7434527875998107,0.7334851267089508,0.7334480092916547,0.7334480092916547,0.7334480497564728,0.7339477028031922,0.7487701875188977,0.7185569305160522,0.6812176613808019,0.6886659221186209,0.7071992051615723,0.7310679385568566,0.7107823664602995,0.7297110578136374,0.7475837985008491,0.743957040844915,MI
0.14806470791425363,0.10677457281592817,0.04410659852710053,0.06190551809490552,0.13623038320887293,0.2236764300767673,0.31771835681730565,0.3993677645114819,0.48386413567878117,0.5691165275999293,0.6494582947592171,0.7279284919901836,0.7891329118648129,0.7617268991313852,0.7443506840795098,0.7620184304979762,0.7906243449482457,0.8282934176847623,0.8621803001630406,0.911475050652224,0.9258275632788946,0.8838748684159521,0.8256672292119194,0.7606730716884011,0.6900234019145288,0.6177674013281536,0.5323060969202977,0.45949194121887293,0.4268335936734977,0.4259582580294632,0.41541869148801336,0.3512732158995724,0.25747015674360174,0.16315438925946646,0.07022488317355169,0.015233547219832833,0.00769789984910485,0.013180259758420743,0.0616240247257851,0.15387479955903283,0.24819024216752972,0.3421705353107898,0.410027257961151,0.40929864285599615,0.36315223312318645,0.3224217303461603,0.2947857518547523,0.2809318915971537,0.28781069250576996,0.2918532969526999,0.2921040070895229,0.2823096234522948,0.27109220265362266,0.23284293108968956,0.1636541660807227,0.08748359115119353,0.006077724334029977,0.0,0.07053318102392758,0.15184078460674488,0.2457705440634701,0.3282751607208403,0.41195298895436006,0.5060892182336216,0.5915206257884602,0.6722534770802202,0.7641811936593217,0.8363834498893068,0.8489297549000705,0.8072157436227152,0.7885918315050691,0.8005555048728357,0.8241105383285672,0.8619435070213797,0.9086409965637516,0.9054102563258075,0.8578880217690608,0.8008659797834987,0.7353351338279377,0.6727994026997668,0.6021209105065575,0.5271900184603595,0.45132254395202676,0.3960841562589166,0.3606012020461975,0.3457086156761675,0.3132507808871998,0.28478253963784006,0.2800939540819365,0.2623404407794059,0.2124173172648951,0.13353456675177489,0.06075352418093827,0.014623896293458394,0.04734171638618001,0.12752234975787324,0.206156278944174,0.2998543819708561,0.3941612824681582,0.4839568533899743,0.5609999852678111,0.6543649647663963,0.7484573529991594,0.8304666083711081,0.9083258248818469,0.9011110481003577,0.8356981913986767,0.7919443586197512,0.772333207235063,0.7618714027022535,0.7993431854239241,0.8433360721492069,0.8836573713911156,0.9121339934140957,0.8683002507434607,0.8027161508384602,0.7294452074106998,0.6620086095879678,0.5933035595320901,0.522720911351382,0.4605684836849129,0.4029747823521648,0.34974398626130077,0.32728333482321714,0.3260883333800977,0.3260962721337499,0.33044593627483954,0.35748156715745427,0.37649518632658374,0.3790243949308585,0.37164890207847723,0.3714520547589335,0.3600132815199135,0.34935345720041955,0.3564440642871598,0.33896744484860175,0.2768592217479213,0.19392865138474757,0.12140642844839755,0.11830218243083301,0.19027486468493526,0.2662817268941122,0.357385757944642,0.44542145034256775,0.5236737590879899,0.6044978558866014,0.680788213380831,0.7560643460733352,0.7915796240300996,0.762930136261136,0.7586257892743427,0.7718466332743179,0.8080759805678164,0.8588331788786849,0.9235080447837696,0.9717511926871358,1.0,0.9515090505336339,0.8762814632295282,0.8123526494597413,0.745427553533891,0.6717508252049056,0.5929232432535425,0.5221228841499328,0.45283351986510034,0.39669188717068105,0.3499207949932659,0.3147712151790145,0.2961106126710864,0.28159346281108677,0.3026985788313179,0.32048695834015106,0.31170836323626006,0.3229140505637722,0.29060167826076944,0.24793714001415035,0.17288056605899138,0.1283928232635967,0.16441956383797507,0.2509006784221377,0.32817812788475376,0.41791377230307747,0.5121368821559633,0.5961947839828521,0.6782715190195363,0.7721762759378357,0.8517620290266161,0.8672852269392126,0.8216887704177824,0.7831184509173532,0.7653722434778052,0.7829817660524836,0.8095086686046433,0.8513436225313007,0.8708996236656659,0.8467099666910647,0.7912710086591299,0.71747945996509,0.6502100095394345,0.5725022348700932,0.5020728230311367,0.4342453192999245,0.38860539170354613,0.3539229106093429,0.3488748709728604,0.3533994877612483,0.3546282143298187,0.3689966666502986,0.35206993929115704,0.32716479364346807,0.29983340693246685,0.25382756081595925,0.183294390422871,0.1105590164189465,0.08637335795759737,0.14496902095000452,0.23723809248256122,0.31651873112812545,0.40356685239347145,0.4976406489100298,0.5797787474403173,0.6637765593583422,0.7493880499551477,0.8129460608400225,0.7992291691220186,0.7630165106225628,0.7700924853737576,0.7845622952145987,0.8194291942324976,0.8675616109680662,0.9127878523948878,0.8992098565086506,0.8440345183227635,0.7806931396607464,0.7140746289881745,0.6655261362930256,0.602280868789459,0.5266514670553128,0.4568571839790634,0.39861397250304176,0.35365094610162773,0.35205320827058717,0.35851090416804743,0.34810694932577535,0.3309328978688506,0.3314353720121632,0.3540722747690004,0.37385915505579126,0.39347625070462744,0.40626930122293636,0.38721227943913883,0.3587575197677588,0.37036614217272223,0.3566487528567368,0.3339250610317528,MI
0.7673187983974162,0.78474902335993,0.791126203896214,0.7874500332541247,0.7776508488542525,0.7711087141849194,0.7640518910102666,0.7710522427388183,0.7911040760721436,0.8092998635076304,0.823249937801226,0.8603135669755632,0.8928518068262173,0.8737313460632911,0.8300797647395716,0.7802750200643979,0.7328447821889955,0.6899125040171462,0.6403615967249162,0.5904102348343386,0.540470908292564,0.4931992800961219,0.45014059660651295,0.40055561090972314,0.35060423497385995,0.30065306831275074,0.2513349420478094,0.2088170449633654,0.160744413016923,0.11086593354826146,0.06571196954846359,0.028619526191263178,0.03011502256625931,0.06961820188647438,0.11350376235458803,0.16109342820795047,0.20378521398696148,0.2532379721854835,0.3027546493840704,0.3455605222381605,0.3931492560257107,0.4426372874047758,0.48536719768328374,0.5325825083431995,0.5752132530560202,0.6186521515800544,0.6550538614129401,0.6694099701226851,0.6615615835328467,0.654484720766538,0.6570094668845267,0.6443844654089149,0.632553845637082,0.6258919338767096,0.6475921105432229,0.6748740366123146,0.699695925231996,0.7257523661396558,0.7518641511868772,0.7673507675405388,0.7733965383404261,0.7620548685266416,0.7461604857068177,0.7272814527988817,0.7488334470420778,0.7533283118744588,0.7475260599917345,0.7516607776276228,0.7650617050892418,0.7751962714343547,0.7760345273321593,0.7734444418029033,0.7785083094508659,0.7999988636898482,0.8187458103048185,0.8185866732460888,0.8385187532654176,0.8659279332296882,0.8740124635867516,0.8851826076323398,0.9274609359107219,0.9686948727091805,1.0,0.9822013312176573,0.9359674917197286,0.889130619627282,0.8457432823114978,0.7960696927628522,0.7461182803092469,0.6961857508865928,0.6494851175344086,0.6059713749008647,0.5562637069476585,0.5063122804487684,0.456360827263835,0.40641327366041236,0.35834187748863744,0.315870760142286,0.26650603504812953,0.21655902599914645,0.16857304327584022,0.12607634789131128,0.07759629156068437,0.04075645719535881,0.038586274603108706,0.0777543934751106,0.1259884533044805,0.1682310266225272,0.21733548566430405,0.2666551231670883,0.3091066314126575,0.357238916470762,0.4056402598844423,0.44796977754977185,0.49712316914234267,0.5440271032090492,0.5872798551500699,0.632053702467975,0.673156460201047,0.7028483871140608,0.7100581139509369,0.6950861134397529,0.6799263906403586,0.6631918264265849,0.6509381891718856,0.6433794688109019,0.6597585363102701,0.6832892637900244,0.7076677015473981,0.7363061358476476,0.7625808046528862,0.7833450735325588,0.790796613648837,0.7815625890976002,0.7717925338747708,0.7753723651140912,0.7732302052746943,0.7859194984595571,0.7980318007838422,0.8109903099339103,0.8211568150305663,0.83401684439932,0.8295391728382125,0.8074373570259868,0.7827826142598445,0.7615092691039854,0.7542673665129421,0.7707468583726153,0.7880928991036739,0.790769783891862,0.8153145768224651,0.8543878987204184,0.8804432237821326,0.8521464759369176,0.8032515245715423,0.7603714984217432,0.712938071836911,0.6629959402436941,0.6130509494359854,0.5653034922026626,0.5226240246663322,0.4731412741832225,0.4231899403832161,0.3733868741347356,0.3292592039725962,0.28324960466635896,0.23333554539675327,0.18388268185859025,0.14119089607957924,0.09360322210553618,0.05175125984387419,0.04139499511823119,0.07370549502471357,0.11974503952291926,0.1620956721779846,0.2105087221436336,0.2604517706190058,0.3078879636431954,0.34301001596216196,0.38845388678390147,0.43100938176817516,0.48036111229329415,0.5299390294940346,0.5729408736732932,0.6164535892383735,0.6543087307684673,0.6832895432277736,0.6847041970533573,0.6765580238059653,0.6631064976822204,0.6449507564927869,0.6289897658597051,0.6302165378643633,0.6438344686775469,0.6631106196206923,0.6922513073325974,0.7234381612019288,0.745842844484334,0.7705374857786004,0.7811470327426119,0.780988677082204,0.7764542286580954,0.7734760963507658,0.7619809683905109,0.7640057780903665,0.7710190229940629,0.7719048567583352,0.7793720805362624,0.7807818245750086,0.76585804364042,0.7518412364374872,0.7456139476667863,0.7422476324399249,0.7542487457952766,0.7571857575563993,0.7721797888717034,0.8025928510032571,0.8445704504286747,0.8616473642456853,0.827784085148486,0.780062441135534,0.7301200866960701,0.6814721497471324,0.639177514307821,0.5902140774265464,0.5402636587854016,0.4903122056004686,0.44041949062309593,0.39497503147952073,0.3502999415012459,0.3004576589249238,0.250570917432431,0.2052718062388158,0.16045528457699232,0.11067230405547857,0.06548513160943426,0.022514364651981866,0.0,0.025277369703942232,0.07372662268067065,0.1236688029224483,0.17138347986638902,0.21410424709449438,0.26354161412118626,0.30951667008174855,0.3536748381065252,0.4034424469028802,0.4493143896929236,0.49356260764883075,0.5421879614672779,0.5839004359235557,0.6240570184110007,0.6505665168890441,0.6570180817972485,0.6448113701091945,MI
0.10727335713489206,0.07639873151963883,0.08189045022149699,0.08720867515668962,0.08722047070239913,0.09115437192871356,0.10968302850427136,0.09417925958133688,0.09581262934811052,0.11130541002515981,0.124511791460296,0.150687426005923,0.16913086217651108,0.1841871792001779,0.1839861047911997,0.16652847131889503,0.15483290295741003,0.1344978926822069,0.11394759185354886,0.11158055704738246,0.12135229225646027,0.13679514191133046,0.16425837819213385,0.21416375166204604,0.26148754654157313,0.3196910043792651,0.39112241686985305,0.45035226951591545,0.5095699707395585,0.5743373322246428,0.6351240088399774,0.6805087730231949,0.7339328007635699,0.7881900071725085,0.8141928705776897,0.8430428501775649,0.8578456977452968,0.8223396060533594,0.782680653398828,0.7416271509848609,0.6918249423365057,0.6509391738679846,0.6010522965788909,0.5667409990476213,0.5109356830583782,0.4604904518922157,0.4285726830833698,0.3909447262728478,0.37115643617081284,0.34558695305197373,0.3477484421198782,0.38496408103223834,0.437678194627384,0.49583579181302495,0.5546634086305775,0.6270068870950012,0.6875110966044695,0.7506060864643893,0.8210117714761709,0.8824316800057219,0.8868477102669465,0.8507289097121631,0.7833753050346774,0.7217441248309542,0.6430747988918175,0.5639006256318191,0.49773513212624776,0.4319567328042795,0.38727820097441734,0.31919052629826306,0.23988367330360783,0.16319629505749145,0.10470825272383966,0.0628691012394822,0.04699417741165535,0.06184275968188668,0.0651048363050668,0.08492987515129524,0.08735955916699556,0.10105605756653802,0.11399307620183974,0.14374030335787769,0.15993564303289798,0.16018730545152726,0.16017053316125995,0.1540021727041232,0.13649101736247982,0.13586409265592447,0.13586408879517764,0.13586408879517764,0.13603919513331952,0.15088376268751258,0.1726011802691021,0.22270616720041092,0.27566285158369475,0.3286499737996764,0.38508736176635106,0.4505500121308219,0.5112708434889313,0.5649457337384569,0.6177648027016134,0.6775731539808363,0.7365998305092529,0.7863371859685624,0.8147992545791714,0.809104601043845,0.7895831171186907,0.7530437665191676,0.700213139033838,0.6526920612620235,0.6054197613650065,0.5655347897345773,0.5201570465296785,0.4704933080688005,0.43035489785627457,0.3906896461093923,0.3510106294700308,0.3142146858774155,0.2954668651130752,0.28564918294515707,0.3108437245452551,0.3583703270238465,0.4269665471128694,0.4891796651417981,0.5605479346654225,0.6202230764072705,0.6875878195630167,0.7462896789079552,0.767545212586787,0.746356649082093,0.6883243160473955,0.6274958193613682,0.5495515727310427,0.4876577650405669,0.4146180857209676,0.3353092972744265,0.2646347072779185,0.20067447677378558,0.12151020082944708,0.04495850402870927,0.011628569372371445,0.0,0.03140486004074816,0.038083880928051705,0.022888549881026066,0.03651027113675065,0.056433226745128184,0.0642204370915036,0.08583154741752574,0.10903630447313262,0.1115390214271903,0.11101866558926687,0.09358688457331832,0.08722563346888279,0.08504198532676588,0.06532070843401039,0.06293330037296752,0.07267988220196298,0.09306881347223683,0.13295185042715385,0.17625757969920697,0.22902488268347465,0.2889070793367523,0.34313858176962375,0.4016322551100644,0.4600109841326039,0.5188584246483576,0.5933671342637772,0.6637704211524693,0.7170925323121673,0.777282682705073,0.830935794711896,0.8732127956358711,0.9195943488560325,0.9518840134823416,0.9588401764640069,0.932438533197995,0.8868431871590245,0.8563427828946124,0.8108909152246997,0.7582224021738981,0.7148638204923174,0.6684912633552726,0.6221946295762435,0.5652373865001663,0.5254968118483299,0.4826855466900626,0.4512314979921048,0.40805981244550393,0.38749519685597145,0.37913408064731025,0.3891117961585482,0.434103497498771,0.49284162200105763,0.555949854089897,0.6263371550488617,0.6939723440301102,0.7547358875258374,0.8163158443523204,0.8850146614012764,0.9382828199268842,0.9970117897808328,1.0000000000000004,0.9655252944248551,0.8915492191682683,0.8128210363051864,0.7517278629595459,0.6777882233991419,0.5984345523055086,0.5191675384089689,0.4517717247528892,0.38461405370490853,0.3138479518384023,0.253919339497632,0.19563107527028434,0.13932089507211431,0.11810579452136327,0.13531542620139625,0.13669536492321832,0.15488421552966525,0.16656820855265142,0.18381097014692482,0.17213924402888203,0.1849230977980194,0.2098516425064494,0.23055377240307706,0.22667073052155384,0.20939060334172144,0.20883464765746185,0.2120216350454478,0.2245884203423838,0.21515352676899235,0.23257510892775457,0.23313056374084118,0.22603294931361528,0.21533336661557634,0.23260383886229352,0.23315707877142477,0.23436792411014284,0.2537884182968022,0.25747710299358584,0.25748020199770805,0.25748020199770805,0.25748020199770805,0.25748020199770805,0.25748020199770805,0.25748020199770805,0.25748020199770805,0.25748020199770805,0.25748020199770805,0.25748020199770805,0.2574802336558295,0.25821088360774214,0.27386085612236943,0.2598473811373454,MI
0.21380802892458384,0.23491128431730357,0.25785676306884886,0.2588105387711259,0.22760076669918772,0.17562902094487653,0.11577462635984226,0.06280771704639476,0.020629018979201108,0.04687239614259431,0.09048689787074671,0.13233497813844686,0.18407650863204972,0.23966851907374376,0.2937343473247891,0.3495885053462031,0.3995081302161554,0.4425237294406448,0.49382943060226725,0.5506889003421722,0.6051230607024294,0.6615258663146417,0.7214053707150085,0.7737395640076719,0.824188367112652,0.8748537217677168,0.9231038600859438,0.9380119061903704,0.903333883166771,0.8539715795541982,0.8024294789612616,0.7464069443824044,0.6991795580800846,0.6509517760146524,0.6018249914962341,0.5530654963038957,0.5075863646564527,0.46218311742789875,0.4184690788515839,0.41567585273605334,0.4318023721707409,0.39042235206644915,0.35776575391208976,0.36528603684179495,0.39807194959013814,0.4244833280745586,0.4259131849134843,0.4184196094174828,0.4490726295337579,0.449883696964978,0.4218944614377873,0.3915519808517298,0.3553236742168444,0.31858809554179857,0.28127252273012404,0.24657203616489598,0.21039415587685695,0.18533248065580765,0.19627338473309575,0.21303481936834046,0.2361774075175882,0.23369802644497928,0.1979274402609985,0.1482815461003406,0.0925309303654609,0.03321942505205655,0.0,0.03768248767549931,0.08460676643936127,0.12722144221296627,0.17851171694125112,0.2309873864719323,0.2834206132249133,0.3413576532664462,0.39458894411061407,0.45173725495355144,0.5044567774530857,0.5619422221778143,0.6144726929042816,0.6692044261745236,0.7239644592456338,0.783073690771557,0.8334803837425306,0.8817915698861041,0.9224855308541178,0.9190344826825523,0.8749111071554203,0.8263224624067098,0.7758543325288734,0.7214065418498585,0.6721111799366788,0.624307020978135,0.5741230888265241,0.5254699244477596,0.47869017743995657,0.4346967660677279,0.39279310297005776,0.4069450043893563,0.4514707029007583,0.4354000736435222,0.3792858899908029,0.3393165204951496,0.33006318564143045,0.36023241791258664,0.39225259854587047,0.41499152147835106,0.4085395183535838,0.39803636813658083,0.4242806637432537,0.4221701004514289,0.40027911521980486,0.3651755197968902,0.33099595018544736,0.29512714145480157,0.26042545325331035,0.22329359554447326,0.19648140003221215,0.2011403216309866,0.22054321249283304,0.23742108661386108,0.23678517250921782,0.19894804553785006,0.15016537311869782,0.09439756955157153,0.08035435445462902,0.1262707797697611,0.17546121272726967,0.2198711041573096,0.26785491596602884,0.32109499245630113,0.3768938886779083,0.43076918657160124,0.4867529206040493,0.5393399541879726,0.5957368400199581,0.6489091552438233,0.7068655000670556,0.7595864183975307,0.813476050041033,0.8690887298501153,0.9212047844933606,0.9697506726245553,0.9999999999999998,0.9789174250444488,0.9319683099514313,0.8814439322398113,0.8309574540789966,0.7803912504239088,0.7279161308286308,0.6794041190586964,0.6302770951004693,0.5884786951871901,0.5502209137493346,0.5064673376207192,0.4649166834217606,0.4777575602351032,0.5067311658275162,0.4680709496887696,0.4174473762349884,0.3974690170701698,0.42109348731565244,0.4510739776402519,0.4785362287801258,0.47373318270407117,0.45935362096404275,0.48465110235019426,0.4852431149490066,0.46444208998345826,0.4305605665027805,0.39730642919002057,0.3599205654294213,0.32222112508749223,0.2876110467756743,0.2594480231403069,0.2506710448986258,0.2683217881930675,0.27566990420258386,0.26666779807376795,0.2268614829331843,0.17492681031744328,0.12094684938079259,0.07671275106654551,0.09825805408916843,0.14450846394466388,0.18884420795889323,0.24015551567609883,0.2947478838858384,0.3496608652078901,0.40437796819845095,0.4601374630387687,0.5140561648928286,0.5708168013285431,0.6253557592821997,0.6809590044741338,0.7335986673386838,0.7871225731232714,0.8422662066970366,0.8959438752970554,0.9425159228432449,0.9707989907772869,0.9464718559239673,0.8995080828361812,0.8493415180453237,0.7990073747556294,0.7516772883304748,0.6983552464295009,0.6475440775144039,0.597291436497017,0.5521759810030693,0.5071583161411732,0.46435413807898396,0.4664893642626551,0.48112953414630755,0.44000855641702086,0.4179698012033539,0.4392113584972499,0.4724377682294525,0.5014380252433979,0.5067932505087096,0.49183637711441275,0.5102575067923787,0.5405283625785373,0.5168025340949325,0.4865399126414436,0.4533935084183889,0.41405580132894926,0.376495789504701,0.3387701334074542,0.3064000063968537,0.2969343248195726,0.29585804409653993,0.2771361476788261,0.255482172099067,0.26967046750367074,0.27328062263384223,0.2861990014014979,0.25507107558217257,0.21000520491800567,0.1639330775045642,0.14502209912820918,0.18709447198749007,0.24474851467459535,0.2980228317757514,0.34578967117481496,0.3921903561239435,0.44571829619274395,0.5015970371958667,0.5561742408914567,0.6112235789682843,0.6663456950608329,0.7193436076621122,0.7730128952887882,0.8262342108455847,0.8739930929883253,0.8991539751153355,MI
0.8466338398329825,0.8847572603400868,0.9037766700936656,0.9304650888879271,0.9365696093770213,0.9641464336933376,0.9917429771567736,0.9748817545608439,0.9670885966206022,0.9387513386636135,0.898272048271127,0.8566085751353425,0.8149362773472717,0.774393535051602,0.73370959831938,0.6919931772698868,0.6505156306849251,0.6138246775445717,0.585834319203034,0.5760622190554976,0.5760233051981203,0.5760233051981203,0.5760236434497044,0.577557035557688,0.6039658869327331,0.6086443738877048,0.6086455239430917,0.6087428829641226,0.6227592272890394,0.6116250138335078,0.6086463752095792,0.6086455239430917,0.6086455239430917,0.6086455239430917,0.6086455239430917,0.6086455239430917,0.6086455239430917,0.6086455239430917,0.6086455239430917,0.6086585613157984,0.61636507794924,0.6408913875598392,0.6409729886280129,0.6180949289745108,0.6086799763375952,0.6086455239430917,0.6086455239430917,0.6086455239430917,0.6086455239430917,0.6086455239430917,0.6086455239430917,0.608643449333373,0.6030210194142072,0.5781279325555877,0.6012026434150775,0.6086423443781976,0.6086455239430917,0.6053255743374404,0.57799067806409,0.5760239760637624,0.5760233051981203,0.5760233051981203,0.5760233051981203,0.5760233051981203,0.5760233051981203,0.5757302511603237,0.5513641332820676,0.51550202194188,0.5009190838937299,0.46109696318899474,0.450095323320018,0.47809699689909557,0.5112162774401945,0.5516586067389246,0.5757387512715901,0.5756367499363746,0.5481122069970574,0.5076391626525965,0.4630532834719938,0.38838431176908195,0.3316183900619798,0.25607742498548447,0.18813486892137465,0.12409203860830864,0.05714854802723579,0.02327219471615294,0.03043511845122726,0.0976969882313643,0.17995119055328956,0.26175705486839185,0.32267163604514426,0.39411092676472226,0.4763656251889721,0.5586247885341349,0.6407928389062896,0.7072774268426274,0.7727569146983324,0.8182990794338831,0.7696705399441388,0.7376154959909345,0.7092585308745551,0.7074513769916733,0.7322253086354582,0.7391314223090344,0.7391344045605033,0.7402344867761448,0.765717293252882,0.7717549545976592,0.7745749271024964,0.8016589505414302,0.8075935700407584,0.834609734873073,0.8508713121342382,0.8778909086160507,0.9024282357023905,0.9246365931279703,0.9348634719729487,0.9345219566651481,0.9104753887757431,0.8830693078323071,0.8425560601654869,0.8020133178698154,0.7605881103457071,0.7188716892962148,0.6781348046502869,0.6375920623546154,0.5961858654721297,0.5756992541190415,0.5495553603906513,0.5215694203064158,0.518008803076067,0.5429992309911214,0.5434010864531489,0.5434010864531489,0.5434010864531489,0.5434010864531489,0.5434010864531489,0.5434010864531489,0.5434010864531489,0.5440013829430068,0.5663854062149483,0.5738055280368206,0.5470122442742795,0.5434025240223823,0.5451406132564331,0.5719889435662671,0.5756226311059152,0.5506167207048307,0.5453091017868923,0.5724959456493783,0.5760232826480145,0.5760233051981203,0.5760233051981203,0.5760233051981203,0.5760233051981203,0.5760233051981203,0.5760233051981203,0.5760233051981203,0.5760233051981203,0.5760233051981203,0.5760233051981203,0.5760233051981203,0.5760233051981203,0.5760233051981203,0.5760233051981203,0.5760233051981203,0.5760233051981203,0.5760233051981203,0.5733255854217427,0.5462567367193243,0.5493195353868288,0.5752789999809309,0.562588802812301,0.5435309910716573,0.5434010864531489,0.5434065393389691,0.5505079848878482,0.5747174317532187,0.5451012173826326,0.5124832559695482,0.4944501595714108,0.4552193821446817,0.4289538642250257,0.4278318369830556,0.46770893388013146,0.4937141588979381,0.5351033218975259,0.5714301001077553,0.57078482472925,0.5331889108420516,0.4914685040613911,0.4410469365102285,0.3871221657182282,0.30794205383576845,0.24610682222061264,0.17579530846214642,0.0940324144661524,0.04090517998340992,0.0,0.009635195122641882,0.06071767379633641,0.10013915528131623,0.15932805445830134,0.21449320443130215,0.29419292129548236,0.37645208464064517,0.4586866108096288,0.5323138546861372,0.5909395104807951,0.6728665192763286,0.7551252654445371,0.8352909378112319,0.8333080419518559,0.7800726945375578,0.7404906084298268,0.739134545498664,0.7391343989229773,0.7392429116011936,0.7573136425033002,0.7718574875893784,0.7906473928984141,0.815967753540578,0.8367998023217913,0.8372485577442372,0.8571379223677047,0.8699465287682244,0.8904135956017845,0.9056718348821775,0.9339254533039192,0.9623493821427713,0.9675718575663979,0.9823471457407837,1.0,0.9873441960751812,0.9387424172538941,0.9080214971313207,0.8675555194030169,0.8261722928802966,0.7791525868409348,0.7276227002097446,0.6858392057856273,0.6451552690534035,0.6046181642841404,0.5770726599062117,0.5760233051981203,0.5760233051981203,0.5760233051981203,0.5760233051981203,0.576023463048859,0.5773218396220141,0.6032284293572987,0.608643652284325,0.6086455239430917,0.6086455239430917,0.6086455239430917,MI
0.03838046453488664,0.03838046453488664,0.03839309527562662,0.04222612860184105,0.05849350204705939,0.08703828046134121,0.11842888299896925,0.14989047518248322,0.1839963216727678,0.2193181689594803,0.25460993293077894,0.2907814738138874,0.32822755761281974,0.36663757641816797,0.40213766335577383,0.4400469931049942,0.47694063360035677,0.5141938032713387,0.5554401337221024,0.5880485535434674,0.6194126368618831,0.6475501835069195,0.6623292728406993,0.6602371152022164,0.6362551064723874,0.6109387524575542,0.5801855635406123,0.5487488942753125,0.519760523809486,0.4894948969857602,0.45464319976787704,0.42664295392978535,0.39470466915183633,0.36273566652036604,0.3389218168722141,0.3153896013271622,0.29520697797688755,0.2839535830653557,0.279343427033673,0.27132228480696496,0.2733175526012157,0.2877431097355678,0.3141076852120863,0.33962699784896766,0.3692964975489239,0.40730538526073423,0.4453504685291405,0.4899492729344146,0.5275112710280905,0.5739730900786555,0.6210908689690784,0.6671529066974158,0.7046080016533598,0.7501995209608883,0.7973164830110588,0.8444343316005958,0.8902381793594245,0.927584328521881,0.9725224083222248,1.0000000000000002,0.984597616847948,0.9411152761731201,0.8940224501198706,0.8513788292071831,0.8118397502844255,0.7648956354399294,0.7177773369698881,0.6706590384998463,0.6235407400298054,0.5764224415597636,0.5294165552404964,0.4891336102709436,0.4472771788465064,0.4001971234286914,0.3530788249586496,0.3059605264886087,0.258842304238043,0.2122307519269937,0.17416876777203805,0.12973097540524492,0.08266330397521005,0.04226348398311486,0.012743776587029076,0.0,0.021745496768662553,0.0167260424257889,0.01388935868773089,0.013885781965315092,0.01531586840101462,0.025136653251289998,0.026132124014607294,0.027059973468852805,0.036668838591164876,0.03837891412440797,0.03845576736621359,0.04518659742186637,0.0505744278648983,0.05062834028398,0.05062834028398,0.05062834028398,0.05064161133250744,0.05444315571194536,0.06263005575846337,0.06287618464858302,0.06287621603307336,0.06287621603307336,0.06287027865307215,0.060447468292760265,0.051103623073605275,0.05061221558342077,0.04666695798796128,0.038613201593399316,0.03806913873431217,0.029664885120652018,0.02613945675644902,0.026114805359628512,0.021937979492167248,0.014126898440275149,0.019169732638906423,0.034548694523512724,0.057542445583316226,0.08522357229403044,0.11864349799195484,0.15202428758503062,0.18894306532285898,0.23076587265688775,0.26880418816506846,0.30461656786630376,0.3411435046507647,0.38117986146894034,0.4166715131397265,0.4548077638078143,0.49051943122214614,0.52583297831858,0.5587790197339524,0.5901455101820667,0.6215544252791971,0.651886704161811,0.6597295466522908,0.6481216119046167,0.628016916724641,0.6012077235485285,0.5697575119761924,0.532698687345466,0.49888721961179816,0.46748227194717784,0.437819093673683,0.40924081655821465,0.3814147612836132,0.3547956631457485,0.33121280429962296,0.3079844632031514,0.29314086660672856,0.28137380691469427,0.27160418746663617,0.2711354978095113,0.2768521671685533,0.28931778791551443,0.31140031087676046,0.34359907317582405,0.3806325576109544,0.418921846940574,0.4603494266988053,0.5064875919111216,0.5440024590980299,0.5893923523977553,0.6365090790582564,0.6836270412659029,0.7295728645731303,0.7669790549764681,0.8127353796117045,0.8591816918061974,0.894937997679236,0.9168432467729988,0.8994273787164142,0.8605502624508714,0.8135989531245598,0.7664806546545175,0.7193680700541731,0.6746394873122321,0.6368854350069066,0.590255237886476,0.543137038053404,0.4960187395833622,0.4489004411133217,0.40178214264327994,0.35468430972306275,0.3121399727070069,0.2725119261116158,0.2255568245122077,0.17843852604216592,0.13132022757212414,0.08420192910208235,0.03711026182729249,0.0005146247637914936,0.013061617668112868,0.02652822566642521,0.03672922627373598,0.04594626660513845,0.05482343689979152,0.07563689425258091,0.0901525176028668,0.10195191679064619,0.11100786215679359,0.10005859868028177,0.08688541649722303,0.07193082134307871,0.06301187165045286,0.0629157397008735,0.0682535580688095,0.07517055198498923,0.08267049176142027,0.0822568558192851,0.07528468470177585,0.0812737531969534,0.08729255522913237,0.08737196753126009,0.08737196753126009,0.08737196753126009,0.08737196753126009,0.08737196753126009,0.08737196753126009,0.08736111292454907,0.08421022065560924,0.07544476547322132,0.07512409178216672,0.07512409178216672,0.07512409178216672,0.07512409178216672,0.07512681150574307,0.07718728883287063,0.08671807871871717,0.0852076058416833,0.08038284668157991,0.10725376278675802,0.14043845596814641,0.1741784925855876,0.20827495073914748,0.24472456170726997,0.28187876197264816,0.3201567822736433,0.3556399502156109,0.39379971750968257,0.4315900122583767,0.4764271209512836,0.5134397367063006,0.5494705007212002,0.5829374327464663,0.6162542262364112,0.6441266231364897,0.6719067761765058,0.6866442262555161,0.6773134142341368,0.6542542448109148,0.6297603965530276,MI
0.21215957496205817,0.20149939024656227,0.22216550735590435,0.2908445639306656,0.38710882428520854,0.48245560568132184,0.5263604230703622,0.507876645690299,0.5426143818852678,0.591252022902836,0.6071851993607185,0.6254544112507077,0.5582253340223318,0.4892243761649455,0.42044978326300964,0.3370995038795659,0.24974251340945752,0.18072940816166305,0.10208948352115588,0.044442985996838935,0.005406553636624345,0.000395823844976384,0.034182542230667856,0.1321043212929105,0.21247769246815018,0.28170260618930154,0.362299314943729,0.43021236122688755,0.44758283401434706,0.481688839541321,0.5555736947144938,0.6299903480257827,0.6367946060687562,0.6125047444260643,0.6029102746692159,0.5535761725864781,0.45240417012582324,0.34921526448255236,0.24602593184683652,0.1428380354584391,0.04431877736759482,0.0064453438908396166,0.0,0.0009380367791811395,0.016252986251673818,0.08731622561363483,0.19008783698691456,0.2932771696226313,0.3964370624200706,0.4882749037932834,0.5417548050761622,0.600702521327853,0.6024265071057977,0.5751367940032379,0.6027790582639438,0.6174785180569824,0.6175611226688371,0.6325429194156271,0.6888993217193198,0.7405911435686816,0.7921560977308726,0.8367879015972024,0.8782456277347963,0.9160237632544099,0.9392400867723367,0.9431760712422586,0.9711622236876813,0.9730732810689986,0.9517954988650166,0.9543445105610937,0.9502140751137027,0.9414213429924967,0.9673519632141483,0.9732837855426775,0.9722133264683093,0.946959508342343,0.9384210033943363,0.9151547889267384,0.937400537538319,0.9636678654101436,0.9732805712110961,0.9732869745491977,0.9734163282061701,0.9883128046248721,0.9833903384069931,0.9681059251367152,0.8975524540349387,0.8001402865175313,0.7232006991441136,0.62204190030881,0.5363298951562587,0.4565494971423467,0.39968864859117215,0.37365096844019163,0.41939521003821856,0.5091199174389036,0.5851187151044339,0.6789071423242072,0.7046688664245186,0.7050627882873384,0.7235506511030332,0.7472140576220827,0.7711465445277224,0.7705710861859076,0.7441240027565126,0.7388838235444943,0.7624758357365167,0.7856208582274817,0.8446566350198372,0.8618594031335798,0.8454792071649413,0.8797438177925248,0.9491523976190246,0.9486960176466255,0.9589145757499562,0.956109319624808,0.9135536635572157,0.9311854746115866,0.9814876865500057,0.9870196192166505,0.9733460621314416,0.9732869745491985,0.9732871686366744,0.9745465594767433,1.0,0.9939470641892498,0.9735792897672715,0.9533480634446834,0.9073160002560927,0.8796218982154898,0.8760096886626716,0.9239205122448446,0.9144102913033958,0.9175277816591594,0.906266377791626,0.9198944906331317,0.9173514635452396,0.8945620241477634,0.8683159074318709,0.8119555466630901,0.7290671818686816,0.6413399804830897,0.5623280497997465,0.49329746044003286,0.4705113789559654,0.4959895806962251,0.5149087529070284,0.504060871990915,0.5287940761945666,0.551508647317525,0.559141466811865,0.5336152010901349,0.5052461312591001,0.4648579969683029,0.4369589494485293,0.45619555368160913,0.46981563780958524,0.48035193825777256,0.5034286318230992,0.5274261090365711,0.5650285481912283,0.6030483347453686,0.6345197286540358,0.6751954253772032,0.7035844822338371,0.7215937208405769,0.7246915076752156,0.70512207528789,0.7048108833092313,0.7142253144772228,0.7206120452580889,0.7189767438969357,0.7686748127677285,0.7719093911312243,0.7700823365551424,0.7416471619947531,0.7174198257896256,0.7325682986180109,0.7654829469793638,0.7892898954854557,0.8054008807151316,0.8140597352010674,0.8385894724820027,0.8599766506736621,0.8655901773206054,0.8385624961009377,0.7890448595909048,0.7117818003971346,0.6095340575959725,0.5278692449631643,0.4479883601894601,0.4059225379327227,0.4217004793208119,0.48946496102355663,0.5440954123941708,0.5545420962743144,0.5604976965936821,0.6106010271475135,0.6376354733010334,0.6608997252905997,0.6694917349842173,0.6414525205847994,0.6376597938616024,0.6376586532244382,0.6390443592135897,0.6715530447835478,0.7229829303282909,0.7665933022942397,0.7915588569478462,0.825629223836672,0.8490256785964734,0.8750946572391447,0.9031987930140746,0.9067160410916033,0.9308083679900321,0.9397183726439682,0.9397241176332436,0.9397241176332436,0.9397241176332436,0.9397219557973635,0.9349511006270008,0.9083712944951836,0.9061619026989405,0.9061612607172904,0.9061612607172904,0.9061992629575357,0.9179495929759973,0.9394780950327171,0.9397239623632636,0.9372210430367662,0.9089479478915274,0.8674177340726494,0.7718061955851505,0.6955851619977222,0.5949472215024736,0.4918518251264983,0.4060002915606642,0.3711982620501697,0.3948859456663021,0.47125907456365024,0.550606364733742,0.6306732409918414,0.6696001933244471,0.6854394352565594,0.6833356232407253,0.6981261814558595,0.7047802613597476,0.7047841192215687,0.7047841192215687,0.7047841192215687,0.7052043326776287,0.7295568188596855,0.7799969742622794,0.8085998322964016,0.8369589778439943,MI
0.2943883781175751,0.3030559277864646,0.34420360294555197,0.3925151707392567,0.40842286875429146,0.39597013956064875,0.352499470688044,0.3044872030266357,0.2650856307619067,0.23609614602282836,0.2299454805644805,0.2521253401579753,0.2954727606620784,0.2902129088584233,0.24501039308421602,0.19250902007038073,0.14896369110394247,0.14165753718358243,0.18255757436302278,0.2251468792252731,0.25119093130479864,0.2964476008519006,0.3518473867677754,0.4051373055396401,0.4530430687963749,0.5081499321817087,0.5637877006587555,0.6194254691358017,0.6750483658339275,0.7277172698306607,0.7760719353283729,0.8313570587912578,0.8869909309810953,0.9385027439891602,0.9358888287290421,0.9054726852073558,0.8656493871665081,0.8192004686476806,0.7727668766276854,0.726482779022984,0.6802847179259557,0.6347421369525785,0.5904717998037237,0.5611360260844689,0.56264927548452,0.5800012878054792,0.6005800150430143,0.5987480518400174,0.5692360541979002,0.5322769721518139,0.49385543178583946,0.4546564035270173,0.41990054486601935,0.38858211842934876,0.3700651284508991,0.3725354661786884,0.3876841742543813,0.4109065884223533,0.4281569319785805,0.42561886103071145,0.41093562686890306,0.3953828480015191,0.39270515575425513,0.3891760175788055,0.36538595643335414,0.36951290600562525,0.38292978093967056,0.37325572084760594,0.3534149167432188,0.316795530781228,0.27419275453252356,0.22851533103939992,0.1788618202565193,0.1291821283303609,0.0792790388516511,0.039122983574086945,0.04653497545662444,0.09861299782933286,0.14998753889658722,0.19945399438651812,0.25494811156760555,0.31058588004465215,0.3660300390479512,0.41524446112205027,0.4669123877118311,0.5225174697001078,0.5781552381771544,0.6337765287603387,0.6862388718741752,0.734768242306119,0.7900868278326101,0.84572160744835,0.8990777788692577,0.9163625722172348,0.8911715070925981,0.8538638188307908,0.8075890540280333,0.758339676032554,0.7046364965688767,0.6580086685769626,0.6125349672010989,0.5696034294847654,0.5371057587290211,0.5271609905493857,0.5399304515754157,0.5591929647305576,0.5614353437692117,0.529997261433695,0.48907540594912935,0.4519083108817499,0.4150080308793793,0.3806862810730858,0.34571283681137466,0.31733282544261243,0.305814553237554,0.3184012533749385,0.33954302850811646,0.36169777266749126,0.37504877316292395,0.3658139427115761,0.34963794736372567,0.34027458004562106,0.3195247788860749,0.3218781436250042,0.33440078805576245,0.33254610525745143,0.3097168197729887,0.2676338654182542,0.22421073654999768,0.1774487816549588,0.12510797294812992,0.07701574084381368,0.0257623881139728,0.0,0.028425949047219623,0.07640070980890235,0.1317204491996562,0.18735821767670258,0.24299598615374918,0.29863375463079556,0.35427152310784216,0.40969676359607643,0.45873139063384216,0.5105945267341996,0.5662031127632985,0.6218408812403433,0.6774786497173901,0.7329978304183591,0.7830196853402023,0.8338369520155733,0.889405254340395,0.9402107144081695,0.9380022884453982,0.9080685498663748,0.8717013966395122,0.8246911691808725,0.7781485647292326,0.7315869593871314,0.6780271526221471,0.629047372261317,0.5911819131226752,0.5649330803344328,0.5632998181456266,0.5837073768727199,0.6068596531385908,0.6137423434335445,0.5877200180827054,0.5485482853462489,0.5074421825898701,0.4714821229188073,0.4396680715222603,0.4078459652188109,0.38184008119843105,0.3703886676127537,0.3858212430979142,0.40848455306716347,0.4351617044970173,0.4506910563604156,0.4446455491076906,0.4374180850022147,0.4317419544428611,0.44591617973951636,0.45346960522727486,0.43476206901830916,0.4406122132250967,0.4468199186675661,0.4391106130078608,0.4130757440466233,0.3717430054285291,0.3293709640742346,0.27797889315510593,0.22277363362336877,0.17883989723982752,0.17548568894387162,0.21612095553974675,0.27042492879137203,0.3182586902872757,0.3716442060735372,0.4272751155346619,0.4823741763743701,0.5302600122226768,0.5835761050385637,0.6392068613712791,0.6948446298483257,0.7504793152872189,0.8044032125582294,0.8519723113983946,0.9067766874149519,0.9622873690602445,1.0,0.9789534728127931,0.9445174407489434,0.9013485220679005,0.8541477313082941,0.8078270391521176,0.7630786006274384,0.7165891217969111,0.6704768256689604,0.63239051675011,0.6056330610648064,0.6053812225819852,0.622190897410942,0.6277826568676583,0.6009002292115246,0.5651070890408543,0.527919598228469,0.4889960144143817,0.45378155012079224,0.4183807113356057,0.3783218360768701,0.35174028065068574,0.3462631544754087,0.36233139371908285,0.3947681579376945,0.42229742548006644,0.4302638653707005,0.42179895138677925,0.4046813296086371,0.39763662559611546,0.385003776688541,0.3856630046086402,0.3977433802253503,0.3904111350625121,0.368801279638566,0.3264106818181842,0.28350885209859245,0.23521255777561945,0.18611369685699808,0.13067989743217723,0.07607815919466421,0.04274252659127953,0.061186432292219095,0.10813846047214182,0.16345068579959565,0.2151915636452073,MI
0.4274410062191879,0.42662986726951424,0.42607173201357396,0.3931843420223927,0.3614977636971738,0.3258878602624645,0.2923364492733077,0.25868738094774224,0.2215171377501296,0.19075032624593768,0.15341503506081067,0.12144579040463566,0.10543506239611944,0.12126648603878831,0.1517153538017436,0.18960241367582864,0.22787171214076574,0.2620823683629562,0.2950669134814524,0.3332538203033989,0.36571330441102956,0.39147172238715056,0.4244387706877212,0.4509396479235265,0.4788232007212355,0.4950142198063122,0.5058933000610027,0.5306843892252205,0.5346810224381534,0.5244249562529669,0.5550902069213538,0.5904573447793696,0.6210819378389211,0.6472503211563659,0.6608675429411818,0.6684212234843797,0.6779730379242365,0.6879320328505273,0.7005558056128652,0.7147733760784315,0.7337672206266176,0.7518196077347933,0.7698801671843439,0.7885633726143134,0.8038027740038741,0.82306755906215,0.8479816434974953,0.8748796488366427,0.8980668813232492,0.9182038563316245,0.9400509055118612,0.9627349231116978,0.9850578609189601,1.0,0.9856450974665364,0.9602452455638578,0.9347322787208655,0.9091619758118926,0.8814662653338522,0.8527386640367652,0.8227420001124089,0.7930684271767275,0.763551122794962,0.7287411512880845,0.6982231034991263,0.6686436910289838,0.6399111313976088,0.6111799985675314,0.5824548994158784,0.5552983001785755,0.5305565038812329,0.5108803236849909,0.4966594893703077,0.4918921201307983,0.4924125085207244,0.5015491916252538,0.5105222149269261,0.5172303311506016,0.5284852619843684,0.5389539133400721,0.5393288053643838,0.5360926637013667,0.5266779285438653,0.5204831140343619,0.5203396916332642,0.5203396916332642,0.5203396916332642,0.5204001697687476,0.5260072921614122,0.5411385943797896,0.5566619733837453,0.5680018484397605,0.5756554327552815,0.5648480039941622,0.5497960105188363,0.534651483223655,0.5216660080682246,0.520295964429302,0.5155751916736869,0.5041235291074849,0.5051176708769266,0.5216466244114216,0.5270982169797077,0.5205660162811946,0.5153718400458293,0.5108838276559332,0.5080308103462278,0.5012284410865505,0.49453590612220266,0.5000980744019062,0.5075896066166364,0.505334150092723,0.5013647118055057,0.49941885311363954,0.4751362733320149,0.44597816087282893,0.41569131722960406,0.3785069140592606,0.34754770800602375,0.31086721746270773,0.27257079957102237,0.23427196173326792,0.1959731238955139,0.1576783987278575,0.12139251107354598,0.09014099833359113,0.052317354779776504,0.018547288208258128,0.0,0.014242106726780612,0.044113577562791995,0.08167299757541635,0.11996939762707626,0.15676630616534026,0.18769444796559853,0.2253680515302049,0.2636666923305323,0.30194280972938115,0.3365911746045266,0.3691730683935931,0.40736184557977173,0.445634945933831,0.479994371621954,0.5075440093098665,0.5319868442373826,0.556247825996739,0.583101596679355,0.6176460510937806,0.6459153053441143,0.6663768956030195,0.6790971424106093,0.6843204399447099,0.6960490513112408,0.7103935314753994,0.7255576711263737,0.7431264361689539,0.7582824326215375,0.7734441922557159,0.7918403132175357,0.8088072046912146,0.8300414877364833,0.8493633381001996,0.8688773110266238,0.8932900301056824,0.9203846598670454,0.941319219148037,0.9628420559585115,0.9786047977328397,0.9905179647862105,0.9746664353899984,0.9468368919028561,0.919225052117176,0.8939862547472804,0.8653019195213713,0.8383664196730652,0.8101436533420358,0.7795846602894242,0.7503806503544793,0.7216529856329702,0.6918990057660929,0.6615098208887619,0.6265296349561943,0.5972722356986676,0.5706433420103406,0.5464545229921106,0.5274161281085566,0.512264875449511,0.49780388000206643,0.49194389008016703,0.49221708213033055,0.4991228932661952,0.5043113273152008,0.5136571000213571,0.5201386353420815,0.5203396916332642,0.5203396916332642,0.5203398231208382,0.5208340726103485,0.5254634417223524,0.52061695881019,0.5216618406014931,0.5220738474078505,0.5203462676610372,0.5203396916332642,0.5203396916332642,0.5203396916332642,0.5203396916332642,0.5203396916332642,0.5203396916332642,0.520344592651378,0.522449521293859,0.5295092325972027,0.5293154668365178,0.5203464724738597,0.5123122893043403,0.5175180788405195,0.5069102169291618,0.49278061122116645,0.48379159073281197,0.4824187996624326,0.4865936865278172,0.4848355235736118,0.4909977817526924,0.49073004273336773,0.46995580888443167,0.43964804117932477,0.4070332905147068,0.37360762584906915,0.3354360938159514,0.30186448049580006,0.26822373522543186,0.23028777687390034,0.19886402335973974,0.16288338189833584,0.12574086407954133,0.09625912796319469,0.07795153983798297,0.08945458403263651,0.12307549142096874,0.16119663973571907,0.19317674090951897,0.22846905759943803,0.26675891367346416,0.3050571417621891,0.34249434927266786,0.37325075237066174,0.41045467354974086,0.4487529047604578,0.4870517425982118,0.5253494137032323,0.5625537852238157,0.5933601008462578,0.6279541352746342,0.6565380594648534,0.6763966331123764,MI
0.28469069951316195,0.2823890545659067,0.30766243035207497,0.35490325943514645,0.40512707887251365,0.4238343054491307,0.4317176707464534,0.42602534367449607,0.3860175039759097,0.3398426479559893,0.2944983627150912,0.25481930654662666,0.21712340288934184,0.19427223069645327,0.19195242841019367,0.22304170629820375,0.27403418811174873,0.3130583914808285,0.35533196577212056,0.38889993653294086,0.3960300952903255,0.43631200516147084,0.4580693021605913,0.4618396328812593,0.4477055094375313,0.39559374205668574,0.33878913204328587,0.28197506409937834,0.22604396987641628,0.19512003069934503,0.1906529771756058,0.1925296181202807,0.21203354125855034,0.2651914136569258,0.321999038669452,0.37881286241082046,0.4345071491373411,0.4611118282315423,0.4548989166820596,0.45866595933318965,0.4776414530540323,0.49251095046070725,0.4994421636212967,0.5038624784223287,0.5064851141042648,0.49319761338529444,0.48062213670726717,0.4993895252206584,0.5071759617540725,0.5135925096745133,0.522116118911216,0.5240986668900653,0.5262442463969559,0.48744692923697386,0.43678804979888985,0.39081873054670746,0.3380979705553995,0.29062453004783695,0.23932428587366505,0.18284835940111321,0.1363749183132308,0.09077691122549592,0.07823635646857552,0.11597327041917005,0.16739742740784314,0.21415489256869646,0.2706828377944954,0.3274792658611094,0.3793149117683541,0.4263110043770695,0.48286468680396455,0.5396789827938449,0.5958533727229782,0.6304713798652659,0.6130237196329227,0.6056380942854576,0.6332935063571203,0.6658609365726069,0.6882304522539311,0.7060599083863806,0.7282273099143266,0.7481632208088893,0.7784554692062451,0.8075467227723623,0.8320666465557789,0.8644513958217268,0.8930050458145793,0.9240362020350048,0.9615219784092419,0.9893910656705107,1.0,0.9732342269046588,0.9398063823631455,0.9013145035170727,0.8596615686063092,0.8189405897233497,0.773945220113986,0.7346599410332093,0.6930697652520728,0.6529907838073195,0.6156287632733077,0.5811771536410961,0.5598185521558845,0.5524710157193575,0.5524538575028202,0.5589877463605384,0.5630815750667999,0.5527839701111801,0.5514642586453498,0.5374863746828797,0.5231058181184749,0.5146333782004189,0.5072526591898381,0.5047366862958094,0.49287883268168553,0.4943524022664847,0.5050447587059561,0.4941812307408524,0.4920004753078002,0.48456353728703894,0.48986382682321805,0.503595014855506,0.5017979806623107,0.48781923037289143,0.479472442046466,0.4909796599226137,0.49239140251976465,0.502461428903783,0.5031388387325197,0.49115061403811344,0.462237135260295,0.419788973246785,0.3757751413779471,0.3235852307472271,0.27775739657141507,0.22150852262805998,0.16913128848249803,0.12393475629298667,0.09037161580003406,0.09727752766286524,0.1482514511060007,0.2050438939013559,0.2573084259543683,0.3039153791271554,0.3604270692785776,0.41724143453299556,0.4739358226670398,0.5133911276708667,0.49524737419814313,0.4987610816039352,0.5250940940660076,0.5546976273349058,0.5842773476611316,0.6033690598173123,0.6131849493200376,0.6265126514391861,0.6530094518768048,0.6862262249376059,0.7184894549565564,0.7520553595566297,0.7866338515279008,0.8212625632996349,0.8466647342271738,0.8362123009492972,0.8106298773441503,0.7822180772173524,0.7504847675972077,0.7127021611599487,0.6748608231919921,0.6370254936380482,0.5972608601749099,0.5472524220367307,0.5092030253351107,0.47533121093010644,0.4396114944227305,0.4182367809131886,0.4030330561464197,0.39516011786692307,0.39008471469618566,0.40118711592691936,0.4016336660235398,0.4016337421009806,0.40164045146062,0.4044747275886258,0.41571260523757836,0.4023664830083704,0.388599203053412,0.4000749379592734,0.4017753857682611,0.41261738841443085,0.43059832390156094,0.43515292938341466,0.4447423106731736,0.433087784886534,0.4285872888677451,0.41734040927350735,0.41952260952514164,0.43125288667562733,0.4403557080816207,0.44070872285913154,0.4319150838054755,0.42739290153224685,0.40449000480111064,0.3531701054077576,0.3018010582185333,0.25441585270657985,0.19913652784985292,0.1542891764419556,0.09925310358198303,0.047237661444582635,0.006334004304346497,0.0,0.03410603850222116,0.08861070413216887,0.1334356283539524,0.18815341030618793,0.24496558778733712,0.30151080223807636,0.3484424359977303,0.4003542392530197,0.45713312734809275,0.5055217492167321,0.4907011369369494,0.483468651745504,0.5091017839689713,0.5374994225683105,0.5636482726966783,0.5829719769269066,0.6061513073301619,0.6284086804644153,0.6505867584913738,0.6797436978310523,0.7136014396474866,0.7421600375227646,0.7731168420924166,0.8064485156723951,0.8349086927277112,0.8613836042907348,0.8654287757752539,0.83496674279951,0.7971349628228208,0.7631037122135744,0.725648224035492,0.6830959567871675,0.6404223994501974,0.597938199490307,0.5598196968755236,0.5258512890173503,0.49733427389129625,0.4703900558623739,0.460906755736918,0.44902440820266865,0.4534524326579108,0.4675322278130083,0.48047982182512383,MI
