0,1,2,3,4,5,6,7,8,9,10,11,12,13,14,15,16,17,18,19,20,21,22,23,24,25,26,27,28,29,30,31,32,33,34,35,36,37,38,39,40,41,42,43,44,45,46,47,48,49,50,51,52,53,54,55,56,57,58,59,60,61,62,63,64,65,66,67,68,69,70,71,72,73,74,75,76,77,78,79,80,81,82,83,84,85,86,87,88,89,90,91,92,93,94,95,96,97,98,99,100,101,102,103,104,105,106,107,108,109,110,111,112,113,114,115,116,117,118,119,120,121,122,123,124,125,126,127,128,129,130,131,132,133,134,135,136,137,138,139,140,141,142,143,144,145,146,147,148,149,150,151,152,153,154,155,156,157,158,159,160,161,162,163,164,165,166,167,168,169,170,171,172,173,174,175,176,177,178,179,180,181,182,183,184,185,186,187,188,189,190,191,192,193,194,195,196,197,198,199,200,201,202,203,204,205,206,207,208,209,210,211,212,213,214,215,216,217,218,219,220,221,222,223,224,225,226,227,228,229,230,231,232,233,234,235,236,237,238,239,240,241,242,243,244,245,246,247,248,249,250,251,252,253,254,Target
0.2575200981815926,0.23935876365312403,0.19050313372631766,0.13349434723229248,0.07827654619969682,0.06556974504238111,0.07204383707428974,0.1211198206446169,0.1797993189467033,0.21743578142254893,0.1767931539699794,0.12143568126348336,0.1153608680648599,0.14888819176859425,0.21250257191810773,0.28805769365805656,0.3598780255458638,0.4263901224810529,0.5039736797549867,0.5350974862497804,0.4642364961965839,0.3659685941459365,0.26742247152358756,0.17093235113420313,0.11961133476773345,0.11357955600566916,0.11355277757108961,0.12322045905518708,0.1588673925416253,0.13472970573046528,0.14423969218821275,0.22677544446315823,0.2873978787397071,0.3251258659754699,0.3236700266169654,0.3505142116786213,0.35515265114482686,0.4384472852834991,0.5256026007218697,0.551813176980894,0.5564361901915893,0.5945097581337326,0.6616565648235757,0.729758881674083,0.77350125146133,0.8203104937154095,0.8668889406863474,0.8772563946657299,0.8666933533548389,0.8817777542090055,0.894413954153054,0.9255497543194955,0.9101704049642323,0.936674156711145,0.9459109007017577,0.9289452063864174,0.883646903368748,0.8226106062543566,0.8042135644180086,0.770376832174168,0.7635414859783736,0.786044557162096,0.8203886304323418,0.8753419073594517,0.9053514758951846,0.9121700911523019,0.9297442764085706,0.9457389032694876,0.9737499027537875,0.93676676187077,0.8530141335049106,0.7714799500539686,0.6867039838175986,0.5988727638829792,0.5016567577261664,0.42205813970715633,0.3605246265123423,0.3885256903518228,0.4673929388542346,0.5653165260460677,0.6598855408430206,0.7397814975902746,0.8208927445553234,0.8458721614690439,0.8025463131587549,0.7382634673056461,0.6837456682048941,0.6385338555256657,0.5849129556250197,0.52863435283989,0.464417882766047,0.4214745126288295,0.3580783901025355,0.2932024399970521,0.23435737964679193,0.17013651638545868,0.10843070599868998,0.06703369135758264,0.07324173141600321,0.09316225974006498,0.13719264719685542,0.21061957051211921,0.28371633303153754,0.3391928574907719,0.39951329216249354,0.4613222946519109,0.5209369626259268,0.5840231440787993,0.6434724631877877,0.7194355621652222,0.7805994089725545,0.8384476251782638,0.8684783656487247,0.8985366027609856,0.9063006290998303,0.9063567525573268,0.9132579504695033,0.937010303307598,0.9356001638681426,0.8753123745028186,0.8366639526549196,0.8136448413644461,0.7867640546895154,0.7917132574319923,0.8237692461365564,0.8822380573105426,0.9406904890770549,0.9726335999266618,0.9786694950145924,0.9861744059180233,0.9790098303725006,0.9697529079402369,0.9170462402971045,0.839837098762295,0.7604053543987903,0.671640891653329,0.6137998518004535,0.5372041250811606,0.4397572458310113,0.34787498999908495,0.2776265361412693,0.28843639655800946,0.3625775462987506,0.4578266109323872,0.5538864946536788,0.6334739001938896,0.7294431555887542,0.8268376111966895,0.9074438896282344,0.9835309513709958,0.9694316445362348,0.9020200577502036,0.8279056678755023,0.7437110356664114,0.689700138339854,0.6461545942704983,0.5968306289389447,0.5406773552189672,0.4974828197687411,0.4362223083824892,0.3601656960001747,0.3055822770510144,0.2500108033361266,0.1903228973632114,0.14200982363926284,0.10470197333871134,0.09307972047500668,0.12333778913181037,0.17883316611664934,0.2413017516372924,0.3017300514480512,0.3660174253857815,0.4348244576365312,0.49451780536688217,0.5541549878612533,0.6250748415120593,0.6879460080126192,0.7532095053262653,0.8030222022122202,0.8519783039997759,0.8922856538689294,0.9267860452618346,0.9309388104233505,0.9481351234434379,0.9718672546025986,0.9731718124214228,0.9630522192036248,0.9709842160771722,0.9348141545987398,0.9006537883953363,0.856566957001855,0.834704636316395,0.835000516535596,0.8655975167431111,0.9260154471821864,0.9933195467963727,0.9999999999999996,0.9670696001195869,0.9304153102558907,0.9177179753614628,0.9165311619546963,0.894393301595128,0.8397953363241357,0.7607135542695196,0.6724624035002278,0.5876506620860606,0.48954063527296166,0.41283318922267,0.42253514612772625,0.49969973304664794,0.5931318916774222,0.6734122245474832,0.7709896593685879,0.8687369585219469,0.9489974354635531,0.9859255463987107,0.932318566142651,0.8666547035311605,0.7940321333454521,0.7118664933855641,0.6457383652794775,0.5892247918103406,0.5343031140119878,0.49063831475738473,0.446658576933181,0.38703107719933927,0.3102173646640525,0.25570688528531793,0.1963054120518435,0.13437479246409278,0.07343319689943106,0.022433367985825736,0.0,0.005242184331611721,0.009613486376733427,0.06112504585557543,0.11746430790002416,0.17633335290370056,0.24304470982142412,0.31230612960269966,0.37377285809677296,0.44632475641274905,0.5127129914556829,0.5784479255401314,0.6438967298709768,0.6996434487073433,0.7547612728403186,0.7662485352993698,0.7895855643183656,0.8248099973733036,0.8343213395920404,0.8459201298742527,0.881513935431419,0.900619074750582,0.8834735602165655,MI
0.6387037194691985,0.6387035459964121,0.6370762034721151,0.6171508630653131,0.5994171338999603,0.5911014279410707,0.5749533814751575,0.5489620617056521,0.5219612565872409,0.5008341232152067,0.47441338985143133,0.4527251661048326,0.42406817396704,0.3935248347220095,0.3638710228876101,0.29930052756025605,0.2275121092226886,0.15571012245883065,0.08392733365988914,0.021139859751269974,0.0025921475017089968,6.8174734155768135e-06,0.0,2.4165204880244318e-05,0.010766596994693067,0.0504550564584445,0.03215925144475129,0.010905419329233723,0.03154600562901555,0.0998368403528338,0.1474458153811371,0.19292913509050624,0.21090475290263067,0.19611713065107184,0.2351128281716517,0.22719095460714245,0.23392696312212546,0.2962723662051907,0.3667055060065416,0.4066482352227787,0.4431860645900261,0.4794109681277283,0.5234991274485705,0.5697436392398356,0.5971024636700073,0.6162526373965052,0.6357647430102551,0.6387004427610039,0.634054142407829,0.6160240150402077,0.6226147453447797,0.6252719135136755,0.6018033706391757,0.5996986455320923,0.6009346023411846,0.6002163963979101,0.6148415226494679,0.6002877783774183,0.6010186186199,0.6155723273554923,0.6314572860693706,0.616991932165194,0.5992178678618472,0.6034535628408828,0.6338926366493229,0.6272742429359237,0.5935016000045032,0.5913928388041452,0.591572957195579,0.6037169653510039,0.5936277096148621,0.5579940443712013,0.5221580605632692,0.49978790315277255,0.5174300755988526,0.5223119965650485,0.5485630058194242,0.574688028776233,0.5931436901421048,0.6129073299777126,0.6150475057371643,0.6139839886462437,0.5949311423274377,0.6027603920804876,0.5906392906464872,0.5703106632124584,0.5677372418642417,0.5659115110521364,0.528980252259228,0.4811779951173558,0.4336646318868347,0.4043852992413317,0.41457384548095844,0.4620206371582216,0.5211710050055296,0.5811352022170082,0.640514811833516,0.7012272015176975,0.767306444820878,0.8217532037612432,0.886800662454672,0.9416195534600589,1.0000000000000004,0.977775278167925,0.9118702166023591,0.8585580682254066,0.8036883635480385,0.7557518291803365,0.7078430484236153,0.6520386394709283,0.6182821707083361,0.6009955399012128,0.5939791247544282,0.6138546283251034,0.6150407542422704,0.6083466124339476,0.5917447618835769,0.5911127840259423,0.5680012735197519,0.5440765860466135,0.5254173230201737,0.49574812028651927,0.4555504183226189,0.4271431175725424,0.408656561300345,0.3988821022598428,0.38002277274878216,0.3645400318694869,0.33280237555354253,0.33119693807529726,0.3396783904303615,0.39142861529707673,0.42998332842618137,0.4584929855529607,0.5094296668147789,0.528045872016385,0.5441067929384733,0.5604307524205439,0.568074947733689,0.5835751374825371,0.5705111291127034,0.5530783193476978,0.5293091568635124,0.5204514202559167,0.5187407168836642,0.4988333432069947,0.4810624216296362,0.47093883996362296,0.45246460518596665,0.4685369448380472,0.484826099811571,0.4937840233233075,0.46555745657042014,0.44913987374766196,0.43194786160135834,0.43177787868566364,0.46393389689787545,0.5012435733481326,0.5487585484222879,0.6041139959574005,0.6377297176223831,0.6658793480152476,0.6529565257221845,0.6056603800202147,0.5665985753844192,0.5471163453108412,0.574186436000724,0.5855765498568717,0.5707705484525261,0.6016416823979269,0.6497819631255171,0.7055893349265046,0.725418500245469,0.7100189333347484,0.7096707994102203,0.7096709584269418,0.7105733185931142,0.7285339154530708,0.7247076365716159,0.7071166848063659,0.6872978239174223,0.6687508044519532,0.6486260110344069,0.5949649982383329,0.5402343859124454,0.5025191749959665,0.5033822413413338,0.5362756582139991,0.5881300809902839,0.6447761728719787,0.7078713441216506,0.7721694490825723,0.8281142772862968,0.8916636667163647,0.9476384650813929,0.9905381581366277,0.9659569373911014,0.910208348191619,0.8559126328541811,0.7992771772514788,0.7444945184369698,0.7092778680620602,0.6631020410937958,0.644677996152339,0.6534891439223891,0.6386261792972858,0.6222396900773886,0.6150662721584474,0.6121090496965804,0.5931306042754376,0.5913928002546367,0.591342444685266,0.5773890721915369,0.5352949461687797,0.5305184611419893,0.509650424277698,0.47738934313483306,0.4541599368493694,0.4448172921183571,0.4266814722018437,0.41305715124105236,0.4047765487553172,0.4402644972582279,0.4601606852269242,0.5039338423405537,0.5379150402246413,0.5642359926829972,0.5906817754978788,0.6123470798083406,0.6408673157513665,0.6613083113057052,0.6623594127828727,0.6623587381664793,0.6599908340909666,0.6417092457819171,0.6551135431696018,0.6400624043722676,0.6216347792660186,0.6150769930257027,0.620574793949813,0.6380406989554519,0.6387188459281954,0.6449115811338584,0.6617518947483791,0.6509208951385093,0.6344327810214816,0.6163909560519514,0.6303905935591243,0.6377305705411298,0.6188284292435888,0.6018005540502758,0.585929404421468,0.5533655696346576,0.5176365410327883,0.4972040742949946,MI
0.6387037194691985,0.6387035459964121,0.6370762034721151,0.6171508630653131,0.5994171338999603,0.5911014279410707,0.5749533814751575,0.5489620617056521,0.5219612565872409,0.5008341232152067,0.47441338985143133,0.4527251661048326,0.42406817396704,0.3935248347220095,0.3638710228876101,0.29930052756025605,0.2275121092226886,0.15571012245883065,0.08392733365988914,0.021139859751269974,0.0025921475017089968,6.8174734155768135e-06,0.0,2.4165204880244318e-05,0.010766596994693067,0.0504550564584445,0.03215925144475129,0.010905419329233723,0.03154600562901555,0.0998368403528338,0.1474458153811371,0.19292913509050624,0.21090475290263067,0.19611713065107184,0.2351128281716517,0.22719095460714245,0.23392696312212546,0.2962723662051907,0.3667055060065416,0.4066482352227787,0.4431860645900261,0.4794109681277283,0.5234991274485705,0.5697436392398356,0.5971024636700073,0.6162526373965052,0.6357647430102551,0.6387004427610039,0.634054142407829,0.6160240150402077,0.6226147453447797,0.6252719135136755,0.6018033706391757,0.5996986455320923,0.6009346023411846,0.6002163963979101,0.6148415226494679,0.6002877783774183,0.6010186186199,0.6155723273554923,0.6314572860693706,0.616991932165194,0.5992178678618472,0.6034535628408828,0.6338926366493229,0.6272742429359237,0.5935016000045032,0.5913928388041452,0.591572957195579,0.6037169653510039,0.5936277096148621,0.5579940443712013,0.5221580605632692,0.49978790315277255,0.5174300755988526,0.5223119965650485,0.5485630058194242,0.574688028776233,0.5931436901421048,0.6129073299777126,0.6150475057371643,0.6139839886462437,0.5949311423274377,0.6027603920804876,0.5906392906464872,0.5703106632124584,0.5677372418642417,0.5659115110521364,0.528980252259228,0.4811779951173558,0.4336646318868347,0.4043852992413317,0.41457384548095844,0.4620206371582216,0.5211710050055296,0.5811352022170082,0.640514811833516,0.7012272015176975,0.767306444820878,0.8217532037612432,0.886800662454672,0.9416195534600589,1.0000000000000004,0.977775278167925,0.9118702166023591,0.8585580682254066,0.8036883635480385,0.7557518291803365,0.7078430484236153,0.6520386394709283,0.6182821707083361,0.6009955399012128,0.5939791247544282,0.6138546283251034,0.6150407542422704,0.6083466124339476,0.5917447618835769,0.5911127840259423,0.5680012735197519,0.5440765860466135,0.5254173230201737,0.49574812028651927,0.4555504183226189,0.4271431175725424,0.408656561300345,0.3988821022598428,0.38002277274878216,0.3645400318694869,0.33280237555354253,0.33119693807529726,0.3396783904303615,0.39142861529707673,0.42998332842618137,0.4584929855529607,0.5094296668147789,0.528045872016385,0.5441067929384733,0.5604307524205439,0.568074947733689,0.5835751374825371,0.5705111291127034,0.5530783193476978,0.5293091568635124,0.5204514202559167,0.5187407168836642,0.4988333432069947,0.4810624216296362,0.47093883996362296,0.45246460518596665,0.4685369448380472,0.484826099811571,0.4937840233233075,0.46555745657042014,0.44913987374766196,0.43194786160135834,0.43177787868566364,0.46393389689787545,0.5012435733481326,0.5487585484222879,0.6041139959574005,0.6377297176223831,0.6658793480152476,0.6529565257221845,0.6056603800202147,0.5665985753844192,0.5471163453108412,0.574186436000724,0.5855765498568717,0.5707705484525261,0.6016416823979269,0.6497819631255171,0.7055893349265046,0.725418500245469,0.7100189333347484,0.7096707994102203,0.7096709584269418,0.7105733185931142,0.7285339154530708,0.7247076365716159,0.7071166848063659,0.6872978239174223,0.6687508044519532,0.6486260110344069,0.5949649982383329,0.5402343859124454,0.5025191749959665,0.5033822413413338,0.5362756582139991,0.5881300809902839,0.6447761728719787,0.7078713441216506,0.7721694490825723,0.8281142772862968,0.8916636667163647,0.9476384650813929,0.9905381581366277,0.9659569373911014,0.910208348191619,0.8559126328541811,0.7992771772514788,0.7444945184369698,0.7092778680620602,0.6631020410937958,0.644677996152339,0.6534891439223891,0.6386261792972858,0.6222396900773886,0.6150662721584474,0.6121090496965804,0.5931306042754376,0.5913928002546367,0.591342444685266,0.5773890721915369,0.5352949461687797,0.5305184611419893,0.509650424277698,0.47738934313483306,0.4541599368493694,0.4448172921183571,0.4266814722018437,0.41305715124105236,0.4047765487553172,0.4402644972582279,0.4601606852269242,0.5039338423405537,0.5379150402246413,0.5642359926829972,0.5906817754978788,0.6123470798083406,0.6408673157513665,0.6613083113057052,0.6623594127828727,0.6623587381664793,0.6599908340909666,0.6417092457819171,0.6551135431696018,0.6400624043722676,0.6216347792660186,0.6150769930257027,0.620574793949813,0.6380406989554519,0.6387188459281954,0.6449115811338584,0.6617518947483791,0.6509208951385093,0.6344327810214816,0.6163909560519514,0.6303905935591243,0.6377305705411298,0.6188284292435888,0.6018005540502758,0.585929404421468,0.5533655696346576,0.5176365410327883,0.4972040742949946,MI
0.1312039978302102,0.164264839339463,0.21305153557292544,0.2725480373202329,0.3312395275434026,0.37889070228369404,0.4369201644869114,0.49413136692277115,0.5422041240481166,0.6005607567674982,0.648898440553138,0.7034317260342147,0.7391177894600722,0.7700595170792459,0.8058092266352439,0.8502699632982025,0.8901117572009238,0.9077825985399741,0.9081930995494623,0.8998079745586702,0.8913294482474656,0.8709695549037679,0.8499382348973259,0.828517573935394,0.7959277137541312,0.7754117843225177,0.7230218143414646,0.6631604500407597,0.6032745396918671,0.5447473806878369,0.5145490959339374,0.5108722586261658,0.5108391628520681,0.5140995794085588,0.5392639850369823,0.5284215598775113,0.5222095511642024,0.5656516789124262,0.6082442651936142,0.6421431699403,0.6337835608959637,0.6392273597341807,0.6622493544695742,0.6616788187775442,0.7099483897011902,0.7471052341032189,0.7275091574113053,0.696373117992112,0.6689196368251733,0.664241718823213,0.6768267885046484,0.7043550350601508,0.7401240632806934,0.7766111015001518,0.8136636617662676,0.8535170517088697,0.8934771200286238,0.9327977506015923,0.9645695228457725,0.9885912355535247,0.9996531268744384,0.9933645261386768,0.9848614886053695,0.9847136349457899,0.9846882614929249,0.9796858566254656,0.9800983122722431,0.9846986288673949,0.9847136349457899,0.9847136349457899,0.9847136349457899,0.9847345480843339,0.9894650056133272,0.9996751395840793,0.9989729466526875,0.9870670104201289,0.9847162613966831,0.9846938955522555,0.9797187236560538,0.9759286863229621,0.9905070239367681,0.9997462352822621,0.9918835071645691,0.9685138350892073,0.9303472015548637,0.8949557733651665,0.868203512258594,0.8668164978532542,0.892024407972638,0.9150337031800304,0.9373339338298234,0.9647330813716279,0.9832783996773706,0.9974819541067337,0.9999965842801086,1.0,0.9999389098719189,0.9886741822260308,0.9462024308421633,0.8913535959321579,0.8314903052259437,0.7716037221312151,0.7117171807808829,0.6523343029482871,0.6039528999330779,0.5473350778106698,0.4874571717117817,0.42757058861705266,0.3676901273073552,0.3111516313085432,0.2625480472149435,0.20331050023359598,0.14342420517520793,0.08444725884691917,0.05471510669866797,0.07998550649679292,0.13042605994146528,0.18936993011886538,0.23747271658720992,0.2946731119233237,0.3544204863175806,0.40607413462718744,0.4590849041356466,0.5148736944295784,0.563516951809087,0.6069189585926544,0.6462165689420765,0.6972095786333474,0.747149041271284,0.799255275708799,0.8465151146567003,0.8915021175303504,0.9250915255609264,0.9431680159016218,0.947173754882126,0.9327420137593885,0.9208425976947279,0.8994151290537733,0.881468837958681,0.853906625068686,0.8280514191419086,0.7847820904783682,0.747599023479049,0.7173376163747487,0.688752054264897,0.670898732883626,0.6506006755510256,0.6501480238799155,0.6711877114090865,0.701352163687456,0.737316721581946,0.7731035647210125,0.8163256375063366,0.8533391308029397,0.8888344750473971,0.9189351798036576,0.9472706649815921,0.9708295045037323,0.988847855397629,0.9996364066599348,0.997239933638042,0.9855087106202078,0.9840344917528836,0.9722710356587778,0.9722482264133396,0.9840087221599427,0.9803770070119668,0.962133779092881,0.9542404315914674,0.9541409048373701,0.9541409048373701,0.9541406376732282,0.9532132096651766,0.9414168130176424,0.9457647891754668,0.9540541005614669,0.9541402202292564,0.9523845987065598,0.9385490233550242,0.9235422296433833,0.909934755746082,0.9033667432157402,0.8698554698925065,0.8301407757953774,0.7976468763038675,0.7862374504972367,0.7945359408300483,0.8318757446075846,0.8535398160836523,0.8751502674779856,0.9018585075402052,0.9136969932137173,0.923328255609793,0.9235681747289499,0.9236882253949275,0.9332404815620357,0.9423469071420887,0.8924273973566903,0.8325919158801405,0.777903616589839,0.7361159976071776,0.6984673648282156,0.6599127060426082,0.609486643116679,0.5496816694618598,0.4898013209048777,0.4332976617132904,0.38466771984994175,0.32542158316562375,0.26553511904242577,0.20564853594769783,0.14588738062477602,0.09477266114560479,0.04171730676094443,0.0,0.003960100989656157,0.05050119501056782,0.11015371425610154,0.17003857128126376,0.22815223342849,0.2759681442297195,0.3344132378109581,0.393011749562572,0.44068926537485353,0.49856819945403785,0.5485589779417146,0.6006884240714521,0.6485500872822816,0.6986386692647928,0.7517521239709981,0.7983355168393258,0.8365285136368898,0.8601458076203943,0.8759559013980445,0.8681559973244801,0.8617952676465355,0.8524430070525879,0.8491689727825764,0.8334556590920892,0.809525164772297,0.7856773595154087,0.75609251960541,0.7261550577001099,0.699455320063902,0.6811244739430831,0.6659673196451563,0.6813177809437754,0.70817395278433,0.73810872715242,0.7680521845127242,0.798682612298967,0.8368040233613523,0.8766082228813921,0.9101740414987685,0.9315150471108615,MI
0.7331764017451996,0.7800475805886049,0.8298155010654718,0.8748266570334429,0.9040573325420618,0.9029069508137266,0.8981944646347166,0.8842172298372231,0.8777614435965537,0.8633958089506311,0.8725881893264038,0.8967246703465985,0.8988273337859716,0.8910279771646787,0.8807135377203892,0.880512804306655,0.8804125341083169,0.8707599585507948,0.8372167289726002,0.8089460875084571,0.815375810859031,0.8411155468311202,0.8611162554005327,0.899734495241848,0.917054429835086,0.9271047778186214,0.9183001909730542,0.9200527166209636,0.954708450646069,0.9620999879766448,0.9055469416480593,0.8363716885089802,0.7616503256535925,0.6869017566037297,0.6121531875538664,0.5374046185040027,0.4626560494541385,0.38806101972868134,0.325706135399805,0.2840961344766697,0.23070333954197775,0.1885129543521784,0.16760441438160978,0.2098157932758986,0.2695156210076113,0.34236829590446805,0.40680158061504956,0.4737447960470895,0.5453688363236142,0.6059047656660703,0.6783232541899209,0.7251866647995202,0.7081246741610796,0.6893724948629942,0.6514631440727521,0.6220827018595108,0.581685157519062,0.5315689458598505,0.48087483010120957,0.4332768537024414,0.3801629742436652,0.3316193289215761,0.2834484808516011,0.2311226739178518,0.18652585083282158,0.1320817408375916,0.07862075658766621,0.03388024550033819,0.006036264772082411,0.0,0.025550817826985206,0.0789986712145967,0.13651085090434822,0.1895332673163317,0.2443113385383744,0.30365117096747385,0.36088604561312776,0.4169796334676876,0.47509326883752534,0.533392886446157,0.5872050787464036,0.6373435421289133,0.6914721763707674,0.7354064646424665,0.7687611365726559,0.7879787244721976,0.7934153711156458,0.8114951704251498,0.8250247819823766,0.8360829325956929,0.8637607169516839,0.8828550351033964,0.8977891650406011,0.9102759272616905,0.9286619452920997,0.9356226315847866,0.9392013556683234,0.9545856011704967,0.9699777394111457,0.962745819372866,0.9287037415067285,0.8867374013448543,0.8512011041395628,0.8498330103935929,0.8781029364733528,0.9040498898350888,0.937692406450648,0.9647342757351933,0.9833710436838823,0.9810448408380728,0.9725613696341768,0.9809904963555427,0.9924261168872919,0.9377892264821179,0.8633573950165223,0.7886562796612435,0.7211126594027646,0.6572803962364708,0.5895294164773581,0.5425657869720077,0.4927409489496153,0.43979719942896756,0.39169039579028153,0.32868232928887053,0.26280825732024615,0.19061887589517124,0.1536497411372908,0.18810008615210005,0.24788071905383058,0.3168535512702624,0.39147237860482376,0.45735008653972864,0.5228090549185636,0.5974454959683286,0.6697748369267917,0.7301425496540572,0.8032722289132979,0.8673852532996928,0.8688815220060739,0.8358093699839744,0.8131469763206445,0.7842051148248501,0.7572307797407967,0.7166263402797561,0.6713912892241063,0.6172979727954764,0.567220479825838,0.518374972436872,0.4734966115017438,0.425003283263111,0.3803740682059793,0.3387999300187663,0.29422506610604593,0.26096512414390105,0.2590803517505522,0.28616766261184345,0.32388350027351054,0.3721466456477973,0.435822915467762,0.4863369335704162,0.5402959553849622,0.5995057949619542,0.6555885549569553,0.7116538525200871,0.7660520161484614,0.8153426147645244,0.8598109946777401,0.9041348573106349,0.9407894199267495,0.9537633134825159,0.9540359869786519,0.9540364094261475,0.9553348113535511,0.9698178823313137,0.9617071988209727,0.9689188832439424,0.9888528238833896,0.9964173134275733,0.9965414787733571,0.995761463050667,0.9779518731740136,0.9635449138854737,0.9402309746764805,0.9158200375273324,0.8903387279341515,0.8667634554117796,0.8754787375213868,0.9041618143448269,0.9266603652254868,0.9558589754067106,0.9723002520727504,0.9821904255802694,0.9644768776199921,0.9393598760811543,0.9562365197327849,1.0,0.9820598441378934,0.9092470424795467,0.8475428294945093,0.7775632661214376,0.7028317795159951,0.6281029735786126,0.5593606032542264,0.49665876764384986,0.42221829898454066,0.3474697299346783,0.27303369664563215,0.21136251427651365,0.17167619380756083,0.186700203959707,0.25071376031411274,0.3192768718851422,0.38213234304401844,0.4565287856417708,0.5301734281374104,0.5906367796751231,0.6623971218658955,0.7371425980962609,0.8113836263138263,0.8513939065135165,0.8288182182079344,0.8165880948890307,0.7783675644171519,0.7452326764789952,0.7080297358152055,0.6674984436546882,0.6182668846674915,0.5703851579138046,0.5350661962467611,0.4870155830854319,0.4289690524858192,0.37510501339293967,0.3201048575039369,0.2649385244668956,0.22401807649196837,0.18691743566222563,0.16670696600760326,0.18584294162727355,0.2214469092307625,0.2690188311229189,0.30222592288904204,0.34514617198910713,0.3986064564436811,0.45671247316952535,0.5150173861602609,0.5710912453803805,0.6280853158056732,0.6877015359104792,0.7427105934752039,0.792326355663155,0.8336259704002247,0.8708285384341026,0.8899418742705678,0.8940942477320841,0.886549514315738,MI
0.8291004960272979,0.8768864643201582,0.8995993630279582,0.9116079156003174,0.890002019053461,0.9033693560666416,0.8825592101993331,0.8798810261307919,0.9006575179293508,0.9139816424905218,0.9476758489358046,1.0,0.948154078735806,0.862868914146091,0.794416318899267,0.702453339452215,0.6095705777175731,0.5171008540371744,0.445895918467448,0.3648022326524192,0.30694814853858166,0.30217166625255665,0.34572326005645504,0.4092790134799804,0.4762844219971685,0.5592283928846955,0.6245471384400476,0.6801109915897694,0.6521193484912065,0.619674664014938,0.5829986959926243,0.5544648071145284,0.5783700985543554,0.5659858115638023,0.5263293391768391,0.5158031043263138,0.47689356059303734,0.44428074212430957,0.4015886314924666,0.3827659583500713,0.3404069723573322,0.3196753582655161,0.28898467551195406,0.23766363724113848,0.20452490751172014,0.16524695504162334,0.11081436340790862,0.09069759571675284,0.050262474099629806,0.03845496795743486,0.06323933612968347,0.08182208384270773,0.1398994844601047,0.17892885088196042,0.23247814021356739,0.2686585143927225,0.33698221304716736,0.39944384015584244,0.45156965575480257,0.5004920112521223,0.5741977481127236,0.6166729499347268,0.6479153493420213,0.6780265686846434,0.6845306767251769,0.7009567744328002,0.6846229511585209,0.6838385532895979,0.6838384763066863,0.6838381235849864,0.6812603924186984,0.6540353409323139,0.6512159281886287,0.6512145153675117,0.653162728975988,0.679104915839222,0.6838375245179726,0.681502407105465,0.6337949034813519,0.6110224397431141,0.5603381030714516,0.5533493974512576,0.553482849697601,0.5683761303411456,0.5895993166241285,0.6169503099189795,0.6285886094547459,0.6527163497597206,0.6791818971456314,0.6838428483989087,0.6882647371033954,0.7075597723265696,0.6953184948507101,0.7163205644793953,0.7373736964771433,0.78310793139641,0.7995797055679432,0.7200943843362175,0.627225995470023,0.5352587298053573,0.46772270858352716,0.3817743727750944,0.31509102741970363,0.2705456286526875,0.26015201727597503,0.29641580709329407,0.3661175918032189,0.44580406100822145,0.5128949350979033,0.5939839061541887,0.5881055928654098,0.5538027524281475,0.5354460973504978,0.5208509949765752,0.5201242730324394,0.497129097461233,0.4857591120828122,0.457037603090499,0.42696299741680743,0.42195583513863344,0.3820920333384663,0.35340938874579386,0.3014315390640556,0.2622537491818866,0.23860555918082227,0.19837076119601615,0.16180532779112333,0.1057881847370874,0.08445988060126375,0.06433879881780413,0.07659368901872998,0.09913293670972045,0.13628779650579848,0.1893924469203867,0.24562593707472224,0.3076692294140466,0.3743681911700101,0.4335587088859958,0.4806014978671236,0.5470165108274996,0.593171521699186,0.6345274007550659,0.6560316763215148,0.682742522512175,0.6838383811278144,0.6829615426728797,0.6578969506497865,0.6512231571692002,0.6512143348075936,0.6512143348075936,0.6511565272527795,0.6328652052504458,0.6187118496409578,0.6179580469131265,0.5946810419813602,0.5868980594312081,0.6097342260455516,0.5826346425107358,0.5534383240112506,0.52729351600368,0.5207264104483098,0.5208365583440377,0.5390200797460443,0.5850498439090082,0.6088531972964413,0.6207377446317324,0.647019643484998,0.6512198584319853,0.6562925142160987,0.6826257176714012,0.6642807800950257,0.6537019138017444,0.6888003196757566,0.7232098186009424,0.7703067451384316,0.8249930971800099,0.7876933757385585,0.713812245444406,0.6347883209475178,0.5420194141429775,0.44916032641380443,0.3670483837331817,0.29568060299746257,0.204195210840866,0.13884497775939497,0.10008698026291363,0.13358624094871008,0.1952353274816261,0.2575886630705604,0.33174060824933793,0.3990820269428639,0.438798912165975,0.5028723343487949,0.5072686364600534,0.46551426567436494,0.4536752783616613,0.42631908728875434,0.42284798910789956,0.417495933395192,0.39189106983650923,0.37819762028850423,0.3475829481338373,0.3044967066259856,0.2854641852217208,0.24381040365088502,0.22233546445098984,0.18327588958943242,0.14812616805918122,0.09942572134416139,0.07548394888576215,0.029765022849924883,0.0,0.0004074542922003488,0.03208262711763599,0.06787424138938913,0.10859057881127221,0.16631650056888603,0.2335387775028952,0.2693904841598185,0.3279355461942153,0.3992265971764528,0.44063726228409816,0.5017212891921359,0.5733337894051518,0.5949813224744052,0.6196952869044363,0.6423631497049902,0.6219252609840078,0.6438965895524049,0.662382633162677,0.6835026513052087,0.6838384763066863,0.6838384763066863,0.6838384763066863,0.6836314866938586,0.6635254208620802,0.6538263789076799,0.68056756066101,0.6838380228073584,0.6838384763066863,0.6835413019218031,0.6625758747919104,0.6247321239782568,0.5869981296243685,0.5704877108834276,0.5537009213042126,0.5692837499046499,0.590245176641873,0.6174132821045228,0.6292304680095784,0.6529806392692663,0.6796437849840924,0.6838378884371865,0.6838384763066863,0.6838384763066863,MI
0.9661239086676394,0.9766082899018369,0.9639669993870479,0.9502054112253546,0.9463108572055718,0.9342124208498883,0.9206493488522871,0.9155169769080667,0.9092112058298061,0.8913819274783696,0.8841806882558001,0.8841195525599095,0.8841581415268558,0.8900122509888986,0.8996483950884642,0.8998181069244282,0.8998175199264327,0.8984699845520381,0.8857699210000898,0.884120357977618,0.8841645834494116,0.8903184933468022,0.8997135007645838,0.9060936083007971,0.9154182816862373,0.9218687232547924,0.9311230626078899,0.9376597827171609,0.9458756535436637,0.9287785064051786,0.9174545031127193,0.9298439011474859,0.93028242731202,0.9178201603823339,0.9172067612788135,0.9298902364981685,0.9316144872462262,0.9426626295449441,0.9487217739251013,0.9691227764057602,0.9799528772788411,0.9454250515938285,0.8924892140149567,0.8373932672161044,0.7823131309235158,0.732748209216171,0.687555296335808,0.6326964308944301,0.5775975832228815,0.5224987355513337,0.46739988787978515,0.41230140358794864,0.3583654486952015,0.3158616749849714,0.2627010487375514,0.2076042038865622,0.15250650225871998,0.09985615680835447,0.0613958992332837,0.04230932159892342,0.06474347504082867,0.10805195208223584,0.16244135165448048,0.20581143817771186,0.2574674971692865,0.30859036408272744,0.3523469158313812,0.40706804200389746,0.4616073573781758,0.5048199595154648,0.5565824499959682,0.6003619542081409,0.6299757739482756,0.6750145449323317,0.7275546650691478,0.7702290468641486,0.8244646895830954,0.8779721771115185,0.9132910596330777,0.939595627806781,0.9580843624784343,0.9625995395677971,0.9626251456592319,0.9672792427636008,0.9763768129244834,0.9639565950409916,0.957472979894197,0.9397070069589133,0.929480209712696,0.9166303820610362,0.905575626238992,0.892174187914482,0.8841967930621886,0.8841195525599095,0.8841420367204678,0.8892466450941394,0.8996023042042309,0.9002678901904919,0.9115766929762934,0.9155083213974273,0.9149773286022724,0.9032608664901889,0.89985307706272,0.9052514418165623,0.9153192529940157,0.9155890703493106,0.9232567190068091,0.9312167474758204,0.9402271591793201,0.9605412428625986,0.9626113740047986,0.9626123243825062,0.962882278189233,0.9728061197238693,0.9674926381837676,0.9631460249143782,0.9684955099249466,0.9684546683613799,0.9606211640647442,0.9476253584049683,0.9634792085357042,0.9736220553694914,0.9715075364528585,0.9844739878924438,0.9939048269517006,1.0,0.9873750728233026,0.9389818769765497,0.8946147457339846,0.8398558135000793,0.7856428947139422,0.7429816366177691,0.6902539979728335,0.6351589492261192,0.5800603042086414,0.5257509007047263,0.4902115117050201,0.4464548842691678,0.40278169026984356,0.35165443450771594,0.29656267861883845,0.2414638309472903,0.18654392726469582,0.14123071294635525,0.09665141874950534,0.08691665305462393,0.11565562909798488,0.16801502702066307,0.2136195064803983,0.26272415547005656,0.31734212543807727,0.3610796755285097,0.4123086206726905,0.4663292310486171,0.5089905605161409,0.5619000630929265,0.61699787652991,0.672096724201459,0.7271215523320049,0.7744617169674175,0.8212531445854903,0.8643999804678497,0.9053482298861701,0.9418909406086988,0.9679455492529279,0.9784056858735202,0.9845745330520983,0.9787341729755381,0.984041219722462,0.9828900725744067,0.9780817414445098,0.9672677624455264,0.9581852947799114,0.9464773205344339,0.9293134865109818,0.9150642954441093,0.9020847291151854,0.8877221074555322,0.8708764599327719,0.8684749588023553,0.8748655932113691,0.8839821532594088,0.8841195525599095,0.8841195525599095,0.8841194687030529,0.8831873791687435,0.8707379739530743,0.873168787356362,0.8838805995765244,0.8841774672945224,0.8910268128265604,0.8997037880064012,0.8998373701237092,0.9047920782797068,0.9152915565350472,0.9155166612889483,0.9155183647587952,0.9173834432525156,0.9278675600242492,0.9087011177108701,0.9008889883876874,0.9131816121782865,0.9096959451806725,0.8923645752204474,0.8971718802668058,0.9185456242730199,0.9206289690363856,0.921052261892394,0.9312650071871844,0.9434451387780567,0.9583404579683572,0.9212443326557658,0.872528226307558,0.8267575157548843,0.7718390320478137,0.7209197785593155,0.6769197544923107,0.6222306860563225,0.5671318803132026,0.5120330326416545,0.4569459820241062,0.40621270285704414,0.36205519440409617,0.30733617535576596,0.25223734864842995,0.19713850097688201,0.1420529320003967,0.09150562715477184,0.04733334850001403,0.0036092656692914282,0.0,0.028970224600334493,0.07920724173026161,0.12780715545269095,0.1738728127482243,0.2258349126303174,0.257392689991623,0.30092920807844226,0.3471678554894866,0.4021271098520156,0.4524211495852404,0.4968766299754863,0.5517411407401442,0.606839988411692,0.6619335404048443,0.7139777271364078,0.7570874057784147,0.8084002446328671,0.8511290910934646,0.8941256708564236,0.930042185922018,0.9490159258781268,0.9620322781901849,0.9659785233587908,0.9777473755967656,MI
0.31595650554519317,0.32194357071255375,0.3318980032389516,0.3247758034120667,0.31449026437530603,0.2964181488946933,0.2668347674201148,0.2411056038222139,0.2185473024247322,0.21772765286315243,0.2236006275983362,0.2358611952062042,0.24692092205454919,0.25321521667030633,0.26283325359137066,0.27627821334468083,0.2896094250920189,0.3038184160939057,0.31925113046420983,0.3428091647502125,0.36765152092367526,0.39940017929039073,0.431879541644528,0.4686734351812194,0.5048200759140631,0.5465547714520627,0.5810416604163149,0.6220563009915723,0.6637260610820004,0.6981368257520173,0.739131145347145,0.7743400033385841,0.814207369493515,0.8536609187856579,0.8891961762737095,0.9301400557946975,0.9644214724185303,1.0,0.9978545005254804,0.9610511537459829,0.9266966032678767,0.8851553502588243,0.8425375716707779,0.8004227377689288,0.7656139078823978,0.725147530081395,0.6825334741698192,0.6405754138416433,0.6061725801910289,0.5651467517489674,0.5233602058888822,0.48907631504258875,0.4477724280696953,0.4103738546587492,0.42192952493862834,0.44541242542782844,0.4514393956200158,0.4422318315455698,0.42407673137395174,0.40222721225171587,0.3722839776459457,0.33820857710583274,0.3142057135546099,0.32554937921517,0.34710782900878057,0.37120570373018236,0.3948956996374726,0.39929092989307935,0.38907003129068407,0.37776416376492516,0.3734231498124052,0.36711938347491313,0.3580036553417769,0.3560721827324036,0.3439699423849383,0.32852009154654604,0.31627785258363383,0.3068385510760854,0.29002516340355067,0.27071931188477105,0.2626363791128772,0.254443228816589,0.25988000068085215,0.26223202969020254,0.24938510364941258,0.22686890859729192,0.20534854127033797,0.17719803788759614,0.15319689013377435,0.14186345482055795,0.14114425304098166,0.14593751014523826,0.13103673975020902,0.1193418328049971,0.1068082364297549,0.09726423799582773,0.10028706259814713,0.10641938798611594,0.11230217081725402,0.1392891709861559,0.17283368329637305,0.2067399954405671,0.242861408691468,0.2804293937765707,0.32166974088465694,0.3559494026034924,0.3977519535934966,0.43875446380517347,0.4731742139656183,0.5151092769356489,0.5535376256568432,0.5900304717219247,0.6302037246957917,0.6651309701511323,0.7070051042799195,0.7422834316231905,0.7721173631596705,0.7653115152785399,0.7334519336544116,0.691401792287575,0.6487833510961014,0.6061648419453021,0.5635463327945027,0.5209278236437038,0.4783217227422587,0.4386318917629217,0.40325974580375257,0.36092378329036023,0.318808949388512,0.28400011950198034,0.24353392858912382,0.2015409226842455,0.1670365899746511,0.1261553740838257,0.08856463813020121,0.10528696097896528,0.1406201383926302,0.15800282477797367,0.15251560423410737,0.13335875936804564,0.11788252662789933,0.09467293543600519,0.06629673666328895,0.035824550718947856,0.007785566029630209,0.0,0.018563973975860737,0.04515022564213367,0.06974994180605631,0.08123717338947856,0.084624875058817,0.07633993626436042,0.07402384786177252,0.07002612113763163,0.07151066165015818,0.05690818893381744,0.055145262110984694,0.063359618993865,0.0649475551323504,0.07249603342508837,0.0810729945628792,0.09687908517332056,0.10770919944980806,0.11604618098971686,0.10856554605554414,0.08730733359790754,0.06920736300580299,0.050824938674989495,0.05347499082858431,0.06551498693049762,0.07465632944615619,0.07774510260313505,0.08526304828824727,0.0910241634954767,0.10191551166970814,0.11495537539817291,0.1289995873377956,0.148098057497962,0.1710257437904592,0.1993211919316853,0.23251106703378244,0.26640620258612024,0.30514187922788594,0.339975883459104,0.3796251520034175,0.41467068792062567,0.456814455010383,0.49413691050867037,0.5317069993340837,0.5738758709652201,0.6086473383796664,0.6490324090754589,0.6900312229601737,0.7244509731206188,0.7664153247343299,0.8082618230868155,0.8350336597244663,0.8287727365678288,0.7900768743519802,0.7509026662289231,0.7150915628716858,0.6726792781922151,0.6300607690414153,0.5874714434759993,0.5490933774593283,0.512587624240556,0.4700571473504618,0.4283821681468152,0.39406975389853116,0.35380793202535976,0.3194444353099597,0.27790329505160694,0.2361896087179478,0.2259911227173148,0.25391822815739906,0.2634597874422475,0.2617115493736164,0.2493885573586614,0.2307408879501165,0.19900981153278696,0.16867184150161063,0.16968329040901264,0.19289231794421346,0.2156587982734497,0.24065355426967527,0.261823675455805,0.27054861039081146,0.27113108390799234,0.2743088057491976,0.2799855164424212,0.27467409562446155,0.2738615109528404,0.26721928936141626,0.263567388976784,0.2640363386950686,0.2726330542209263,0.2832677883633332,0.29320820314798146,0.2936721689485946,0.27831400570371834,0.2518632763648636,0.2258179595662002,0.20430936111173725,0.18482574409934327,0.17982566258807808,0.17979477033565394,0.17910795627097587,0.17009986297637325,0.16177890289734842,0.16918771911205766,0.17795694067312828,0.18460468799761465,0.20416782036194348,0.23025022494722647,0.2623047563969345,MI
0.5223061705033736,0.5540097780592639,0.5588066661869684,0.5480873976482377,0.5525454020769631,0.5481060376456028,0.5211393882025002,0.4987398469118487,0.47393088554043405,0.44529243705496846,0.42524392663302013,0.4050688338667623,0.38831530191703223,0.3897520825401566,0.39310322066156633,0.4161243256199345,0.4439862046096268,0.4755584709424676,0.5411201226816393,0.5868805607112506,0.6335106759605553,0.6537966860295574,0.6739425169310529,0.7024560198213035,0.7112642419184834,0.7112801334730472,0.7113178160418556,0.7245977556160392,0.7489872216158027,0.7525181602917677,0.8194678638925605,0.8871723728323522,0.8873376664983788,0.8199340768420242,0.7493515105934359,0.699208501714943,0.6007194514929219,0.5147875023190487,0.4578319954030228,0.38737831066414685,0.30413511318823794,0.1931206618712622,0.08137798997411316,0.0,0.06089299934633097,0.14087747590100452,0.24945457547922345,0.3517595421369206,0.43578391774165137,0.5234748511112661,0.5805582338022095,0.6580125798545939,0.767494148803566,0.8489173470654023,0.8894596938732304,0.8405309896736357,0.7931585807823032,0.7675098610478637,0.7478975092316951,0.7317768052544453,0.7428718865710966,0.6909881329598839,0.6358940103598769,0.6061540874529889,0.5826192958037097,0.5284724451459439,0.4823309211361799,0.4480325306902433,0.4711100313211434,0.5374555469500164,0.5772531566887364,0.6314346027739672,0.6622909732960549,0.6510472004329921,0.6728189481948794,0.6731691830091142,0.6731691830091142,0.6731691830091142,0.6731691366658055,0.67262475188741,0.6451571071868987,0.635072588417505,0.6350342046458275,0.6232256458332364,0.5974913577604681,0.5875032603233343,0.5890707762641547,0.5752448915937407,0.556901587590974,0.5271031792074288,0.5141044790754723,0.5101768348585409,0.5035319315621001,0.4830163029873997,0.5071307100189895,0.5318608829537528,0.6007843860757438,0.6356033907150165,0.6754060364463452,0.7186935882384402,0.7789249118594448,0.7849499697519882,0.7719062502774507,0.7872401875054651,0.7925554691567518,0.8230852598303597,0.8401394600405432,0.8884286766845442,0.871571328462772,0.8585286400730681,0.8273518540521652,0.8589555600059651,0.9330040412378224,0.999047207233172,1.0,0.9157592247009729,0.8646174064315524,0.8038149808699844,0.7295510686687345,0.6693078245118897,0.6066406243882803,0.5304148724169613,0.4249327446497615,0.31945836939522465,0.23796281378560824,0.1636162655287432,0.24873895228384413,0.3512946148704552,0.433676849714967,0.5133832192134777,0.5992142783871071,0.6929992385613781,0.7750561836097969,0.8733587425903835,0.9372049929604325,0.9734326914737217,0.9233697922117869,0.8702624480635759,0.8550956431066998,0.7997381075213266,0.8254354371808601,0.8550889725822346,0.8112510211616266,0.7589251255221008,0.7493727997257782,0.7325547222590405,0.6506748172862515,0.6230359050698695,0.5705861355382096,0.5318220675901948,0.5751898763504881,0.6253710661125194,0.6194453969095672,0.6307839132918325,0.6039432338260928,0.5956337455138527,0.567206058813535,0.5948980986200789,0.6338634899186424,0.6064249900462322,0.5969571363103912,0.5969472820812483,0.5970336642444742,0.6169842845048645,0.6321101397188409,0.601545293642169,0.5969483943206555,0.5969469771910614,0.5950176852742155,0.5653662678485913,0.5503158472668792,0.4914145944902959,0.49452237033429736,0.520274236456757,0.5200502740236281,0.4921510714215618,0.49292454448407685,0.5608959723677147,0.5970905986293582,0.6357899520280874,0.6726986937984645,0.7034287708513629,0.7285371639191709,0.7491174121794586,0.7494377697921522,0.7639510296769556,0.7871387278452886,0.7875020344009132,0.7873908257149553,0.7718476569393982,0.7739302849575473,0.8127080895597292,0.8816303142495476,0.8979284125358804,0.8375494656209446,0.7659142023447885,0.7141732486650083,0.6402704071410179,0.5732597762881246,0.5151200483378862,0.42273004254733326,0.3404571371854477,0.2351158615020683,0.12508338938509045,0.10549284703392914,0.21223788318503267,0.31420650439274933,0.39859119333209403,0.5012375115588892,0.5833792207166395,0.6558921106927347,0.7327931176835403,0.8244337548228522,0.9163571275416951,0.9757608364373747,0.9756859017641473,0.9175551293893145,0.8692382913200261,0.8989644217277206,0.9018271773476227,0.8952124494064435,0.8356563934001349,0.8255676334420734,0.81101971639829,0.7602092040076656,0.7366307783436676,0.7195199140942012,0.7751003734101811,0.8427021723069936,0.8645204548215943,0.8931185164655906,0.8929952149567395,0.8654533595272449,0.8909609926439916,0.8838859675690918,0.8897854839459409,0.8851486563801023,0.8638204875211981,0.8631072696687845,0.844525287490228,0.8624677743096978,0.8385707265931615,0.8572422853591837,0.8389785408550283,0.8256506669015309,0.823103917816967,0.7832950136665202,0.7482140637279926,0.7074873243690964,0.6351946151483183,0.578112958783314,0.503575690732557,0.4095012744767743,0.33538872207839443,0.280710079672561,MI
0.5433551462966721,0.5799602972594475,0.5998977977085151,0.595847857724308,0.6063790964700861,0.6007125620575535,0.6364636160019246,0.6048885254261118,0.5473082146024333,0.4969537568437654,0.42610758293949536,0.36341365175005835,0.2961235789928902,0.2131611154791604,0.15664609261612839,0.07921794439417118,0.027564198913393678,0.001033957960594467,0.0,0.026960906944080154,0.1104291792833898,0.18121279675136215,0.24689800906633552,0.3150793803825276,0.359244129700381,0.37269645394049755,0.42579012883791245,0.43842119287818493,0.49405480675733005,0.5761253403774034,0.620525779555289,0.6448988912934062,0.6680600941387396,0.6573357812355574,0.6233865291907317,0.6620543046779681,0.7059160540954283,0.662239214187236,0.620917355656029,0.6525074927329508,0.7235533252494988,0.8134688390036451,0.8183323335508494,0.7531181255229851,0.6848182004458159,0.6098843019669373,0.5465314280068267,0.5255015706241504,0.48586720489963886,0.4670273388725552,0.4664538728936862,0.45684883055579073,0.4369321810973408,0.4380499559690745,0.43043093082874817,0.39919853902225233,0.3858376003549515,0.35344467149912484,0.32136878553149595,0.2996748077327136,0.2974786200423032,0.33032617092399486,0.383871806587718,0.41222467515786354,0.4129841399119374,0.439878382802251,0.48018250568561127,0.45497041052837295,0.44564140884223447,0.4798041988762267,0.49154818897172037,0.46173837070211965,0.4229230960976227,0.3943337412750494,0.33174653384457864,0.2840975804662391,0.29556534312931637,0.3564112949695075,0.4340185535215979,0.49130759050171013,0.5715794911665877,0.6195190097330934,0.6606156255460278,0.7194694745631156,0.734074425803874,0.7354957969259348,0.7512341804247815,0.7132163573706234,0.6390541659922326,0.5946292668040525,0.6220639530724399,0.6916807667666807,0.7840016367162819,0.8777549384352548,0.9699531519967706,0.9838594866263795,0.9163558730230013,0.828696742550735,0.7802970088554448,0.7438117629115397,0.6782699464999129,0.6672300616958071,0.6498185392184488,0.6696546332332391,0.6570488325544042,0.6447945747973312,0.6446545162175279,0.6306547898806225,0.5926317240326697,0.5633133938482584,0.5384172948960448,0.5703140142486798,0.6105602543489108,0.6442621723760253,0.6799506792049121,0.7431107496456248,0.7685050061843657,0.7910900457706975,0.8041906320913239,0.7831792115106784,0.7948457536774725,0.7945869792980669,0.7532769145006442,0.7039968676744368,0.640203751215219,0.6072294544078276,0.5551091493118059,0.5532654739214187,0.6214479606588426,0.6980051459740575,0.7348192621193506,0.7864008868549353,0.8128156871472467,0.8323449680712804,0.8352636137172884,0.866508620949832,0.8522424616576028,0.7831978920254659,0.7108254224395458,0.7031168339019342,0.7666176779770377,0.8600379717715776,0.9531855794741966,0.9999999999999996,0.9479883987793118,0.8715263163865052,0.7889761016507095,0.7538461516727515,0.7346768944185755,0.7118438349572558,0.6943805753560475,0.6537532551050176,0.6553054472941713,0.632685254967178,0.6345149493700064,0.613921967578769,0.5750111637456974,0.5498068794219209,0.5136902284973455,0.49051648444172224,0.4945899268266003,0.5133642365196116,0.5691477489566581,0.616788392211761,0.6475600378412332,0.677290699222048,0.6764190920689974,0.6881914674198488,0.6767061398260128,0.6956341496662195,0.6762830424043691,0.654685116946053,0.5970562443816054,0.5666285896012462,0.5019788663745639,0.48987822745340237,0.5139103035201757,0.5647454167222743,0.6403579601106029,0.6776810116935095,0.7147509454065726,0.7251809785729972,0.7045924647992448,0.6552481812204705,0.665567206246036,0.7362073336920631,0.7945378964960415,0.7856477688183099,0.8336889099591009,0.9204998564610363,0.9378499005136312,0.8649801465529987,0.8114244093821168,0.7541364206412404,0.6742573669749805,0.6226003684337855,0.5999747184543227,0.5624856879582425,0.5393613453986723,0.5210208800867036,0.5163744153361205,0.5135905180326632,0.4910152285331768,0.4733806707300343,0.43158611051539664,0.39977282433066064,0.371729634040999,0.3512198796575938,0.3840954283704794,0.41360290899638974,0.47061117413791953,0.5140329153766889,0.5697818648776178,0.5939956059947549,0.5979528092431177,0.598404238553162,0.5928663929458735,0.5704948521373683,0.5735512790706081,0.5430193441507307,0.5061247983131554,0.4450910785274922,0.4167052932639206,0.3790101701221187,0.41476171864844735,0.4893299888328939,0.53999407037711,0.5872665445759551,0.6293965105413082,0.654640204229278,0.656535641669922,0.6542843910657967,0.669292404656058,0.6644240761299964,0.6039877942805325,0.5769278178097941,0.6311859112723854,0.7170570096459046,0.8107883353205154,0.9039025150233866,0.9537858588731756,0.8917266069328496,0.8133570367038296,0.7310021878441835,0.6604086021824291,0.6194691022439227,0.5788530710604589,0.5456335465863398,0.5417150720781323,0.5464466921471378,0.5387101545577386,0.5463642142915401,0.5366923710026854,0.5193225078403798,0.5229473334210915,MI
0.624074190760727,0.636920916237353,0.603436476162774,0.567082744114082,0.5201252674829395,0.49566365266010814,0.4688434787331546,0.49125579511237705,0.5348666171246568,0.5841011617643139,0.648969734269349,0.6923621361938914,0.716915603991414,0.7611523057433085,0.7897155324712704,0.7274129511817669,0.6481165415216021,0.5741186037096697,0.4956586344596903,0.4565011379198549,0.3756446895867258,0.2819155246757794,0.18811285396364008,0.09444002594955059,0.01895787628144685,0.0011041936482767412,0.0,2.838512990788189e-05,0.012191688723732774,0.05167412365272206,0.027084407940078492,0.017929528260232974,0.07957105082927729,0.10805379793192227,0.16417129160168287,0.23886351286959773,0.33134014506505194,0.40661264228388694,0.4936538836324016,0.5734562531421497,0.6491933648772013,0.6895089866644724,0.7023689764222651,0.7399103641157816,0.720465565036966,0.7052166637264636,0.703927760280012,0.6743764435721054,0.6546155372627713,0.6046741113762724,0.5958377356292348,0.571544097940381,0.5098371607222574,0.48365478229711156,0.4755359789266671,0.4586289612029808,0.4005487255016713,0.3759139240457108,0.34112051405545873,0.29180629311945694,0.2857445691693661,0.3089590903825137,0.3553829192576896,0.4086606289544519,0.4673444138907379,0.5090690894505863,0.5615106368415419,0.63058282744896,0.6718621790186803,0.6861953626619832,0.7211328762853024,0.7275079456503719,0.7337711847515842,0.7240678377185419,0.7087858284184256,0.7178944154733666,0.6902274597030087,0.696512080175204,0.7118147174461646,0.7083974251912832,0.6939334369080457,0.6825618355411174,0.7171394578656325,0.7065303460330932,0.7194311224009913,0.7104684840602018,0.6994525649675105,0.6848309745625083,0.6894708381345942,0.6870169030030824,0.6791613618702352,0.6888230851410442,0.6459620662449681,0.602127474245227,0.6115319940854032,0.6024042063900965,0.6211674501129312,0.6450658325256877,0.7121070401488168,0.7695307393017852,0.8268205422486044,0.8643371477123964,0.8879764911927279,0.8773688500768535,0.7895543089973107,0.7129851704832322,0.6274927536914654,0.5460348106520097,0.46560576288018973,0.371957958317116,0.27844113426822714,0.20022148087169045,0.11679566787790918,0.04589953097455801,0.04073219394376926,0.10247197562551058,0.18591525923601804,0.26003877197675074,0.33929108265429386,0.41972439044135124,0.4932083913518128,0.582559667552577,0.6611678735700637,0.6566902681183753,0.6283250912083997,0.6470111886393357,0.6703468938091155,0.7197132572788312,0.689703023933276,0.6882259729239579,0.7193330048537621,0.6790073507192278,0.6396406779961379,0.6027236627501753,0.603559756938735,0.575829719604187,0.5579489576873775,0.5304715485602487,0.4671454436156588,0.43466499469316533,0.37005487096399303,0.34597950917472975,0.3521726863929393,0.32199730677635463,0.29534753680403636,0.3277047083924969,0.4137935935923145,0.4936369062526995,0.5563564422189269,0.6182212368445836,0.6618782011886615,0.7060793027997128,0.732694906026031,0.7525429921461657,0.7743075020226642,0.7929142014718864,0.7798020598396387,0.7929177211504759,0.7801798823918289,0.7929177211504759,0.7813428554494872,0.8186432585316692,0.8128714617796233,0.8171909165348281,0.8038352938727162,0.8286270140110186,0.8748419542607864,0.8565859278379908,0.8379180240903383,0.8521679981048531,0.895172967793584,0.8971598161312229,0.8742033068381718,0.858699699195181,0.8901129697697869,0.8869197745158339,0.8408349918521822,0.7813519198328289,0.7338772641435134,0.749378554852711,0.7418530837864794,0.733032059675502,0.7639122743099143,0.8276902244934932,0.9047500626766154,0.9322874586648777,0.944365267321126,1.0000000000000004,0.9675155736995094,0.8934673606319996,0.8082294462108748,0.7332869584442476,0.6499833756292666,0.5765814374687106,0.484564521564502,0.4066195944258193,0.32346347942757614,0.2596536042986135,0.20245511759275736,0.15933303605561733,0.1894579131227312,0.2613203512504403,0.35164852107871036,0.42431514369761336,0.500057099963946,0.5838970542914637,0.6765586464864861,0.7495569247252267,0.8079105452331583,0.8646638014929198,0.9204236828408177,0.9094183579959068,0.9266576392547878,0.9051708735983763,0.8615285182503141,0.8532612819184862,0.8135038455557004,0.7803241483981531,0.7926704321742712,0.7631689059211051,0.7314140351357916,0.6788179896612552,0.6957235516168248,0.7375645061671166,0.6792971803473136,0.6152532438305314,0.58115827012776,0.5224723947046495,0.4559258704748559,0.3953484792617439,0.3432545466117247,0.2873424184093194,0.2302096959355069,0.21653138411303408,0.2461461910854692,0.2805666393032382,0.3206611503861696,0.37551614767277774,0.36557350022640867,0.38270718180702135,0.37322546210136265,0.3484547668261371,0.3209559190454123,0.35318239018791164,0.34604708383240323,0.3137355709552465,0.34138448153124346,0.34550106651199997,0.3652370150576769,0.3994703545928533,0.43973318285262364,0.45618500544130436,0.4577728520750157,0.48080690170012774,0.447429148590452,MI
0.6395157116699153,0.6636936491494678,0.6607671356914695,0.6331938884273365,0.6615386817608568,0.6641159042818545,0.6641159042818545,0.6641159042818545,0.6580179939994313,0.6300677682539337,0.6569880826910506,0.6641121574316173,0.6660713376140528,0.695681752848686,0.7014363593616482,0.7014363593616482,0.7015897327743872,0.7190465836279936,0.7416947657261828,0.7667995309968028,0.7405206834898843,0.7395248214085033,0.7587769031598528,0.7401798692469912,0.7576217084781209,0.7511719763114675,0.7413415280747646,0.7718675299708453,0.7760772695212363,0.7760772695212363,0.7753282552640952,0.7473852141631134,0.7554573975648413,0.7759817735136041,0.7702368370659078,0.7406803203930146,0.7386049806536814,0.7163657864319992,0.6663816686244006,0.6348831957079852,0.6389061998410561,0.6294535654440923,0.6825213265727674,0.7500814262709081,0.8072783841028661,0.8474420737563149,0.8507216800277559,0.8552556029750074,0.8861461956540841,0.8826273320171163,0.8528013225355293,0.8492527010570319,0.81094766327233,0.7270800400624129,0.6513017438154796,0.5612384306238871,0.48971479286322417,0.39432327732407213,0.31762626128788707,0.22743111226219792,0.13118664531753055,0.06304014074007469,0.030450596261334617,0.058603413227466206,0.13265697870692783,0.23405254250940466,0.33591543166837123,0.4377783208273396,0.5396412099863062,0.64144151148568,0.7276235784304399,0.7409816348119005,0.7913331886965151,0.8437998326865781,0.8764396726245671,0.8600340831676156,0.8819465912568552,0.8868328031930046,0.8564579066817046,0.8734082038895021,0.9186341700097751,0.9253573150166154,0.927474160075743,0.9574723884482017,0.9781134772676578,0.9781134772676578,0.9646894438202862,0.9937303593621021,0.9756164578890569,0.9560481870669362,0.9222386267811409,0.8876184128217419,0.8449853646265533,0.7771953479026505,0.721061373872268,0.6390849312591689,0.5707080867380654,0.521332547846785,0.4834800395019192,0.4168084605964708,0.3698140978270956,0.318940195663842,0.25211960728387606,0.21657562729831348,0.21647480304049083,0.23844301621714514,0.30031384295732266,0.3409342091946117,0.39083452626928405,0.4551274233319793,0.5078338949374563,0.555444855468811,0.6222746083535684,0.6458305528942985,0.6932456936209066,0.7014278796479543,0.7014363593616482,0.7014363593616482,0.7014441981667492,0.7114098949783667,0.7381297982794637,0.7285507784035916,0.7021146974687964,0.703296010551969,0.7338700515373011,0.7667981505782944,0.7375385169472066,0.7032205229246165,0.7184959181767869,0.738651709514885,0.7197756276601979,0.7030151472117954,0.7315431669082733,0.7387526731859175,0.7387568144414427,0.7387568144414427,0.7387568144414427,0.7387568144414427,0.7387568144414427,0.7387483347277479,0.7305990815422572,0.7026989991085113,0.7217865997055597,0.7387290088686322,0.7378613219559629,0.7083000941121949,0.6871901700165326,0.629958291836255,0.5833233075915123,0.5368801749119809,0.5210181622991872,0.5650502265949573,0.6163894507393772,0.6672090847929919,0.7171437461398664,0.7414355961062675,0.7725541375097666,0.7760772695212363,0.7759367032895002,0.7549557055694587,0.7612427204477745,0.7728639168297384,0.7316590333713124,0.649713688535523,0.5770662026886288,0.4885235937785186,0.4118896794754594,0.31637596777632293,0.24401569672850787,0.1442074874842758,0.06393390715875213,0.000992313894310648,0.0,0.07646025244514298,0.17828483499050574,0.2717868696159611,0.345456997029725,0.4465596043755271,0.5484224935344919,0.6487124948859657,0.7012792701659762,0.7289825667757395,0.763797081122406,0.815480071591173,0.8794210982738635,0.8994882387780478,0.924880496927897,0.9253590898404118,0.9253590898404118,0.9253590898404118,0.9268713359947416,0.9606314425303069,0.9983620806809004,1.0,1.0,0.9982792127781961,0.9674362586562397,0.9451255601219897,0.8859420804741838,0.8498304473658127,0.7991267702417106,0.7560581480047137,0.689884510078894,0.6071738148099284,0.5529080247028642,0.5019276719597654,0.4422743485583167,0.3748450177111291,0.32450680947782473,0.27665115888971314,0.21049353673569549,0.17985374074184346,0.18059033832665428,0.21513035740288,0.2653681322833581,0.30295263622441393,0.36722537909476394,0.42238778324975357,0.4879198876234421,0.5466885512771213,0.588881769323879,0.6040010416247563,0.6378973062194699,0.663630431572142,0.6697652596420092,0.700283420894845,0.6820895412994279,0.6642608607842178,0.6532331931319044,0.6397905735500284,0.6639063183819962,0.6831864351423524,0.7014057929518209,0.7014363593616482,0.7014363593616482,0.7014363593616482,0.7017315689012813,0.7263569907177443,0.7382602760883188,0.7129534318041104,0.7141260846226594,0.7201433970817837,0.7206484814032743,0.713727529518394,0.7014877601675353,0.7032640831713426,0.7326589041590195,0.73755098287383,0.7069367275733933,0.6850661996016294,0.637975487094268,0.5949742215586298,0.5224779900047425,0.5162198038103671,0.5446919642231496,MI
0.1312039978302102,0.164264839339463,0.21305153557292544,0.2725480373202329,0.3312395275434026,0.37889070228369404,0.4369201644869114,0.49413136692277115,0.5422041240481166,0.6005607567674982,0.648898440553138,0.7034317260342147,0.7391177894600722,0.7700595170792459,0.8058092266352439,0.8502699632982025,0.8901117572009238,0.9077825985399741,0.9081930995494623,0.8998079745586702,0.8913294482474656,0.8709695549037679,0.8499382348973259,0.828517573935394,0.7959277137541312,0.7754117843225177,0.7230218143414646,0.6631604500407597,0.6032745396918671,0.5447473806878369,0.5145490959339374,0.5108722586261658,0.5108391628520681,0.5140995794085588,0.5392639850369823,0.5284215598775113,0.5222095511642024,0.5656516789124262,0.6082442651936142,0.6421431699403,0.6337835608959637,0.6392273597341807,0.6622493544695742,0.6616788187775442,0.7099483897011902,0.7471052341032189,0.7275091574113053,0.696373117992112,0.6689196368251733,0.664241718823213,0.6768267885046484,0.7043550350601508,0.7401240632806934,0.7766111015001518,0.8136636617662676,0.8535170517088697,0.8934771200286238,0.9327977506015923,0.9645695228457725,0.9885912355535247,0.9996531268744384,0.9933645261386768,0.9848614886053695,0.9847136349457899,0.9846882614929249,0.9796858566254656,0.9800983122722431,0.9846986288673949,0.9847136349457899,0.9847136349457899,0.9847136349457899,0.9847345480843339,0.9894650056133272,0.9996751395840793,0.9989729466526875,0.9870670104201289,0.9847162613966831,0.9846938955522555,0.9797187236560538,0.9759286863229621,0.9905070239367681,0.9997462352822621,0.9918835071645691,0.9685138350892073,0.9303472015548637,0.8949557733651665,0.868203512258594,0.8668164978532542,0.892024407972638,0.9150337031800304,0.9373339338298234,0.9647330813716279,0.9832783996773706,0.9974819541067337,0.9999965842801086,1.0,0.9999389098719189,0.9886741822260308,0.9462024308421633,0.8913535959321579,0.8314903052259437,0.7716037221312151,0.7117171807808829,0.6523343029482871,0.6039528999330779,0.5473350778106698,0.4874571717117817,0.42757058861705266,0.3676901273073552,0.3111516313085432,0.2625480472149435,0.20331050023359598,0.14342420517520793,0.08444725884691917,0.05471510669866797,0.07998550649679292,0.13042605994146528,0.18936993011886538,0.23747271658720992,0.2946731119233237,0.3544204863175806,0.40607413462718744,0.4590849041356466,0.5148736944295784,0.563516951809087,0.6069189585926544,0.6462165689420765,0.6972095786333474,0.747149041271284,0.799255275708799,0.8465151146567003,0.8915021175303504,0.9250915255609264,0.9431680159016218,0.947173754882126,0.9327420137593885,0.9208425976947279,0.8994151290537733,0.881468837958681,0.853906625068686,0.8280514191419086,0.7847820904783682,0.747599023479049,0.7173376163747487,0.688752054264897,0.670898732883626,0.6506006755510256,0.6501480238799155,0.6711877114090865,0.701352163687456,0.737316721581946,0.7731035647210125,0.8163256375063366,0.8533391308029397,0.8888344750473971,0.9189351798036576,0.9472706649815921,0.9708295045037323,0.988847855397629,0.9996364066599348,0.997239933638042,0.9855087106202078,0.9840344917528836,0.9722710356587778,0.9722482264133396,0.9840087221599427,0.9803770070119668,0.962133779092881,0.9542404315914674,0.9541409048373701,0.9541409048373701,0.9541406376732282,0.9532132096651766,0.9414168130176424,0.9457647891754668,0.9540541005614669,0.9541402202292564,0.9523845987065598,0.9385490233550242,0.9235422296433833,0.909934755746082,0.9033667432157402,0.8698554698925065,0.8301407757953774,0.7976468763038675,0.7862374504972367,0.7945359408300483,0.8318757446075846,0.8535398160836523,0.8751502674779856,0.9018585075402052,0.9136969932137173,0.923328255609793,0.9235681747289499,0.9236882253949275,0.9332404815620357,0.9423469071420887,0.8924273973566903,0.8325919158801405,0.777903616589839,0.7361159976071776,0.6984673648282156,0.6599127060426082,0.609486643116679,0.5496816694618598,0.4898013209048777,0.4332976617132904,0.38466771984994175,0.32542158316562375,0.26553511904242577,0.20564853594769783,0.14588738062477602,0.09477266114560479,0.04171730676094443,0.0,0.003960100989656157,0.05050119501056782,0.11015371425610154,0.17003857128126376,0.22815223342849,0.2759681442297195,0.3344132378109581,0.393011749562572,0.44068926537485353,0.49856819945403785,0.5485589779417146,0.6006884240714521,0.6485500872822816,0.6986386692647928,0.7517521239709981,0.7983355168393258,0.8365285136368898,0.8601458076203943,0.8759559013980445,0.8681559973244801,0.8617952676465355,0.8524430070525879,0.8491689727825764,0.8334556590920892,0.809525164772297,0.7856773595154087,0.75609251960541,0.7261550577001099,0.699455320063902,0.6811244739430831,0.6659673196451563,0.6813177809437754,0.70817395278433,0.73810872715242,0.7680521845127242,0.798682612298967,0.8368040233613523,0.8766082228813921,0.9101740414987685,0.9315150471108615,MI
0.05955994518542884,0.02493768242438954,0.0,0.009671393015040053,0.04797517796725226,0.08307288867883,0.12526148828369432,0.16868278758688138,0.2121049504292808,0.25552711327168,0.2989122217691761,0.3377228737453407,0.3753807193078279,0.4187203603523567,0.46202090453354716,0.4995045103254797,0.5385227604918531,0.579878924039179,0.6152902712956959,0.6572311977249526,0.6923629467664577,0.7346097369388126,0.7764328117446401,0.811704864552072,0.8524019749037101,0.8869816308962325,0.9188113844284832,0.9416218979409733,0.9527316828051572,0.949539766497178,0.9481844804256473,0.9480967428607204,0.9417700007368052,0.9249431971888092,0.9033873554583002,0.8794456393388052,0.8499584363471638,0.8257815314292777,0.7974540744346165,0.7715928614153759,0.7473427016417821,0.731291088605219,0.7194216166278237,0.7257402277155366,0.7413173968610821,0.7653750992126488,0.7847221825514207,0.8060007800664314,0.8218291350033798,0.8344668391412292,0.8489335618680302,0.8618399487849538,0.8676335243114547,0.8665886794629033,0.8642251655275704,0.8642194035809175,0.8643013901161188,0.8696746033637911,0.8747874959570742,0.8808758129029809,0.8851782888663194,0.8852102121587598,0.885262474599455,0.8902116799950325,0.8956286674372783,0.8929574512754143,0.877043831859082,0.865513112982543,0.8710222476093755,0.8801351861829111,0.8992736857904663,0.911331310740875,0.9083490277495169,0.8706280321675458,0.8301518896543431,0.7940041336158193,0.7508690372605679,0.7080533714705687,0.6727294911359457,0.6310948090418965,0.5876765701507934,0.5454272867215605,0.5102955376800554,0.4679041648552885,0.4244826823797331,0.38176815629701377,0.3464785851218758,0.3047115518214404,0.26330781603319087,0.2355091110427988,0.19563617330976146,0.1628991759684747,0.13589031374661886,0.09663373619499249,0.0560201481762993,0.04082259876381078,0.0667642967325226,0.10941478932724258,0.1528310230863673,0.19373155711434997,0.22954335788320146,0.2721502780278878,0.30788632415258854,0.34896222205277716,0.3923746010426482,0.43365796244029264,0.4691498011530192,0.5121362862527093,0.552509130999283,0.5887709665858897,0.6313271109377095,0.6667337891313522,0.7082674489187165,0.7493433750733017,0.7850052408405205,0.8280240471466035,0.8681770213592576,0.9044816340518819,0.940748009290901,0.9711877813991617,0.9966972147849881,1.0,0.9919001988201447,0.9892366232940074,0.9810161513065693,0.9763593459647281,0.9567838037363486,0.9286814791232466,0.9038095091025701,0.878211300006318,0.8521262425383463,0.8240871234103851,0.8012564713214031,0.7762389383018694,0.7601589671462402,0.7595384708394896,0.7698122304047351,0.791132170394044,0.8124428195737888,0.8286987936114686,0.8431425170355203,0.8539223029239534,0.865135569840714,0.8792713128455066,0.8850940804516007,0.8806412262618882,0.8808296741961531,0.8851732290157764,0.8852105255399255,0.8860246022270651,0.8943699106831354,0.8957046136279504,0.895705616447681,0.895705616447681,0.8957346812440948,0.8997954037959531,0.9060766335688973,0.900101270529983,0.8753357961352698,0.8661123875317654,0.8737900671294808,0.8802629771380156,0.90155434620371,0.9130320384051219,0.9106531746314596,0.8764388181877895,0.8410407727922576,0.798209176818332,0.7575189426133287,0.7215084232127459,0.6784301336227857,0.6350264359581751,0.5955169247280278,0.558504438771756,0.5152369213622393,0.4718147585198401,0.4283925956774405,0.38497043283503996,0.34154826999264054,0.29812939948287454,0.25674511547827683,0.22122864797428143,0.17835486273936885,0.1349328600695655,0.09159776221508464,0.05606272985593952,0.049419302148428046,0.08172496908334814,0.12375232510499867,0.1589526924654746,0.20140425530926664,0.24465475792308167,0.28143168396152196,0.3211884590699493,0.363538552246662,0.3986771631200644,0.4409465073541309,0.4838081791211887,0.5192971992975953,0.5605323593606889,0.5970822995463482,0.6370684235644993,0.6776482207739992,0.713722695061778,0.7568370122483871,0.8002591750907863,0.8436810384800714,0.8863272484525261,0.9204555855448043,0.9529568730067618,0.9778982811896243,0.98919693165181,0.9873462974303294,0.979990022197451,0.9796546166720285,0.9754221974173166,0.9558178802338658,0.9302367522606348,0.9072547855145662,0.8823965753086959,0.8583347417626425,0.8322872176402606,0.8038249475062326,0.778300887804798,0.7623674838053981,0.7504577674609249,0.7564707524192366,0.7759439031926142,0.7932782956716989,0.8103722153070062,0.8275964665213186,0.8447466095434278,0.8565349752703729,0.867374526957943,0.874643519109724,0.8781511209675895,0.8751261203780546,0.8802351099904274,0.8753668976586032,0.8776863575630746,0.8801651622878727,0.8784601189761355,0.8869026847858327,0.8951598867879599,0.8957127099857488,0.8983222870137338,0.9058570513421201,0.9052501751256886,0.8969670356902081,0.8889994390954913,0.8686059651524064,0.8567593109416566,0.8664049564830781,0.8799528567031772,0.89520809428016,MI
0.2083064726782835,0.22732389126935093,0.27883676044461225,0.3396895732551135,0.42015257203467815,0.4813754312930141,0.5464690107035852,0.5726497050116426,0.5267299652981143,0.44329433242494876,0.371121140287785,0.284624858757049,0.21003065188187264,0.12933579642639081,0.07771077915379099,0.06590007803555098,0.09407798425507652,0.18361933718307322,0.25996556017086636,0.337478081659941,0.37664893758231077,0.3170096612093136,0.2740045950883414,0.326494632422655,0.32426219000238277,0.27337368789328664,0.23643400490293898,0.14524567617006756,0.07580584291298864,0.06534950839771936,0.0652745041292686,0.08043879366640416,0.10676108823910768,0.08145083982521983,0.1264516775407114,0.20887130772966422,0.2623720196998809,0.26923019645549884,0.3021672924170389,0.3423523263440358,0.4258391284564844,0.5069085510469655,0.5870230424114058,0.6675018550564307,0.7523199727216134,0.8244399638568716,0.8889590703501318,0.9488634372806404,0.9914855534751164,1.0,0.975921156937896,0.9707164228367224,0.9794376812507499,0.9667461321627053,0.9099985232973307,0.8361714053150386,0.7376659615627865,0.6367600728433707,0.5469047333272798,0.4408399284866098,0.3340306085692366,0.24119295081264402,0.22185833198673643,0.2871594688384831,0.3666970652669108,0.43520449916898807,0.498779235326114,0.5226172192829148,0.4737444245078577,0.40986424390576914,0.3521056749600322,0.30798889904040916,0.28628648760796915,0.28077353789579007,0.3036390215664455,0.358018641211304,0.4306442577502798,0.5148578392291872,0.5900941551806071,0.6657485897323547,0.7299059431912585,0.7829700377594921,0.8318690663511878,0.8940521460135278,0.944308482248025,0.9750228555381817,0.9962576877436122,0.9712157006796431,0.8936103754511118,0.8088549302362207,0.7211139934649036,0.618086118181389,0.5112056515842123,0.4082188076631863,0.31964316567957374,0.21434719060588447,0.10833690490521475,0.02416693851057783,0.0036203807879431338,0.0669921031528884,0.15292580707849535,0.24167210129517125,0.32286326175801117,0.4065709677422964,0.47744967539052885,0.5298652407982591,0.5205672577067557,0.46175289758028226,0.3973275092454007,0.3298840459658443,0.27784880893320896,0.23618720114425695,0.25602181080887476,0.3113902161501123,0.3846289596622272,0.4588837208120302,0.5274378640309334,0.6072514311874326,0.6818556191441756,0.7532246494595691,0.8298441980612887,0.8946694858621216,0.9214822208076168,0.9162953455349427,0.8859766461753162,0.8615202544712108,0.8301281664002067,0.8391494412783773,0.8598478503431304,0.8558193690658493,0.8899306252287733,0.9264913019248029,0.9173397101428487,0.8903861859035249,0.8239983860537876,0.7489572620557707,0.6804528466584605,0.5853515239062332,0.4785888444967199,0.37169688624705843,0.2665529179513295,0.21443072564112775,0.2613228076115215,0.3553011041015166,0.4206921503190775,0.4700499018253286,0.5370812925579389,0.5758818043236449,0.5502409809605546,0.49990007271116044,0.43815691247793165,0.3609059237853409,0.2853635616374164,0.20646082108240815,0.1603787115477493,0.11891462909991368,0.13235297360284282,0.19688072811315438,0.2767219162950503,0.36969553162503654,0.44494160280943396,0.526561614150836,0.6085805736261176,0.685365605042819,0.760240711253763,0.8347435751077432,0.8989034650552066,0.9444963160847379,0.9869129288887777,0.9917155134604609,0.9738702345008976,0.9747378296264264,0.9607203326593154,0.9600698720331797,0.9175239377869095,0.8299257241816944,0.7292569958106574,0.622746301602926,0.5304832009087925,0.43236463258211844,0.3257162584694919,0.23091987007003745,0.13546482495145362,0.037417847306790986,0.0,0.04927113726880217,0.12958626795717665,0.22019224101034895,0.30125203200689565,0.38662300827179363,0.4645161784853693,0.5036650837571441,0.4754857296406252,0.44620437290248294,0.39549768409259745,0.35269002083057055,0.3304921157073206,0.3530723966673808,0.40294728233492405,0.48409142905312974,0.5607327692797721,0.6344268692098818,0.7105676037779944,0.7747987358439339,0.8252186086660274,0.8677357844964435,0.8812700543337799,0.8999911839992132,0.9224010682196591,0.9306051529697852,0.9606321882057065,0.9464745456715953,0.8678136586526701,0.7916360396686448,0.6939923025935131,0.5871631371453137,0.4802717877404423,0.37553133066399047,0.2875652648925002,0.20615088001203796,0.19897851014091872,0.2658327614334808,0.33506158649427675,0.4050497567050444,0.48229067179523355,0.5360757375282552,0.5179854184920778,0.469294141044994,0.40593668705066843,0.3445806075934028,0.2745860768894537,0.234400927780281,0.24226086413986847,0.2978173729162834,0.36337497031051136,0.4463924567222426,0.5272338247745569,0.601889047676933,0.6793133406687817,0.7513394963865343,0.8254097048506921,0.8661694254779322,0.8793031947522048,0.9176853128630134,0.9527433680752564,0.9480056435897808,0.9008651926027529,0.8564115554576048,0.808822921370596,0.7866314548295845,0.8232046271224558,0.8687948605577889,0.9046997284259444,0.922265662498793,0.9229305387225217,MI
0.370547983516208,0.3513440744531853,0.3383413178900019,0.34887311536179344,0.34075688288837447,0.3079536347062872,0.27513790698125873,0.23122090734856116,0.1796546520339366,0.13440327152413412,0.094997913404959,0.081861561861726,0.0961104258896075,0.14715238812504738,0.1933730846012407,0.23634584769317568,0.249710118898117,0.249873161202828,0.2715894289119358,0.26521666331840765,0.2070503638538026,0.14310637593030728,0.0923233242022714,0.08142934608995112,0.08136348485103606,0.09402779842923925,0.09828386711924142,0.09533889527183348,0.14212323835808793,0.18073252778776006,0.1896174684185914,0.20337003769477469,0.21162938480717775,0.2656437374868008,0.30573140643547325,0.31497501469956846,0.3352622266648997,0.3267026126016528,0.27961790372801176,0.23808973966703073,0.18929692879126514,0.1504346346807477,0.11787427431465192,0.08176868814528793,0.08832336850385958,0.14418422340253567,0.2050495011669089,0.2602516029722266,0.3239083233491764,0.38801649026361207,0.4521175789525971,0.5136435767186633,0.5579697758545594,0.6072496162724674,0.6701755213152099,0.7185659687143733,0.7728720989875326,0.7907387787778675,0.7355691789815209,0.6814143217086313,0.6271428366864711,0.5806580052323251,0.5370005117177794,0.5159475580521924,0.501422678553187,0.5173659399447421,0.5205753088535017,0.5171221067113134,0.4962123421727924,0.48775191135061635,0.45664719648150265,0.4094639017383337,0.3689213350228815,0.33199535672951996,0.2996842030273623,0.26969372237615685,0.2716103747944716,0.2919919533044548,0.30344747382520176,0.32903008403139977,0.3510725845947722,0.34726315029582255,0.35399588677304616,0.35867113672700035,0.35606617106459937,0.3400190552242759,0.3378151704425172,0.34062303538607375,0.3304247608186428,0.296074199549756,0.25654941932307507,0.2184797268229568,0.213597202459471,0.2386550003702812,0.2595871813101913,0.29143706306560246,0.2821368292108948,0.2354150513117892,0.1924300267080119,0.14772331811718198,0.0902134437530071,0.03682467244609522,0.0,0.023506770594398096,0.07640641302996976,0.13604615079665017,0.20012342962959706,0.26409744646124755,0.3216292507417722,0.37997155211864597,0.44400035031101104,0.5081085172254471,0.5722142114812969,0.6346193978518826,0.6889903273292977,0.7519861961838286,0.8160936048212968,0.8802017717357333,0.9442937663549793,1.0000000000000002,0.9773418059071053,0.9140283979535198,0.849921219403911,0.7871227846973572,0.732763135048274,0.6717532065780591,0.6180797232110977,0.5690776170741108,0.5344434713337225,0.5102106115210499,0.49410648859818473,0.48980602036686727,0.5104816827596232,0.5110009546329473,0.507170232536579,0.48473217732738205,0.44389883445077305,0.4043230413817598,0.3598425695562504,0.3245344484927757,0.28799753294706765,0.2698430136620915,0.25034568438010063,0.2699514994881971,0.29432588343613997,0.31205477351234934,0.32671144502120764,0.3266480477195126,0.3344319231973716,0.3179059917952016,0.30026235726178685,0.29291852363480886,0.27769826562325495,0.30349540556231536,0.30307376509066053,0.28145358545654386,0.2610597471496532,0.23671627891685865,0.25331117560684935,0.2780457523712383,0.31301305637761057,0.33509537286482227,0.3033860938672095,0.2666533095843693,0.22724923062560487,0.16527525926679698,0.10974616428342832,0.07382164171294203,0.09775349530518596,0.15052382206296877,0.20990686547002135,0.27398076478447697,0.33797521423937193,0.39576722141128795,0.4538415192557783,0.5178576854658912,0.5819658523803273,0.6460738239371475,0.7095265321797697,0.7643137005529048,0.825849128686629,0.8891858069113765,0.9139182884988128,0.8679963584525134,0.8052546022404365,0.7472084856296728,0.6895064596392204,0.6320600506037202,0.5775127205364965,0.5407729905263359,0.5177976616043554,0.49878707568219904,0.5113573653331434,0.5133696925997253,0.5320153078460945,0.5373600053757392,0.5126981701648965,0.48688069265974065,0.45242384211421904,0.41439512983294935,0.36779151922983666,0.332519405324468,0.3045744161582917,0.29598640242293794,0.30826173935455015,0.32551939182105505,0.34633298857777706,0.3571331353398046,0.36893764195248413,0.3790275887487653,0.3635750368749784,0.34600357677095084,0.3349487163991107,0.32689988297839734,0.3223202156991214,0.32227891384659424,0.29418590191128735,0.2681556436024626,0.25016755493730414,0.25799672021208453,0.29097028153727456,0.32459653681599043,0.3497117897194111,0.317605835548211,0.274961699534938,0.22971603033943544,0.17425423241402105,0.12012206850534124,0.07343199917285448,0.06889073627328313,0.11428701469567781,0.17544653108399344,0.23026398391937253,0.29362708798924464,0.35773498285011107,0.4218431497645454,0.48587642120360486,0.544162813869167,0.6017279050021289,0.6657200704459607,0.7298282373603959,0.7939362639067686,0.8574916320619692,0.911203723826828,0.921086450420123,0.8647556264282248,0.8099725079904079,0.7465197997477879,0.6826543205052051,0.6270936210909996,0.5830146715348856,0.5432705966077604,0.526511894071368,0.5124950845319411,0.5228634588331522,MI
0.8419553379516751,0.8438432643892659,0.8438798691631557,0.8457805264578626,0.8476935762602373,0.8515405873544555,0.852181141697866,0.8537727327749332,0.8584663802446753,0.8612909284963852,0.8680717536338574,0.87479005362828,0.8809304871886516,0.8831670181417548,0.8783676987982685,0.8602303482101694,0.8527441590535674,0.8654084132650073,0.8891598521666015,0.9099325860412937,0.9268613911800068,0.9337615154399663,0.9085163719157552,0.8632329987304446,0.817598114083445,0.7736449703647703,0.7251498631390982,0.6773700175620607,0.6346659747688443,0.5870630127347154,0.5384162811812057,0.49109567846541347,0.4483249310187719,0.40033094317475215,0.3527007709315896,0.31002468240802195,0.2622449861561763,0.21375023174774843,0.16975091044257495,0.12412682467468283,0.0755445735746132,0.03011479302318998,0.0,0.017332696404098735,0.062415822163533585,0.1110426951376301,0.15969452863076983,0.20827730448882342,0.25312836317632537,0.2978553834950757,0.345209303830051,0.38794004920920055,0.43585670424171197,0.48285555769290334,0.5215258757450476,0.5587084183711244,0.6013384601529352,0.6474955830132498,0.6914538029945967,0.7353833929909488,0.77633446593133,0.8130310937129122,0.8309537167939636,0.8182939413426913,0.7915441140750266,0.76144131164781,0.7291853947250164,0.6917239215848052,0.6560363716497828,0.6206889221244296,0.5840781560586605,0.5485137302615084,0.5139477380629676,0.4820152656884341,0.4617142875813689,0.47181952744476896,0.5037118616530267,0.5401649134156636,0.5830293076207418,0.6269151423891273,0.6676055602658699,0.7092105753805527,0.748783410889297,0.7902476788583037,0.8293115515518483,0.8671918265463991,0.9036551691223564,0.9372472512031629,0.9630879576100391,0.9624554992291898,0.9448303743371997,0.9278286851890212,0.9192033370963453,0.9342301907870958,0.9554722510807545,0.9773053498291693,0.9941874386092919,1.0,0.9805145737760621,0.9363442757287983,0.8904167106883769,0.8467240507073723,0.798391658923344,0.7541235657812222,0.7088017397583193,0.6603976332021206,0.616658505849764,0.5707407963295972,0.5221136436113951,0.4734618101182553,0.42480997662511466,0.37624175642854407,0.33155999513549095,0.2866618678391145,0.23821215174226962,0.19422481287099702,0.15660080714903712,0.14110107269935568,0.168001013391741,0.21023061833507384,0.25691300337922707,0.30446671918296275,0.34717619674794187,0.39421199798029716,0.4314692236434885,0.4686916725819451,0.511211445655436,0.5581030985745841,0.6046330677467122,0.6478641567169374,0.6953559156456395,0.7380261318170225,0.7853698462530745,0.8285679083814042,0.8664020768435929,0.8902709952420171,0.8822656501736779,0.8547526581185017,0.8261947765211815,0.7941684628324592,0.7603729471476177,0.7256784805095493,0.6908989699735237,0.6526268959953312,0.6136353152202871,0.5781121079231102,0.5461878181481661,0.5255719299853925,0.5401033618758955,0.5742778720323254,0.6117196932879703,0.6492912161949183,0.6897055721808265,0.7297816641823058,0.7687405060197279,0.807490185946317,0.8444719089760637,0.8815947291580257,0.9124338110718897,0.9305198308024807,0.9299208696352363,0.9114301084978105,0.8943897796176996,0.8873512813601931,0.9022068919728818,0.9255349388136767,0.9477618680252695,0.9625203699879463,0.9707547658420497,0.9653221618035321,0.9277957864990365,0.8815239992579327,0.8377068682774931,0.7918927906698945,0.7433796593814772,0.699098973915981,0.6537901018821479,0.6051936301169272,0.558305338505265,0.5153142947246749,0.46714583224137907,0.4218435396354545,0.3775487463255631,0.32904717967704156,0.28323768402367655,0.24047837122201132,0.203286386504281,0.15817553995818234,0.11436561444530802,0.08066274544750252,0.09838623526296197,0.14366134754487747,0.18650116759207735,0.2343168954563184,0.27309361217053096,0.3085288134147113,0.34655188655936053,0.3839767332061389,0.43064348216253556,0.4773505644305013,0.5204648863138206,0.5683719568474597,0.6115072254294551,0.6576919383824611,0.7006232915133053,0.7455708667256624,0.7873641891556329,0.8253429977330757,0.8522574506785023,0.8479464599971049,0.8212499200280237,0.7924101769647522,0.7567198764673788,0.720537217118679,0.6884604665042251,0.6539581544553534,0.6184444259271769,0.5839614760392664,0.5517847705404408,0.5330362511082225,0.5494175551061287,0.5812290129919562,0.6179276121652315,0.656997282921004,0.697870729205091,0.7418536734352887,0.7824144384635321,0.8197164969799118,0.8572542003341743,0.8915584455235099,0.9205943278174069,0.9310100927217799,0.9133218305229276,0.8953673377513816,0.884184979044035,0.8935877783950756,0.9143260478266759,0.9364035510298399,0.9506140396584375,0.9486250985189024,0.9528516461006702,0.9553517230780599,0.9311190974182268,0.8975273672445963,0.8562857876499315,0.8088165784459462,0.7661471655688616,0.7183294429887437,0.6711311331497547,0.6282986359731442,0.5802512929710866,0.5335043266761845,0.49043199727177844,0.44216579529849187,0.3975492825486955,MI
0.3640863533896386,0.31487757546118433,0.2599594416024238,0.20963576943768825,0.18143718209526427,0.21153096558038897,0.2623982554159696,0.30844070781660626,0.3553467403522945,0.4169586742141165,0.4738373075509459,0.5337407483055014,0.5891489826936778,0.6442696535743917,0.6981385599770669,0.7566637151249167,0.8122787211438371,0.875436596962563,0.9398690473551796,1.0,0.9944308373917523,0.9375220914645008,0.8808409352357822,0.827510030106636,0.78304925650222,0.7525043316485491,0.7426707583908221,0.7500883377632914,0.7578844981140387,0.7445364433177062,0.7142046355198346,0.6752668228733201,0.6322983140772844,0.5831458051161025,0.5312527572137171,0.4849988041960258,0.4415295833992585,0.4023431434792082,0.36182634953723003,0.30101676573722047,0.2544144092064966,0.2698365360950372,0.3291499299592655,0.3922488273605398,0.4200672061809121,0.3947658727476244,0.36268637177946683,0.35108721886424155,0.3695013356462644,0.4031382799773089,0.44159138794328223,0.4790948697938322,0.5182550920954216,0.5310139983765045,0.5106892859421481,0.4852868190908459,0.44549305456828825,0.39417290630949275,0.34256515343104454,0.2892454168515899,0.23907588331173857,0.1836993899527264,0.12839839699081956,0.07607790004043813,0.04574268005931681,0.07396898074678449,0.1244737101073834,0.17827092992498095,0.237026945398088,0.29341302059013574,0.35476427289679946,0.41408201393251165,0.47208600647402754,0.5280107066189428,0.5796451002009995,0.6365200991826634,0.6956297943454157,0.7571207106722873,0.81348126176304,0.8773980207857148,0.9328024850472301,0.9103774045950725,0.8553542054621275,0.7983205944881226,0.7478309579026936,0.7095464286760342,0.6880684475053567,0.6748339190128747,0.6895017189124113,0.7021561754153463,0.6963553182669455,0.667420913090391,0.6268751506811951,0.5824618004802766,0.5363942302024074,0.4933835089589875,0.4583905469412335,0.4164796008591445,0.3602313214144446,0.3525910214160204,0.39937472844074007,0.45400459589858144,0.4602807793344972,0.42321331050164224,0.39415980736078926,0.38394899719630704,0.4043101474909514,0.43866838423417964,0.47068188019589696,0.49456638617841087,0.48602805794184434,0.4590375350789666,0.4277144408321871,0.3872797183014265,0.3358967021932442,0.2825565406986288,0.22889657699471466,0.17668716169404974,0.12508083324887087,0.07177205780899065,0.023704505673989962,0.0,0.029898931623945968,0.07959461106736021,0.13815793417552236,0.19379545476669824,0.2553023150701519,0.310775725801675,0.36672550416004257,0.41907098164040635,0.47645282414599777,0.5335925338813405,0.5950937007559103,0.6513052659921588,0.7135207289579379,0.7692330388086104,0.8325077861781818,0.87917466893835,0.8461637246059199,0.8094781260483201,0.8035650615527232,0.8190382369027494,0.8339554521896728,0.851124292641372,0.8585321583290884,0.8350503613933005,0.7976443990847844,0.7563198723764968,0.7147592590705298,0.6645782171196823,0.6238645091603723,0.5873509854768075,0.5346648640326515,0.48421420140367655,0.4995020901828304,0.5539600059389391,0.607327779983833,0.6043343916041246,0.5693198861773503,0.5460061294901912,0.5367914125096729,0.5545624109059393,0.5908873155831273,0.6181780279932372,0.6446286803097463,0.6363269827286,0.612874469374747,0.5846160439297337,0.535699172870229,0.4855321331145088,0.4330560235345331,0.3810931222788043,0.33127911545144584,0.27598219257396983,0.224374533500177,0.18501257685978034,0.20039359011942226,0.247460716733938,0.2955592110982339,0.3374138361026897,0.3955558021446419,0.4513651638570668,0.5126057800038726,0.567707021686042,0.6201197103142349,0.6742551105250849,0.7315683870687741,0.7913330623341461,0.8537925981703078,0.9095767763403364,0.9697540670152254,0.9682484824129061,0.911883291631145,0.8550091427746049,0.8052211764005124,0.7790735488098806,0.7876896649173442,0.8012157363972126,0.8229421353632032,0.8376430492031819,0.8278429542894528,0.7943368797324903,0.7509636756977187,0.7094374286606713,0.6616480363391475,0.6139607597078431,0.571743707851079,0.5330537233261914,0.4722885991919261,0.41945260569025566,0.4232135514541704,0.47035261666551786,0.5187614296594774,0.5490703390282903,0.5273024902681132,0.4978811599330222,0.47785255506437596,0.4880953138227808,0.5208435625592007,0.550102102479544,0.5836666287903314,0.5825761533546778,0.5586852173833161,0.5273512125849256,0.4891279004822351,0.4387790747092397,0.38856312082475775,0.33621415592985215,0.2875836001356371,0.23486657047982273,0.181412031046992,0.1409009451374421,0.1507036040037546,0.19704848564995414,0.24932814786675261,0.30483186348365865,0.3659067648435994,0.4221510287549568,0.4843488864473251,0.5394330461296286,0.5911197048640073,0.645023905764686,0.7017711410960441,0.7622515882552521,0.8206042535270619,0.87965324437249,0.9326243884154413,0.9177400380278926,0.8551163118386125,0.7944361590188964,0.744061599623095,0.708507284145691,0.6963518382902514,0.7140825384865082,0.7360469481761407,MI
0.39320925022301134,0.394344214441972,0.42416518496880595,0.47345716365803314,0.48031272980492146,0.4473856229214257,0.42364078487366585,0.40548756548862963,0.34753843363902925,0.30112929121370025,0.2697328056276338,0.2615026110694125,0.26320207335216095,0.29290883808853563,0.3584464080600762,0.39374176704362096,0.418402039256228,0.44983696012338026,0.4433312547555883,0.4868448702623862,0.5449943714443588,0.5845084577597643,0.6307443934852452,0.6790328931936442,0.7379880171690947,0.7841604580232313,0.8200053706249624,0.8545272199164917,0.8772457766452115,0.8954546822529355,0.8984800310206995,0.8972093896957478,0.8789857491796087,0.8740194205937852,0.8563209487195151,0.8545454699189383,0.8545447480922101,0.8545822635601317,0.8633873017297082,0.8763623402838148,0.8679819180688875,0.854796285712689,0.8545447480922101,0.8545447480922101,0.8545463886075009,0.8580395100031839,0.8750264481589531,0.860450388689197,0.8548641072473786,0.8688711986506639,0.8764956428263191,0.8765131113831828,0.8765243426133993,0.8815003220045461,0.8977968934360727,0.898481474674155,0.898481474674155,0.898481474674155,0.8984903164282168,0.903124274054659,0.9196947562782065,0.9204498379651276,0.9203326983043407,0.9060284431836334,0.8771059122502458,0.8566276003967777,0.8561997819672147,0.8865949499615464,0.9126162927869714,0.9204296755946442,0.921049693521721,0.9376642783225124,0.9539781261377183,0.9785050612191393,1.0,0.9552934935489024,0.9024059967836129,0.8335250896180848,0.7669337970453673,0.7151446920717226,0.6474384566513098,0.5780879724030705,0.5087368647590194,0.4411715549090509,0.38987826544696746,0.32265092080866653,0.2533007974737904,0.1849632731624049,0.13318698731264034,0.0674055707062835,0.015088003826172258,0.004302681762182292,0.05170982331097873,0.10523486143408611,0.1740423887377327,0.2429327155610559,0.2960190949902568,0.36013207306294825,0.42947845602296164,0.49880319908781434,0.561012189497593,0.6158014940595762,0.6848387499759188,0.7439409430117827,0.8015282316433638,0.8563127755726572,0.8759108921309662,0.8629502845012329,0.835265318834546,0.8304373951465323,0.8125562643805848,0.8069761886739197,0.7790430548946032,0.7548521316304506,0.7389372087216244,0.7071451450797159,0.6724969074131089,0.6378059632075641,0.5998961153368514,0.558538571503874,0.5331596779923689,0.4993285044520763,0.4739309435441146,0.45074555122247295,0.43903450907565045,0.4566897271148682,0.47641097468306093,0.5107592284528932,0.5522687621486253,0.5920829281044053,0.6373258504277097,0.6834343790053827,0.7298864581160203,0.7835142284764327,0.8292745853525356,0.8650231454525894,0.8995125213619231,0.9257215000163348,0.9309498472312123,0.9357580818936491,0.9424117704361614,0.9423845698175195,0.9338870079418049,0.9207013755856064,0.9203515549996775,0.9083615223237262,0.8985321388223961,0.898481474674155,0.898481474674155,0.898481474674155,0.898481474674155,0.898481474674155,0.8985205831261798,0.9076199302073524,0.9179317908239293,0.9003012436374123,0.8984822293111887,0.898481474674155,0.898481474674155,0.898481474674155,0.898481474674155,0.8984966883646295,0.903968665387409,0.9091294454464656,0.9008629186972672,0.9189299675911475,0.9204498379651276,0.9204498379651276,0.9204498379651276,0.9204498379651276,0.9204498379651276,0.9204498379651276,0.9202352597193055,0.905728434982378,0.8897713532396572,0.8669143436996838,0.8617666082475397,0.893478848147438,0.9281158365611377,0.9570583627452809,0.9455738940443266,0.9606515182171735,0.9643851208936169,0.9665931988849712,0.9790066949069942,0.942144997570753,0.8753057583716646,0.8060191609076317,0.7467663309227381,0.6890625749097361,0.6198709378780567,0.5505200927164537,0.48339773275087383,0.43187907260171565,0.36443405033518284,0.2950837629487779,0.22573265530472852,0.15638154766067602,0.08733901886090045,0.0333692742571432,0.0,0.017499168591547765,0.06531618562102492,0.1322599482276381,0.20096710701424936,0.25379291714843477,0.3183484513818442,0.3876945718594107,0.4550089875490051,0.5063924252859184,0.5737779803715055,0.6394071884283234,0.6914573850701058,0.7596130519522082,0.8135249061145906,0.8320788534351045,0.8194441443278255,0.8038921173801055,0.7863636458284469,0.7592798801841938,0.7448341716512368,0.7330984114972021,0.710006933315185,0.6854161746539629,0.6515448709135261,0.6258444276834414,0.5859702860786906,0.5507351084427086,0.5233545272049049,0.48409209343096826,0.4431588824295223,0.41443811026654176,0.3913854956914382,0.3728484537350041,0.3860941765457895,0.4114550512881854,0.4458945657310216,0.48060922750987656,0.5191949974631402,0.565436123954024,0.6138101673502261,0.6727129687785047,0.7192267824827354,0.7645562063700324,0.8038808562843216,0.8457947499880953,0.880205578853483,0.8981247143596458,0.8989422554948816,0.9132439009689164,0.9005143606331374,0.8984137423470822,0.8880235067660105,0.8770245563521506,0.8918919668415008,MI
0.5089529507067583,0.4885487837394284,0.47366443917083795,0.48113966715662376,0.5008215872606807,0.5246938280335139,0.5512563464284342,0.5792101460100372,0.6094977822878788,0.6399942465966855,0.6689570905772745,0.6970579596422506,0.7257506437627682,0.754255626387958,0.7703773226722579,0.761510065460177,0.7784436061548772,0.8073494351014829,0.8365949449767338,0.8638730127057553,0.8907977536542516,0.9050169393665463,0.9039078736150351,0.9113334617567667,0.9140797910530126,0.9212816137329637,0.9234205644349486,0.9197329506112483,0.9151022750836398,0.9111106566465835,0.9067321807134144,0.9095615055701308,0.9118302923892986,0.9098263507349794,0.916526268916286,0.9241704443825859,0.9289353839697582,0.9309302573846939,0.938887775097626,0.9446369912663052,0.9437180958278141,0.9293317608361028,0.9114405331843679,0.8885403702174648,0.869839301360296,0.8720271542629854,0.8893122564221815,0.9124861934944878,0.9347997725193419,0.9530149266723232,0.967030507656916,0.9784220610808544,0.9927370961802163,0.9999999999999999,0.9714083384292443,0.9378179765846045,0.9042126153843558,0.8706072541841068,0.8370018929838576,0.8033965317836087,0.7697911705833598,0.7361858093831111,0.7025804481828619,0.6689750869826129,0.6353832956483628,0.6036927644780954,0.5738041900371034,0.5403594214459219,0.5067540852537686,0.47314872405352,0.43954336285327095,0.4059380016530218,0.37233265897728846,0.3388684484558694,0.30896826095862057,0.27730569737693544,0.24371699992417767,0.2101116387239289,0.1765534954979482,0.1462556973495242,0.13289283621949677,0.1537214060079526,0.18251578822089398,0.21537239363692762,0.2489763755591758,0.28257781647495067,0.3150686513812621,0.34435934396285606,0.37759230901680535,0.4111973772880199,0.4448027384882694,0.4784080996885182,0.5120131639235822,0.5452057353367022,0.5745047619446858,0.6070266724927266,0.640393847771206,0.6699254341068428,0.6997521098604881,0.7292168623867582,0.7561110578551301,0.7786965831277546,0.7928278561188586,0.7930116365859198,0.7883576470117141,0.7799958856487956,0.7618888859389351,0.7413320201269402,0.7182092150315931,0.6943222086255912,0.6711926979733314,0.6455934788181262,0.6202084235122682,0.5915031406456444,0.563393765865756,0.5376981697576427,0.5148680520545426,0.4968662113607491,0.49242938783132134,0.511318949002842,0.535333647503255,0.5601171062076453,0.5870829613386032,0.6150702876733497,0.6430800631843608,0.6711643478097682,0.7009669768752462,0.7297555477278399,0.7583914687600013,0.78719081296189,0.8193789808324408,0.8496490382923785,0.8766097261678905,0.903488675786218,0.9294491042002574,0.9526057741360944,0.9733342929969077,0.9853681871614185,0.9802970866500232,0.9812730769611581,0.979564089764794,0.9731196935221048,0.9666018123560577,0.9641793492236516,0.961119300402474,0.9584434104058558,0.9566124798028118,0.952904645901188,0.9562438590690979,0.9608596420136458,0.9641302343937471,0.9642174632247796,0.9644920822432997,0.9686293837505803,0.9715752482174377,0.9770073623516505,0.9833843099118903,0.9875654452897676,0.9917947826193422,0.9924552133276779,0.9828577610495998,0.9800651818268601,0.9643972975422627,0.9312607460259795,0.8977707211521301,0.8676521658000689,0.8362287092838444,0.8026451924071805,0.7690398312069319,0.7354344700066824,0.7018375367097431,0.6697740216702727,0.6401988166491891,0.6068187277643863,0.5732134682778386,0.5396081070775897,0.5060027458773403,0.47239738467709097,0.43879499535178085,0.4062581220429898,0.37696743218509293,0.3437814403323827,0.31017638294824784,0.2765710217479992,0.24296566054774904,0.20936029934750028,0.17575493888823218,0.1422772227833523,0.11226310423141873,0.08072529216214848,0.04714062451236316,0.014513287548638718,0.0,0.015623730628488791,0.0441420837743403,0.07767053621298327,0.1108105808907383,0.14004291349803394,0.17268374220141225,0.20628663826211185,0.23989199946236062,0.2734973606626094,0.3070975487214073,0.33942795426371025,0.3688270877013032,0.4021131393746657,0.43571836239145384,0.46932370599341283,0.5028003113425683,0.5328560552115127,0.5643518658726796,0.5975229841623153,0.626813328652213,0.6581489305991962,0.6864444079258707,0.7144318450571285,0.7416131246662407,0.7661043599442158,0.7887867412595674,0.8006819588930637,0.7986310264919797,0.7932783420540203,0.778612545442323,0.7572984028109625,0.7354487236215599,0.7078801192318873,0.6832607505443596,0.6580130069797507,0.6316362165967219,0.6071135323839997,0.5810868393063969,0.5545529282665681,0.5304958753991269,0.5072740221234607,0.490939776009319,0.4958116073883058,0.5158122947056795,0.5402687510703135,0.5696179095323564,0.5983609409416255,0.6268062585134686,0.6548019555798699,0.6829523616585542,0.7118302299801536,0.7407939382785118,0.7688616770111396,0.7968767549859017,0.8248918301819868,0.8528292554450265,0.8789527851204744,0.9058909476388252,0.9326752718604511,0.9520149330013482,0.9582178060808647,0.9584114562110072,MI
0.14300968622690924,0.12035943816157157,0.1539230482294549,0.24548394735781986,0.3307644453716163,0.4325425553767044,0.5163499641895335,0.5980037480498117,0.679868696776305,0.7797214542237203,0.8744885617114804,0.9325941858687363,0.9260002189645036,0.9093651023038021,0.9323848688337497,0.9385863963414911,0.9496049741865908,0.937863181036775,0.904750837096846,0.8491093489591135,0.7824991751443253,0.7411787566015935,0.7047075741908353,0.6709798222835923,0.6646735088168461,0.6646817794720965,0.6739877537504251,0.6965502458921806,0.73166401951236,0.7554227156271649,0.7470943258064855,0.719556147773349,0.6662789870197896,0.6019444169548187,0.5311637852719837,0.46458378132503153,0.40978037441589965,0.3671039615731706,0.39062348285889126,0.45844272579356904,0.5206006446028848,0.5774007892796496,0.6482413402869174,0.7211142947370579,0.7916178445971971,0.8164470457680988,0.8115130403995172,0.7918714360844721,0.772534457336084,0.6930422816462523,0.5885237080092836,0.4911354731476605,0.4003757567990496,0.2919472989258507,0.2010963121264524,0.11910923330166945,0.063956793851637,0.08840866512743872,0.15072552679879614,0.23260453266901404,0.30648742604854284,0.4006233733546196,0.484585437852564,0.566743480601887,0.6570083099862076,0.7447106049218535,0.821139928952646,0.857990354894838,0.8985553969514344,0.8579101393371884,0.8213094820411051,0.8617568580656361,0.826792942655894,0.8166599347491212,0.8081146970306925,0.760525754090323,0.7317203165096675,0.74729920286976,0.7021435793460711,0.643176977139361,0.6276494740341079,0.5715927170577695,0.5478131418546646,0.5988285027361497,0.6512469070985452,0.7091750914570412,0.64629572662668,0.5863908648624623,0.6157196158576559,0.6752409837529276,0.6708257483328612,0.6803778211538827,0.6393038651784257,0.6673275270633381,0.6653390903308782,0.6043279371311501,0.5425584420395451,0.4996250010297807,0.43711732247201773,0.38037546012104695,0.36705742539601527,0.41879334001777213,0.47596240400873935,0.554373087884497,0.6053896640408221,0.6599724814271664,0.7295217293307319,0.7834554542694336,0.7724217115412886,0.7163772905890529,0.7128476620197954,0.780892464436242,0.8001394903781271,0.708225169608327,0.6043677861205499,0.5190218500618959,0.41148184579532465,0.31254186085504365,0.23046922715680296,0.14424465281474674,0.05347453053013407,0.0,0.015939316456120345,0.10216076804451113,0.1691749480942022,0.2591114434571349,0.3492239483028934,0.45296541945502256,0.5288777825016622,0.6158065634582757,0.7233345039769956,0.7997751693822739,0.8373171243059776,0.8510394668732584,0.8958714915666306,0.882304641453719,0.858176503458771,0.8939957184575222,0.9848847826487681,1.0,0.9460660737526263,0.9061440264447782,0.8539620545103572,0.8612541072921633,0.8303414992414506,0.7601806340659643,0.721486086722031,0.673697985537081,0.6878661415165768,0.7365122830297546,0.7417167967039289,0.7273716997889554,0.7512206970755742,0.770861194521312,0.7860703971041962,0.7726393420209154,0.7367774749183615,0.6852925594021366,0.6131775309808827,0.5508177744860179,0.5220988843526291,0.5250900972952497,0.5529604640688683,0.6035719876146297,0.6707385543204012,0.7283452072441801,0.7990520992946868,0.8621145380215864,0.8774017113217392,0.8774130444210764,0.8641767716729296,0.7941501783230125,0.687150550828969,0.596200656701737,0.49897994074339724,0.3899850219404941,0.28096234216379834,0.191734538260115,0.16028764511775506,0.15814156623481335,0.20877037585244373,0.2948870638969012,0.3795257607952731,0.4745797547370394,0.5566608877326145,0.644446312687454,0.7491092538286983,0.824380777771446,0.8683331774518548,0.9100027738376708,0.928051115726289,0.9120692396970247,0.9246190445558407,0.9082644205629373,0.9075452435403042,0.8776654006176594,0.805486370084088,0.7688911999479382,0.7635389207687959,0.724103919703948,0.6937162284451555,0.6676745479229647,0.6647051705503886,0.6748627727621139,0.696988137027521,0.7217463612004105,0.7254589304572017,0.7253614773257357,0.7083908302354205,0.6530737029831721,0.5871290109889866,0.5283056668364656,0.47404356842510076,0.43097563835066577,0.4458256610817797,0.4894951871310642,0.543953318828649,0.6103590608509242,0.683042963344195,0.7422887824389814,0.8034146248055558,0.8237504634034067,0.8434739461482428,0.8181307068330055,0.7771549586882074,0.6813841068378439,0.5768228141045402,0.4917672576268952,0.3846214022569461,0.27853051872699464,0.19443633172570252,0.11236939959902958,0.09180145318371835,0.14108987184600608,0.22137484184275635,0.2943035122543751,0.3671991066878144,0.44642392030716316,0.5294395114166104,0.6165325026927162,0.7124613404051736,0.7912831168741254,0.8416246433971422,0.8497425943122083,0.9036697340777806,0.9168664962919406,0.9202042372544783,0.9236261268493289,0.9068461014257982,0.8600384033570005,0.7834001290858073,0.7360958305349579,0.7693370272029609,0.7463072597621441,0.6835556919209003,MI
0.6449924783901548,0.6855998384115822,0.7297819917352468,0.7700670429676135,0.7996370859133424,0.8221315377306784,0.8360081457813551,0.8223862854018953,0.7654328839990643,0.7025109697568075,0.6376417632747722,0.5754643935916359,0.5681021684163148,0.5340585899697032,0.4840625817238049,0.4288603416323591,0.3780603769191968,0.34177291934231935,0.3355570042915943,0.3676287021398532,0.4240201128121488,0.4746641265464191,0.5053285455248355,0.46853174698850797,0.4056805989652412,0.3403158511871869,0.27747587091901726,0.2070677351614496,0.14144511204920396,0.08105880030058099,0.04029540818677324,0.06296919400279544,0.11909039800317345,0.18243466642717143,0.24260950974080497,0.29960786604170186,0.3312461988874842,0.33656724090510015,0.355714141578114,0.3449236963311022,0.37531188206933375,0.4302502003560671,0.4403878122528275,0.4574839952149352,0.4783573512329511,0.5320277734720564,0.5880247006383437,0.6131371938179946,0.5858825625974746,0.5466374454793144,0.5107820368341227,0.4709377528887675,0.43539967031755866,0.4159232880849848,0.42822954583835404,0.46242079011913817,0.5025031192977556,0.5461388389227699,0.5898497252560224,0.6324717092552827,0.67698231408944,0.7122805618380523,0.7387301536750708,0.7414427562718586,0.7452741940687804,0.7605548441678938,0.7622790789821092,0.730745007994146,0.6974438020761959,0.671622108772481,0.6918706114176469,0.7425869463611705,0.7838568373450121,0.8192526289598607,0.8534409303222352,0.8776256599980581,0.9010968207687835,0.9206655002983188,0.869018285729072,0.8062536033135745,0.7408497204375402,0.6707688498479167,0.6095330643934846,0.5421321012682006,0.4719901073513737,0.4106915443824801,0.3433704162362876,0.27270240223848297,0.2020217496794936,0.13354884110915388,0.08931577091293263,0.10497743650248914,0.1619082617166403,0.22306407848387977,0.28319068493162725,0.34204989719453627,0.3964847140739305,0.4456276659498033,0.5036745306097292,0.5606671862461887,0.6188809754233864,0.6682240475686094,0.6776479903902377,0.6448235420321868,0.6051204896823146,0.5676502578379714,0.5323068900736851,0.5010808092524668,0.5019557134652697,0.5299537767677762,0.5678023334680993,0.6124739386549622,0.6567762313387417,0.7060307462164452,0.7502783982463175,0.7902858113168807,0.8287247216681712,0.8544722448166606,0.874611849746989,0.8684185630236749,0.8406674963936678,0.8127589434063238,0.7857610866658189,0.7786381533216913,0.8201912502017894,0.8646400788080402,0.9005166607375474,0.9391571368833254,0.9611143202500303,0.9800415761532739,1.0,0.961661361274424,0.8937667453808813,0.8311505676365867,0.7654130828615591,0.6954304620884519,0.6407759025627344,0.5959900827947058,0.5491607831286527,0.5023193047954826,0.4545151958342768,0.3916488200512098,0.33125986968932675,0.2622235812740763,0.19288200939328393,0.13256637155749607,0.07842403018580102,0.09230365165305576,0.1464611402877063,0.20953672895752207,0.2699181058051676,0.32531824550091404,0.3771911868222497,0.42297776262722775,0.482669627519853,0.5324699004505558,0.5825917313471658,0.6259685256599963,0.6153694531592153,0.5818040729916873,0.5417269426321232,0.4963995669123,0.4557679265433632,0.4230486151961903,0.4047007189537475,0.4236529898483741,0.4619296181130106,0.5000855588218927,0.5440126377929357,0.5894994474323365,0.6362068764413795,0.6808220219292176,0.7184352339057387,0.7405669305389333,0.7500492416623508,0.7500126776803158,0.749746141710141,0.7300481544790003,0.7014492553252034,0.6598641879759048,0.6214875301196967,0.5910362934628055,0.6056112945920082,0.6514963268649621,0.6891433442575567,0.7250658842889113,0.7581870420026271,0.7755904754992273,0.7961537238771208,0.7664458964730132,0.7021495483465854,0.6403828713481712,0.5737172366046464,0.5051585665654015,0.4445636469190959,0.374975429614971,0.3052293697038191,0.24451196485503313,0.17621292391381216,0.1075005752625513,0.04816230351519435,0.0,0.010211594910558563,0.06108061177235702,0.12257806594426568,0.18306879086586592,0.24809361904111604,0.29929681361938676,0.3471410387242333,0.4006061780504502,0.4592839024645663,0.5138989954349107,0.5567502307602408,0.5515898054902766,0.5202134867451109,0.4885081241922675,0.4599013936589287,0.44303379377991003,0.45722506110094985,0.4927004233592456,0.5328554824177973,0.5802525120766839,0.6293383711898377,0.673115288111866,0.7192318142120149,0.7629980030900496,0.7980512963142115,0.7939475068122337,0.7887921459384053,0.7906284139105515,0.7637280576152907,0.7386362871898693,0.7092183198164359,0.6754102922235554,0.6887818489486683,0.7320464323182163,0.7712323778641217,0.8094698980618515,0.8479534506525073,0.8742784394444612,0.8930004851737969,0.9156757023454567,0.8799776524402594,0.8106765169567818,0.7485398421511533,0.6826135524193382,0.6262213542995161,0.5683701150036136,0.5080457184791842,0.43940042554797043,0.3688601711781285,0.30515033221582555,0.24058089752027167,0.17395343062287805,0.11806283861040279,MI
0.5523768013047334,0.5726280630756921,0.607599192081602,0.6431173891144284,0.6770312434056971,0.7163826132251303,0.7588777179109332,0.7995194960221765,0.8326711578148334,0.872267175504027,0.9005276171021921,0.9022835669632088,0.8763145196692073,0.8573992806367727,0.8799125607408513,0.8929331719153148,0.8764783059101722,0.8525236322612366,0.8478574711044116,0.8454281645776283,0.8319574687600599,0.8123102769911468,0.8001556231809122,0.791478718111214,0.7978369694562593,0.7854697407216589,0.769919951889767,0.7762826409582504,0.776434424892239,0.7701820993953545,0.7536501496514487,0.7598322785748521,0.7645507464814385,0.7687597347030841,0.7762855005680496,0.7764771566707644,0.7797809495426413,0.788065458452069,0.7883649349508184,0.7883649349508184,0.7883649349508184,0.7883646410798419,0.7873628253761613,0.7734897771203391,0.7731540291527719,0.7764605147713033,0.7772743889555753,0.7883499184716853,0.799371913836324,0.7942274783735794,0.7894826848202621,0.7978458291609993,0.7895027018097489,0.794132741426816,0.801848813995395,0.8143665220913869,0.824256189044908,0.8333405571302135,0.8264230345551178,0.8239500758434233,0.8166288364108827,0.8006221244130007,0.7795348677857403,0.7582813715008505,0.7356028541640838,0.7065536835236388,0.6747556293291945,0.6426715203356039,0.6105060698340292,0.5743086263544643,0.5379280464850342,0.5029960497663613,0.4699591533801144,0.4332365982070021,0.4012267858958578,0.3668757745353812,0.332450599051078,0.3080858725855582,0.28318158327666376,0.2511423973371598,0.21898732848581837,0.18459427318764488,0.15255914239395896,0.12469817481523338,0.09235149781728857,0.06484249321536262,0.05766750160103662,0.08146374935088585,0.10424862506016508,0.1304559223694315,0.15870113289733,0.18750979200439533,0.2194238942558826,0.25144774373409073,0.2799470085527169,0.3062200954905454,0.32772428433082434,0.3530323785587741,0.3761034820879934,0.39828840453736025,0.42432629685961,0.4455224371048725,0.4618740182149861,0.4823574698444262,0.5012898165533899,0.5189653401946772,0.5401683451700954,0.5595475967294936,0.5724669543110077,0.577056091139077,0.5907032066628812,0.6115718444415918,0.6399112076277662,0.6775926243651031,0.7090317665568844,0.7334877382388807,0.7645592319866148,0.8012004609023065,0.8404607539054123,0.8745778279966456,0.9165359533045814,0.9505435189223561,0.9854248496370734,1.0000000000000002,0.9818078129049106,0.9424382388287327,0.9062621931433548,0.8812988241905348,0.8927284202556833,0.8784915401977054,0.8561280962832163,0.8369789349085084,0.8310681892365503,0.8115780059321314,0.795112411423011,0.777418227669789,0.7659534778266137,0.7736851076079609,0.7706634222035069,0.7712249956164892,0.7770577441909745,0.7863794372172228,0.7814626023358879,0.7764878254091221,0.7749279668702969,0.7678515157034786,0.788887861761068,0.8083184291162515,0.810071640010648,0.7939370433648121,0.7883846626979321,0.7867512254041664,0.7702379412007214,0.7443783717769146,0.7217541918783825,0.695715451268778,0.6732563379232814,0.6501368903501534,0.6557739929732473,0.6699445169132832,0.6885925758654052,0.7144916490813362,0.7336029911503228,0.7628512664375628,0.7760428809572317,0.7764873457376045,0.781178010822251,0.7882443986145276,0.7883649349508184,0.7883530140980957,0.7832029413682744,0.7600599723960759,0.7436446951148092,0.7297394285094059,0.7299528561111346,0.7419798153871071,0.7596969033917931,0.7761032409979978,0.7922107567555925,0.8031192936125022,0.8165823600494078,0.8273023232546326,0.8356187969310109,0.8308799213999325,0.8200293049294791,0.8001604824630772,0.7727091754576285,0.7443694538389221,0.7159666797150936,0.684476810386849,0.6509022345704114,0.6155646009809919,0.5817889887469616,0.5489634555007021,0.514165804676805,0.47924215921520563,0.44616345932402046,0.4043592257626767,0.365665518391439,0.3318697109994633,0.2989919360199933,0.2611253846652004,0.2277123225058657,0.1948857373980024,0.1629726403573628,0.12764880056905792,0.09562192803937752,0.06383656989351616,0.035237657246234066,0.012313470724352182,0.0,0.02610107645761328,0.05451266528987442,0.08556177700132772,0.11514606202419264,0.14344622778965488,0.17169713906161888,0.20063494225696576,0.23118195630159688,0.2568557708530457,0.2891839657976454,0.3212924992823347,0.3467916833522786,0.3730805039553722,0.3947928684599804,0.41604535288155153,0.43729639417608945,0.4586162239141107,0.48393212577754485,0.508959404581754,0.534616842916587,0.5410938737003228,0.5577117912042058,0.5722286315693583,0.5850321421689422,0.595608848207593,0.6001542004141485,0.6140608391639575,0.6410363197390347,0.6729896415555798,0.7110401297738378,0.7530361191275181,0.7864988604219796,0.8266269342432608,0.868901751328669,0.9027814752206742,0.9287520910889027,0.9218777912400007,0.8898830547000307,0.8694345905025036,0.8926411738553435,0.906253959490537,0.8891738214669693,0.8616802929503515,0.8483522109998158,MI
0.7331764017451996,0.7800475805886049,0.8298155010654718,0.8748266570334429,0.9040573325420618,0.9029069508137266,0.8981944646347166,0.8842172298372231,0.8777614435965537,0.8633958089506311,0.8725881893264038,0.8967246703465985,0.8988273337859716,0.8910279771646787,0.8807135377203892,0.880512804306655,0.8804125341083169,0.8707599585507948,0.8372167289726002,0.8089460875084571,0.815375810859031,0.8411155468311202,0.8611162554005327,0.899734495241848,0.917054429835086,0.9271047778186214,0.9183001909730542,0.9200527166209636,0.954708450646069,0.9620999879766448,0.9055469416480593,0.8363716885089802,0.7616503256535925,0.6869017566037297,0.6121531875538664,0.5374046185040027,0.4626560494541385,0.38806101972868134,0.325706135399805,0.2840961344766697,0.23070333954197775,0.1885129543521784,0.16760441438160978,0.2098157932758986,0.2695156210076113,0.34236829590446805,0.40680158061504956,0.4737447960470895,0.5453688363236142,0.6059047656660703,0.6783232541899209,0.7251866647995202,0.7081246741610796,0.6893724948629942,0.6514631440727521,0.6220827018595108,0.581685157519062,0.5315689458598505,0.48087483010120957,0.4332768537024414,0.3801629742436652,0.3316193289215761,0.2834484808516011,0.2311226739178518,0.18652585083282158,0.1320817408375916,0.07862075658766621,0.03388024550033819,0.006036264772082411,0.0,0.025550817826985206,0.0789986712145967,0.13651085090434822,0.1895332673163317,0.2443113385383744,0.30365117096747385,0.36088604561312776,0.4169796334676876,0.47509326883752534,0.533392886446157,0.5872050787464036,0.6373435421289133,0.6914721763707674,0.7354064646424665,0.7687611365726559,0.7879787244721976,0.7934153711156458,0.8114951704251498,0.8250247819823766,0.8360829325956929,0.8637607169516839,0.8828550351033964,0.8977891650406011,0.9102759272616905,0.9286619452920997,0.9356226315847866,0.9392013556683234,0.9545856011704967,0.9699777394111457,0.962745819372866,0.9287037415067285,0.8867374013448543,0.8512011041395628,0.8498330103935929,0.8781029364733528,0.9040498898350888,0.937692406450648,0.9647342757351933,0.9833710436838823,0.9810448408380728,0.9725613696341768,0.9809904963555427,0.9924261168872919,0.9377892264821179,0.8633573950165223,0.7886562796612435,0.7211126594027646,0.6572803962364708,0.5895294164773581,0.5425657869720077,0.4927409489496153,0.43979719942896756,0.39169039579028153,0.32868232928887053,0.26280825732024615,0.19061887589517124,0.1536497411372908,0.18810008615210005,0.24788071905383058,0.3168535512702624,0.39147237860482376,0.45735008653972864,0.5228090549185636,0.5974454959683286,0.6697748369267917,0.7301425496540572,0.8032722289132979,0.8673852532996928,0.8688815220060739,0.8358093699839744,0.8131469763206445,0.7842051148248501,0.7572307797407967,0.7166263402797561,0.6713912892241063,0.6172979727954764,0.567220479825838,0.518374972436872,0.4734966115017438,0.425003283263111,0.3803740682059793,0.3387999300187663,0.29422506610604593,0.26096512414390105,0.2590803517505522,0.28616766261184345,0.32388350027351054,0.3721466456477973,0.435822915467762,0.4863369335704162,0.5402959553849622,0.5995057949619542,0.6555885549569553,0.7116538525200871,0.7660520161484614,0.8153426147645244,0.8598109946777401,0.9041348573106349,0.9407894199267495,0.9537633134825159,0.9540359869786519,0.9540364094261475,0.9553348113535511,0.9698178823313137,0.9617071988209727,0.9689188832439424,0.9888528238833896,0.9964173134275733,0.9965414787733571,0.995761463050667,0.9779518731740136,0.9635449138854737,0.9402309746764805,0.9158200375273324,0.8903387279341515,0.8667634554117796,0.8754787375213868,0.9041618143448269,0.9266603652254868,0.9558589754067106,0.9723002520727504,0.9821904255802694,0.9644768776199921,0.9393598760811543,0.9562365197327849,1.0,0.9820598441378934,0.9092470424795467,0.8475428294945093,0.7775632661214376,0.7028317795159951,0.6281029735786126,0.5593606032542264,0.49665876764384986,0.42221829898454066,0.3474697299346783,0.27303369664563215,0.21136251427651365,0.17167619380756083,0.186700203959707,0.25071376031411274,0.3192768718851422,0.38213234304401844,0.4565287856417708,0.5301734281374104,0.5906367796751231,0.6623971218658955,0.7371425980962609,0.8113836263138263,0.8513939065135165,0.8288182182079344,0.8165880948890307,0.7783675644171519,0.7452326764789952,0.7080297358152055,0.6674984436546882,0.6182668846674915,0.5703851579138046,0.5350661962467611,0.4870155830854319,0.4289690524858192,0.37510501339293967,0.3201048575039369,0.2649385244668956,0.22401807649196837,0.18691743566222563,0.16670696600760326,0.18584294162727355,0.2214469092307625,0.2690188311229189,0.30222592288904204,0.34514617198910713,0.3986064564436811,0.45671247316952535,0.5150173861602609,0.5710912453803805,0.6280853158056732,0.6877015359104792,0.7427105934752039,0.792326355663155,0.8336259704002247,0.8708285384341026,0.8899418742705678,0.8940942477320841,0.886549514315738,MI
