0,1,2,3,4,5,6,7,8,9,10,11,12,13,14,15,16,17,18,19,20,21,22,23,24,25,26,27,28,29,30,31,32,33,34,35,36,37,38,39,40,41,42,43,44,45,46,47,48,49,50,51,52,53,54,55,56,57,58,59,60,61,62,63,64,65,66,67,68,69,70,71,72,73,74,75,76,77,78,79,80,81,82,83,84,85,86,87,88,89,90,91,92,93,94,95,96,97,98,99,100,101,102,103,104,105,106,107,108,109,110,111,112,113,114,115,116,117,118,119,120,121,122,123,124,125,126,127,128,129,130,131,132,133,134,135,136,137,138,139,140,141,142,143,144,145,146,147,148,149,150,151,152,153,154,155,156,157,158,159,160,161,162,163,164,165,166,167,168,169,170,171,172,173,174,175,176,177,178,179,180,181,182,183,184,185,186,187,188,189,190,191,192,193,194,195,196,197,198,199,200,201,202,203,204,205,206,207,208,209,210,211,212,213,214,215,216,217,218,219,220,221,222,223,224,225,226,227,228,229,230,231,232,233,234,235,236,237,238,239,240,241,242,243,244,245,246,247,248,249,250,251,252,253,254,Target
0.8207344255480447,0.821819796441325,0.8047449180543089,0.7776120218178724,0.7960801401590873,0.8058732001168658,0.7958874833512395,0.7995507196720779,0.7906069879157065,0.7657314581680912,0.7556222517578433,0.7559119284378788,0.7707185741437774,0.7867127158219462,0.7781080872978712,0.7792275732548184,0.7448923535826117,0.7455176719940293,0.7554291385706482,0.7546059971776091,0.740625946170808,0.7511676681206181,0.7849921083823523,0.7770648862764769,0.7824614683196147,0.7547145640205684,0.6899636597003194,0.6322048306102039,0.5765776520795338,0.5113663144680092,0.45774462942183547,0.3978344213450251,0.33247886712420405,0.27847750997974163,0.21897131786001323,0.15724047041139633,0.11489680184273254,0.1130454337410316,0.1547764546344843,0.21900224226682674,0.2736674173220006,0.33239537080819614,0.39067393644769854,0.44581430988702975,0.5112802283781739,0.5769172595877881,0.6420496025651112,0.6949708100388357,0.7557838270939894,0.819611693208715,0.869726102952292,0.9193417057473683,0.9710156420192,0.9953277860849248,0.9775944956757803,0.9295517666875308,0.8857032285766575,0.8474466664021065,0.8163791268740765,0.7859729979457182,0.7759159646218023,0.8022656344277075,0.7915468960435095,0.774191526189294,0.7678453142535493,0.7382669613913619,0.7008547397706972,0.668713040004207,0.6484086482199909,0.6160449553039893,0.580069088739811,0.5496997794805512,0.5260410371526563,0.5067677913920918,0.5289323518679208,0.5513828819019384,0.5731616305888094,0.6016704623706612,0.630482087849459,0.6618827746618008,0.6784054562295752,0.6897362643877365,0.7028673282755271,0.7176697878504736,0.7217643303956667,0.736102546419962,0.7323353213582364,0.7290623346342326,0.7219350134326881,0.7201837222855714,0.7389954903765719,0.7528963060858946,0.7394891313597314,0.7482152372621411,0.7326530651884662,0.7263510796879915,0.7507597349300332,0.7434283447319667,0.7213490594204752,0.725319950941512,0.7206215122316828,0.7291316125656717,0.7262803023992266,0.7191929599457354,0.7070828956966677,0.699473288643782,0.6849138515520132,0.6891533417992735,0.7239301852254272,0.7334204886393962,0.7240217855090525,0.7395305426864454,0.7541666649924585,0.7355384753036533,0.6738610649178831,0.6202440756203957,0.5603338675435849,0.49474367665918173,0.4360155419233229,0.3812971885235221,0.315883894793322,0.2566711744806023,0.20238093767823662,0.14051353786564347,0.08867623457285889,0.02860809866243308,0.0,0.021043720186747272,0.07384760151645686,0.13215053265751964,0.19775188512448105,0.2633889163340961,0.32902263018134104,0.3920621192191245,0.4434400825918905,0.5078562249622545,0.5673654143327367,0.6213667714772004,0.6867223256980206,0.7466325337748314,0.8002067514711841,0.8586679826454717,0.9132998017099774,0.9702673966791209,1.0,0.9737543300990632,0.9317299366762835,0.8865518500222276,0.8326512272382711,0.7938117764288348,0.7666392794172423,0.7556705302407627,0.7555179667041836,0.7462537086824299,0.7222392475851382,0.7144317875434618,0.6883745910548309,0.6618628385697511,0.6233606067821809,0.5873878555475898,0.5530940064843883,0.5141061977125045,0.4884819264625455,0.462455052503993,0.4382165980763779,0.4553458464725857,0.480616552057584,0.5175754632219345,0.5579965857520519,0.5830788593231984,0.6291024379524588,0.6635980005149125,0.686118291996435,0.7144760411074489,0.7221443899217275,0.7364630860458949,0.7491771195248216,0.7788105266595409,0.7790026613181804,0.7716523407210434,0.7557314358688969,0.7401936683596935,0.7497369108228233,0.7470411574185145,0.7313276779419566,0.7321872739579982,0.7482099133725635,0.7393084980894873,0.7510242773428466,0.7272984663120821,0.7202745247971767,0.7255324538373995,0.7238520411905047,0.7369709585188651,0.7296182518502654,0.7328699754973513,0.7358980970913067,0.726477361414041,0.7305898533298762,0.7059636268355369,0.7098153373417406,0.7075513606961903,0.7293004987500846,0.73752021167354,0.744529594022433,0.7503116796975347,0.7227248613684942,0.7126573157048814,0.660541612366603,0.6009361336776862,0.5470710162220009,0.4849261288037243,0.43335917203308316,0.3685353190117562,0.30303785058734967,0.2474405570491025,0.1901394544659074,0.14376196713600908,0.10429342966757105,0.07388078567418788,0.09816198860138492,0.15210486483733687,0.20609040896976882,0.2714459631905899,0.33135617126740025,0.384977644968969,0.4495741665783637,0.5014536427420246,0.5635020239235242,0.6226587395801348,0.676992309810601,0.7422025690229006,0.7969735243729548,0.8540766885535285,0.9043275446242967,0.9511838142855935,0.9622376550036744,0.9205822635074181,0.8750324544660355,0.8422696450013651,0.816922867220645,0.7851613546716831,0.758574230041472,0.7512103260326977,0.7425523745182905,0.7551372040677711,0.7609165859127391,0.7521997647973091,0.7154588289384636,0.6878352706488493,0.6616967351711684,0.6364523169968139,0.6023571478106415,0.5739020473636485,0.5584736400288395,PM
0.6954395860586451,0.7200000008150456,0.7128231630725774,0.7176594008879862,0.7151449304059261,0.7105032546856056,0.7391431341122314,0.7390852971261008,0.7161844013152479,0.7235878236408322,0.7087709825472461,0.7211055149133334,0.7197675950240248,0.7257932995518979,0.7320729980180158,0.7395767747746103,0.7590238935363876,0.7691594442160099,0.7386548766698553,0.7485094996267434,0.7560621514652062,0.7564428440926281,0.772335726324703,0.8028079873942753,0.8609298991631982,0.9225389528394063,0.9968541535843101,0.9905990282998975,0.9146440916825447,0.848956929931393,0.7798027445203233,0.7005383225263544,0.6226988463279413,0.5629312948828158,0.4865813711340392,0.40725818856275486,0.3279331281794611,0.25197435557807424,0.19182754303727245,0.1368026398909259,0.15611978891567713,0.22121970583745876,0.2998537484423216,0.361763514508195,0.43506001671498495,0.5138632986757234,0.5760734208060012,0.6295316347312454,0.6382924104887171,0.6512705911327501,0.6204362892602813,0.6186844128431703,0.6354879740604282,0.6359561855450075,0.6359562462785702,0.6364809432980896,0.6536860353714404,0.6742200125466309,0.7196821645125286,0.7523517348023208,0.7917297866580131,0.831438995908703,0.8773646352068885,0.9193203685505771,0.950028613534291,0.9574776434850913,0.9196492128021654,0.8731485493009461,0.8203390544836213,0.7769167987787573,0.7532999283846062,0.7213356531550117,0.6910823519799787,0.6983354703261013,0.6847470033804344,0.6982820651445523,0.6847418006908317,0.658350472874845,0.6252543064449276,0.6215680434677164,0.635809213949007,0.6430277705257859,0.6533306809262469,0.6377430610044366,0.6623050589243911,0.6776717053408796,0.660576681968239,0.6599799267300903,0.65863123672053,0.639904888747648,0.656415878324232,0.6802377849414585,0.6700273343793244,0.6571167363291828,0.6378811423336885,0.6444565692468491,0.6599266904567727,0.6729290068534235,0.6784901676982797,0.660628585397057,0.6654242472949927,0.6819891044125366,0.6635667288244589,0.660006359868798,0.6671267097383295,0.7032358557537828,0.754149828353011,0.8182652340743792,0.8782423122390131,0.9544694395545803,0.9999999999999996,0.9369836638790656,0.864244029718805,0.8018742794297333,0.7230642342113498,0.6498256046203377,0.5878647291963315,0.5091005642822597,0.429774695783665,0.35044880304377823,0.2719565017871486,0.21059647826283134,0.1364894961424814,0.05786415249407284,0.0021225023054713965,0.0,0.06444363879433235,0.1252547904248864,0.2035696604862367,0.2789703680002473,0.3393524520745057,0.4170327515708041,0.47948735038868273,0.5503899497494236,0.5821633224781522,0.5647722803832456,0.5651410489924396,0.5901514229191429,0.598295106139449,0.5879758326049354,0.5879084086300956,0.5879118169413924,0.5913796260195916,0.6163142424803123,0.656886896347237,0.6933700467513861,0.7278315230950869,0.768215612765287,0.8181679122273069,0.851385893573084,0.9010029503859234,0.9387525852310179,0.9243053358582869,0.8695279234552777,0.839400096720992,0.7996015802397309,0.7560869806902817,0.7193084220706059,0.6868844587679104,0.6813795220572207,0.6517136339713581,0.6361715484875097,0.6359561855450075,0.6359874184413106,0.6439029078457925,0.676816059233607,0.6853817964461233,0.7040281848209742,0.6950494261882176,0.7067020004429487,0.7300281546790259,0.7131819631311958,0.7254064632828676,0.7150926547313885,0.7029210545976086,0.6924015008413886,0.6863606632819135,0.6898572510493071,0.6875120732189797,0.6842033260213465,0.697450117238879,0.7077677655556132,0.6924373696946229,0.6668770943042173,0.6477446356117698,0.6367402701505336,0.6600801805361778,0.6832185815772527,0.6936409004085653,0.7323817057243791,0.7955707310190445,0.8554122880574577,0.9278202280225885,0.9525852806122068,0.8928041112099687,0.8315036761749313,0.7528254269683652,0.6747165242010844,0.6145373435370023,0.5388678632113311,0.45954547520545397,0.38021998700844284,0.3033907031529295,0.24361056015046234,0.1864234219887968,0.20161852831853366,0.2650381345987807,0.3368556234911608,0.3998393059482992,0.47862839364278464,0.5442318664855184,0.601277854240847,0.6120926645272555,0.6241435396479762,0.6166345256936858,0.621662676860407,0.6206310996422539,0.6399428934282456,0.6436271569954073,0.6195668878334488,0.637265764242223,0.6560432835515297,0.6399221881327137,0.6620493260309086,0.6922468606248113,0.736729731748472,0.7812533626025413,0.826463143875904,0.8698803673791944,0.9003857584070833,0.9380749642430257,0.971864125828366,0.9556847395140369,0.9074123164411128,0.8674542616283429,0.8342974291194447,0.785357251704331,0.743884129283471,0.7113372055944396,0.7047098908883997,0.6928051496967234,0.70133872519594,0.6845379912081877,0.6840040252787554,0.6840680152400518,0.6944966051701291,0.6977946237735786,0.684747144136332,0.6995248890813115,0.6773104280446578,0.6747874630004107,0.6845925697266835,0.693933803705622,0.6908903096840393,0.6947994126053216,PM
0.5438282835113779,0.5399700449773146,0.5558865320793029,0.5919842336486538,0.6404463929349591,0.6754204964725883,0.6982557433596739,0.7035602494627375,0.7162394500172056,0.7326961706456423,0.753068023339396,0.7776697636966134,0.7999388980543292,0.8190046841043475,0.8314140890796469,0.8345615287175434,0.834565895110595,0.8345677641433387,0.8363754159008461,0.8483270241319345,0.8493124216614572,0.8492997387463799,0.8437452168129198,0.8347579762767867,0.8345661497000316,0.8356033551857727,0.8396575007306448,0.8346268053382917,0.838583295446977,0.8490099123402994,0.8493125287681726,0.8485260372669434,0.8368035321981551,0.8420814431918702,0.8492524475520318,0.8493126589763369,0.8493126589763369,0.8493126589763369,0.8493125560698842,0.8485768411849866,0.8373682559208007,0.8460417691868267,0.8539321630422858,0.8636743194423286,0.8530848826663262,0.8340408149076701,0.8186210786767414,0.8036178022548484,0.7871568601523906,0.7760941790290343,0.785846928550896,0.8101138595151554,0.8347805269639639,0.8536853635714863,0.8645002243924962,0.873343153461311,0.8519050510965309,0.8068922816307937,0.7690253946869499,0.7205238641651248,0.6708479009775945,0.6211715474063308,0.5714951938350676,0.521818840263804,0.47215341277646994,0.42733771086839933,0.38728494793184365,0.3378601740935039,0.2886114538959379,0.2497480864047006,0.21057321782577154,0.18175744492495505,0.1337175235241399,0.08431388890350466,0.04507367538569307,0.012403541539476093,0.019369606645017967,0.0640442318473673,0.10373878854814911,0.1489379450792614,0.1986044745946629,0.24828082816592656,0.2979571817371902,0.34763353530845387,0.39730986892846576,0.44672211763702263,0.4866409121317741,0.5316026919914791,0.5812685392990296,0.6309448928702936,0.6806212464415573,0.730297600012821,0.7799739535840846,0.8296483777695842,0.8774912498401526,0.9152262491014898,0.9636013035472755,0.989856236492396,0.9529902240102341,0.9183517083479016,0.8912058097919502,0.8729580992007624,0.8606601425546003,0.8480732703502016,0.8351152203571175,0.8212778700625747,0.8063200011925771,0.7937243293306935,0.781306698433287,0.763027371878068,0.7384740365597935,0.7170712128179075,0.6967794201602797,0.6835124423987402,0.6735259896383847,0.6860889256679283,0.7066193718633422,0.7314400765154363,0.7549886817784341,0.7738323812862391,0.7944028601197113,0.8176178275926058,0.8205317093073754,0.8291989282338728,0.820452274236446,0.822936591318725,0.8385034608903972,0.844940757774661,0.8348010818957019,0.8269292070969834,0.8198395893931933,0.8134112864555658,0.8070289426302089,0.8138158746370392,0.8131350399747781,0.8073498502127303,0.805075169146579,0.8054038373420682,0.8157896989213915,0.8173850240384577,0.8109700844115686,0.8180216143990515,0.81041207774605,0.8195403240968466,0.8198191312448535,0.8198191312448535,0.8198191312448535,0.8197386105220308,0.8087516010378719,0.7892534516270961,0.770461464074399,0.7572192920831236,0.7466004297851883,0.7561533690337208,0.780006208547964,0.8009274252028593,0.8239817045815205,0.8349514836920635,0.8457162954341126,0.8248356068089211,0.781062340688937,0.7409259593082647,0.6914938402940969,0.6438074279926838,0.6058351916366607,0.5572109407082553,0.5075347199703208,0.4579944487444392,0.4174750669489711,0.37322079447370804,0.32357652527958214,0.27573611109538065,0.23783374798536117,0.18929347284875675,0.1396174191316948,0.08994106556043113,0.04029032565077473,0.0,0.0009710831930935804,0.032626638285820464,0.07861302592186425,0.1282825303287558,0.17699023975908612,0.2079424187480352,0.24787547634822427,0.2974702402292706,0.34223543796365585,0.3822590678738589,0.43177683501298114,0.48145318858424435,0.5311295421555076,0.5808058957267717,0.6304822492980353,0.680158602869299,0.7298321368477407,0.777152328785923,0.8151806948067399,0.8641173582951942,0.9137936068598735,0.9634267193212973,1.0,0.9715725111424756,0.9342499939632845,0.9049368471694281,0.8722621034277416,0.849407266548476,0.8364704590320811,0.8318198364602294,0.8123538940949104,0.8102027326203252,0.805344644168374,0.7923943070248747,0.7796962960048259,0.7631982862694255,0.7433065319323151,0.7185938691330453,0.699008357984892,0.6824665769730256,0.6726237874158385,0.6783348221297785,0.7017160013645038,0.7253044558275916,0.7446074970665588,0.7728846218599918,0.7934236781479611,0.8114912196768738,0.8279127320501534,0.8345294737208646,0.834565895110595,0.834565895110595,0.834565895110595,0.834565895110595,0.834436242504287,0.825420914124281,0.8198528543828174,0.8198077328631799,0.8147963595441143,0.8094901481514527,0.8195593200361757,0.8198191312448535,0.8198191312448535,0.8198191312448535,0.8198191312448535,0.819863745727702,0.8263042890974401,0.8317921840828584,0.8208990098076567,0.8292155789401692,0.8253113668472407,0.8343609434340764,0.834565895110595,0.8345558611446249,0.8300137954959301,0.823892642189199,0.8342042030487131,PM
0.9132172201939976,0.9539069093638997,0.9956986527870697,1.0,0.9999990764377049,0.9929570609262335,0.9520469621740322,0.9499472298407277,0.9499469586138485,0.949756669609874,0.9197932035700873,0.9064900421206801,0.9469647574389857,0.9382996981394314,0.8793386656472659,0.8500876758888705,0.8321539695627376,0.8004581127215733,0.7997869108930988,0.7942638199808183,0.7524462068744686,0.7770754525797638,0.7997208005061118,0.7843237266928487,0.750341596700796,0.7148609129347143,0.70953547675858,0.7404707063178968,0.7014567391812943,0.7126123007047038,0.71396144072156,0.7255074560635411,0.7017551391754644,0.661422776239057,0.6865872650158522,0.6624943145542233,0.6242432211871591,0.5886155223689471,0.529391905277425,0.46826685983668526,0.4291358837248094,0.3558025386037613,0.3116699225771651,0.25768304456688895,0.25180280098985985,0.2950381587203905,0.3384392665823359,0.392580441098497,0.39337506549496304,0.35172199330495424,0.34474356166926157,0.3031471203900349,0.3072923808415151,0.3814747872635973,0.3993770958182097,0.4115257841890596,0.50570640463717,0.4912467543867898,0.4210038825581819,0.4001607839103123,0.4436567318159703,0.5172017565135185,0.5284143286512268,0.46093756209508285,0.3847354857232297,0.34979073668811367,0.3138219403902003,0.2993036843321226,0.2992557570690222,0.29909002503712667,0.2706380840234326,0.27131168886238743,0.29910148495743183,0.2992557570690222,0.2992557570690222,0.2992557570690222,0.2992557570690222,0.2992557570690222,0.29969145899481653,0.32930270060962563,0.3492905362192147,0.3493089264186242,0.3493089264186242,0.3493089264186242,0.3493089264186242,0.34854179255681395,0.3094422628557858,0.2992701071584385,0.2992549392156638,0.29290634580382324,0.2515081814814977,0.24920291736439548,0.24920258771942017,0.2502256902220559,0.2850484699027538,0.2992534815450538,0.2992557570690222,0.298587737752535,0.2607722341086385,0.2866348708752158,0.26190535510963286,0.2492362446837033,0.24957954958752815,0.27866963739574846,0.29922754408078145,0.2992557570690222,0.2989312232843364,0.26316656537961336,0.24924589812113673,0.2492025376467657,0.2451311015718609,0.1962873515144743,0.13567305912191063,0.09994941142048841,0.10299953734287914,0.1543679384404042,0.21609251347971448,0.28971536860822145,0.2571750730170699,0.29242635536283856,0.33036467656248014,0.3488362570151473,0.31109513921563803,0.3365637648193065,0.37813194855049304,0.4204587574492731,0.36479507182480475,0.35071769350609117,0.38030517808232567,0.3340738549540436,0.30007632366289805,0.3252395125722263,0.4383262492655451,0.5591299950574111,0.6399383867420436,0.5680510624304365,0.4867658193334208,0.45010281399952135,0.4138821170006768,0.35458025281206673,0.3032122147412899,0.2992562397137766,0.2992557570690222,0.2997404090428857,0.3295465425483819,0.31624488412143315,0.29554791709307704,0.25449501046763157,0.27142151071881493,0.29910475922037527,0.29925580018714104,0.3005529798408526,0.3378078106189637,0.3493071808302517,0.3512229197961396,0.3916914354134686,0.3993592583178014,0.3907672495497767,0.35878137164607615,0.3686658685027542,0.34941737238495385,0.3604873553133672,0.36478917116772536,0.3493669268338273,0.3493089264186242,0.3491824855420589,0.3229238681026221,0.2993498529459355,0.29925614235028064,0.30175715102338074,0.34366093181189683,0.36294159081331223,0.3851105450058192,0.35202085207765244,0.39083262350525416,0.399360543515936,0.39936209576822534,0.3965470258175987,0.35610118211621433,0.34930955371771333,0.3493089264186242,0.34930623918616277,0.33152562708933964,0.3000006519407483,0.3205204171872378,0.32526927919418114,0.2892542692998248,0.21105646919066245,0.19152791972661554,0.15102022574342833,0.1509228416738102,0.19524826600987577,0.25464894484611467,0.31405216626047405,0.37424963838123304,0.3992618489952129,0.39936209576822534,0.3993625199948827,0.40215785677026616,0.43996958687366927,0.37409915032618635,0.2943726027602276,0.20721897865058114,0.18679769261371248,0.0882801131999571,0.01769339706181583,0.0,0.049241717389231,0.1468767230081287,0.23868050438503552,0.35941678453791326,0.47189582317840895,0.5529236860630977,0.6399383867420436,0.5756125355561572,0.4911107415104219,0.42971060326195065,0.39159010387021986,0.3510956496711586,0.34930910862745,0.3492397851435811,0.32630658231088283,0.29938796869678086,0.2992546053979659,0.2919154089866547,0.2519145133784484,0.2818574471515847,0.28871848831971825,0.2505977105873898,0.24929969253529105,0.2735472415946685,0.29914077611276113,0.29925586138705285,0.30076836005236274,0.3399340881212982,0.34930720725748543,0.34896802131921945,0.31267227503741424,0.29929487032403035,0.29925559572380145,0.29485518821092516,0.2534628116319606,0.27325800402513956,0.30104006808624817,0.3400453515210824,0.3081270855245837,0.29926071972351753,0.30719659321188075,0.3400453515210806,0.3013265422092335,0.30093505309723767,0.3400453515210806,0.30938598688882735,0.2992696874437675,0.2992557570690222,PM
0.8540301449446348,0.8534393223939079,0.8688763665146624,0.8450995942189117,0.8427388864570782,0.8161527032972558,0.788383542808293,0.7615086614074196,0.7345555067656093,0.6985532331876598,0.6957947324238747,0.7329220498147144,0.7677083492226684,0.7360229078226741,0.70028636459568,0.645619463910081,0.6210814289270443,0.5994929312783759,0.5051096891369076,0.3924924772844882,0.27978163551766144,0.16707299813932774,0.058201153817635465,0.007568530211694124,0.0,0.0003952859262090769,0.010720557778060247,0.05427028840414305,0.16243848906603642,0.27514605448142326,0.38785689624825004,0.5004850862024197,0.594528766181389,0.6067909628228252,0.5827156313751187,0.6046865894750617,0.6214101746292409,0.6428689364282141,0.6796276085614226,0.707331844369028,0.7196276209938803,0.7425576517405901,0.7429874895049586,0.7534850325710405,0.7667346798216963,0.7436350927665778,0.7429424812023155,0.7425213612046706,0.7144276535535923,0.6812437827187798,0.7215351443270199,0.7778745731016388,0.8285772199684027,0.8121331199283572,0.774637653310208,0.7277033849791703,0.710650473358343,0.7562666535205391,0.8058904452679849,0.8104857144435291,0.8036559465606343,0.7320094906315555,0.6448016195449702,0.5330286966195334,0.42811713419321595,0.34045628366437075,0.23421351105773525,0.147869140670422,0.048305030854347564,0.0030873470718812968,2.7870834794718746e-05,0.021959281974189615,0.12318931662787325,0.22435710328901148,0.31521192961400946,0.42759033497227694,0.5394816370988416,0.6278105801335832,0.7313642794921122,0.8034991015738111,0.7697493552292611,0.7435158104274775,0.7437598054796535,0.7570438174001666,0.7434864508855332,0.7407139166954133,0.7148896845475718,0.7369412068263639,0.7344742543414027,0.7117147438689013,0.7492391462481613,0.8070935539991435,0.8313341336162701,0.7882103522755521,0.768119912525739,0.7502899385779855,0.7753311431712051,0.7776144406224326,0.8090210771780617,0.8273257502998561,0.8019192525039314,0.7842476727490162,0.8097740475660942,0.834633536035077,0.8701770270701719,0.8777945110749243,0.8585893246723613,0.8513368208645931,0.8898223381473205,0.9329328354940953,0.9080083825765239,0.865097659934051,0.8655841199933407,0.8433982910472775,0.8061378396242942,0.7910197982292502,0.8288607818971307,0.8727036413096894,0.8780336213809061,0.8732083359840983,0.8228707802904429,0.7455504406065616,0.6377848221788485,0.5321747802213199,0.4450942158680009,0.33452007275589235,0.24868902356597467,0.1834549074961389,0.18866592354550704,0.26267816817097955,0.30936300881837475,0.3730441795168886,0.4690502446308402,0.581624177816483,0.6938996946595823,0.7860576840932181,0.8792330738470557,0.8880075150503695,0.8887045032706817,0.8902147602551853,0.8530334540243558,0.8010954254143456,0.7984927934904364,0.7804128902307337,0.7960800618769985,0.781150113441833,0.7713540757281683,0.7558108070474407,0.7554982807300936,0.7614706530481259,0.7961679563571691,0.781005327712986,0.7611960331525189,0.7162306578623516,0.7105666939365642,0.7391950081211975,0.7820026052425568,0.7772579258251158,0.7459754546490789,0.7429442203489174,0.7429436269537737,0.7456779647810494,0.7705817409999005,0.7360912904219541,0.7125903236616926,0.7505835199603572,0.7547407803813515,0.7520028902798872,0.7801464836068872,0.8312344296083927,0.8978080926878826,0.8610193573723262,0.8404571814079507,0.7982158795292076,0.777934769247997,0.819432833848488,0.8719480261613253,0.8780310088574144,0.8731395133363185,0.8048278748778248,0.7190312052450931,0.629639138519841,0.5286743248111287,0.4349185035495653,0.340913963525173,0.2569309095288679,0.18504245358741844,0.19163612879379244,0.23804661614105793,0.28495928782964963,0.38621763074408566,0.4794916016805031,0.57823551727357,0.6905452745673486,0.7830026985184064,0.8406802445142745,0.8446183910537934,0.8625444538861409,0.8469478635718506,0.8131654204891854,0.7854164714732761,0.7980212942982439,0.7876015018541063,0.8024083996107114,0.7906174033078015,0.7876001124026324,0.7972367868734853,0.8283652927251888,0.8748007064476484,0.8501631057909282,0.8152651532593396,0.7974066371860431,0.777209594894539,0.7901862704762195,0.8102782429007185,0.8212029770865987,0.8585432194903104,0.903320548564742,0.885449414252423,0.8791040285704081,0.891392502142196,0.8892424422037228,0.911447610420911,0.9116512304436633,0.894650411382865,0.8933290916362546,0.9490463171339361,1.0,0.9695785494492544,0.9224019951862976,0.9119375103120575,0.9259907693293288,0.9318515008141048,0.9336827430804933,0.9423053951680425,0.8939922547844343,0.8092718458030994,0.7125655260898638,0.6141356590535816,0.5206671595899568,0.4189648529502721,0.3288960249444157,0.23463917325507921,0.15248694583768518,0.1190219829705983,0.056235356253649726,0.056083522281112685,0.13916188067707225,0.2366990482317135,0.3493140090525486,0.4592316426489811,0.5448074991129142,0.653649791143657,0.7568027751962347,0.8163524350311162,PM
0.9970663639927649,0.9667608699271951,0.9336924058536019,0.9005872484579857,0.8660274003662879,0.8275222232076801,0.7973594748274387,0.7686914643925274,0.7459295275007299,0.733272917912383,0.7192046212466062,0.7253668032542094,0.7268975056953543,0.7337339954595291,0.737288312256125,0.7425031223987991,0.7367037061232854,0.7362667590013224,0.7307755994167818,0.722134197985833,0.7168640205118294,0.7124740320247934,0.7160087729022723,0.7295730554621013,0.7327207425670018,0.7310425488781124,0.7266579487752135,0.714248120905583,0.7153318320312586,0.7118560313093999,0.6944028724412746,0.6536098426347295,0.6153085158294168,0.5750031728714328,0.5309296521617574,0.48820487162203674,0.4516832409536299,0.4083723716683775,0.3642639757857876,0.3201549660070483,0.2761272188732681,0.2371004358240819,0.19754231944718248,0.15349112280310628,0.10938211302436707,0.06543435123079688,0.027848093696380416,0.0,0.0062318257376436925,0.04386181717668647,0.08792160435703933,0.13203061413577877,0.17613962391451798,0.2202486336932571,0.26435764347199664,0.3084508636440281,0.34928227730859496,0.3870858605891593,0.43102148667593865,0.47513049645467775,0.5192382243727521,0.5622648791150048,0.5987152745192809,0.6417948964639347,0.6858475494058319,0.7254707413564071,0.7636791300764848,0.7949063479767308,0.79090261284501,0.7779779331465143,0.7830915594586713,0.7853645508334511,0.7918555356000306,0.8038733129574932,0.816273868027055,0.8256685274065517,0.8423246893608326,0.8720417934589338,0.8988896977712649,0.9252646536228056,0.9497501185931888,0.9677002540394272,0.947524921375544,0.917513671771199,0.8879408298808412,0.8536370583581424,0.8183923725630317,0.7875938508367685,0.7611078886536066,0.7373804236228433,0.7139128512434002,0.7071125870250549,0.7068698236420922,0.7011723834821434,0.7097849989780484,0.7174037541603014,0.7249726576845777,0.7221515650217446,0.7234528167180184,0.7265832829730648,0.7263687750879221,0.72159005559168,0.7242452435637367,0.7230212000059763,0.7265739853205898,0.728545037161569,0.7431318436233191,0.7505495343487275,0.7422802062990871,0.731996385728224,0.7122850855212787,0.7142923658579797,0.7093432362969302,0.7044517826033821,0.6667639807630831,0.6232232398838081,0.5865237301465217,0.5442217996838946,0.500119313869109,0.4575515376711846,0.42097077428018104,0.37756150882572836,0.33345281691341044,0.2893495117597785,0.2476912309579108,0.21056485383197499,0.16678889230154803,0.1228588638530479,0.08567259319280196,0.06484195920328217,0.0860674074659159,0.12338765384722761,0.16732548642615075,0.2114313364596564,0.2538042633344494,0.2904565725300027,0.3339895682609423,0.37809833940883253,0.4221505426044766,0.46174142022072406,0.5007366419711378,0.5447621826127741,0.5888711923915143,0.6329802021702536,0.6770890957407406,0.7207233801961158,0.7575952381873458,0.7948357719069122,0.8016662406133196,0.7949434479572138,0.7898879467016054,0.795050952263847,0.7997938801310575,0.8021960244301619,0.8225031186255506,0.8336040368725987,0.8525118538462843,0.8736496446483958,0.8955674095203997,0.9257685565494621,0.9522704936874072,0.9747118088461256,0.9728298264218732,0.9450462928097049,0.9079624709341269,0.8768327479882086,0.8439111026788569,0.8123120964691121,0.7823916614321244,0.7530130232402371,0.7326500396653185,0.7186438714528848,0.704694537432703,0.7049806580254702,0.7113411440448364,0.7101406258252702,0.7149297975247689,0.7256956210577535,0.7312520804160633,0.736294910208387,0.7355144865183266,0.7286642296259173,0.7310341147547746,0.7273982174788235,0.727987987204984,0.7181490350548746,0.7214072270452004,0.7217560195653888,0.7384919149216472,0.7487694609429777,0.7502014504766318,0.7464720691625965,0.7295117763272981,0.7211027724607729,0.7216159370193506,0.7235311708601838,0.6945995299125435,0.650761760280265,0.6066740526122648,0.5659223760037325,0.5280100872191295,0.4841146825604844,0.44446154270675964,0.4143259787305499,0.3739414801233937,0.33667973011810093,0.2928693962579595,0.24876045235127797,0.20467716313543793,0.16421169742027608,0.12604119451137186,0.0823453281105313,0.04680791107111415,0.037492197280782014,0.06730666964878773,0.10531631986612833,0.14927566574345286,0.19337953661899132,0.23555468777417932,0.27233848419313256,0.31593965063446106,0.36004851872613364,0.40415752850487274,0.44811230346294606,0.4863654782028325,0.5267394731024485,0.5708212356146593,0.6143745617414326,0.6511224941358743,0.6933725343452456,0.7347443413539464,0.7640039589373228,0.7963728757830674,0.8002789600607593,0.7934708657088806,0.7874760965732085,0.7953362346123892,0.8043008942476969,0.8153156299406022,0.8300248803795901,0.8479353332910841,0.8715043800274872,0.8900544469712454,0.9128489308748272,0.9466783895054124,0.976184185954892,0.9991647967712792,1.0,0.9730236836305025,0.9416421497906103,0.9033701961219708,0.8682794602612381,0.8339801220258513,0.8013646587470141,0.7748770198374132,PM
0.07912366477409405,0.07036331433352805,0.05109703300521273,0.03730529322428611,0.036988684634192914,0.042401770438253994,0.05744349564341844,0.060947338879572044,0.08876445742231542,0.08642213098902474,0.06768604267765088,0.09239485470113973,0.12054734702991743,0.14807991364500817,0.18840803864763567,0.22431822041381455,0.2265662903485346,0.20904439961995624,0.1727132920038179,0.1353771463299167,0.0930719760788179,0.061918048909906265,0.05269592343996443,0.037429334432314665,0.029785185192987562,0.025279213389036048,0.048454590317804414,0.0475157818918337,0.08656181931287454,0.1281459943745027,0.18116459460171752,0.24996869385600373,0.3117742078108967,0.38864293150981677,0.46185225322803714,0.5238285099599573,0.6002890663202565,0.663056033109032,0.7315238620122395,0.7715320878922025,0.753145794297561,0.691026895329804,0.6237719679999736,0.5461032665392556,0.47032483581154994,0.4095797393052272,0.3340080258712135,0.2562842119708608,0.18262766194130275,0.12103358533589592,0.0473128380408907,0.03235705304182401,0.0585646959412065,0.08777111265596327,0.11896833738338541,0.1403365567629864,0.17111598857975974,0.17415063232018113,0.14958559432014162,0.1417632339269983,0.1163279645454316,0.09687746742533054,0.07963783264764146,0.0711425381737163,0.0643283794709868,0.05982239861172145,0.0767942975804714,0.09193493282167653,0.10062779320026882,0.11489361935973141,0.12420446544731645,0.15407148086032807,0.1918003551177736,0.2219357985413417,0.2600081287565401,0.287831832096737,0.27855178418834337,0.23352516418433122,0.1925008850310106,0.1504880764484291,0.1187017564839099,0.0987625710113571,0.07043278851934431,0.048624699383400305,0.01903962565084738,0.0,0.009668198638205894,0.03686863598436929,0.05692191324444451,0.0981016074662664,0.1572504635256453,0.2133140427425957,0.2858191256685192,0.3467131261343921,0.42292018193786474,0.5005188593122831,0.5668632295969624,0.6351069551861723,0.7096073435178614,0.7705915208507532,0.8305370319616694,0.8222536408912751,0.7660241453184327,0.6950865856046065,0.6174498353387166,0.548256884392234,0.48281560267384993,0.4052869493857334,0.32865126850649196,0.2674903694742121,0.19327593601299986,0.12462503568700933,0.0616884233039654,0.014857516255594838,0.035778934285542796,0.06790528564873899,0.08478788202696119,0.1204127546624485,0.14701927962408012,0.16337294193437524,0.1755633504210916,0.15805213568444376,0.14209156322506766,0.12176203009321229,0.09992257545624339,0.08298430078481944,0.07875842141258316,0.0650449184509223,0.07405103358678211,0.08782910007929434,0.10013469709733114,0.10068536340482703,0.11486157757422877,0.12908392883407638,0.16078452506002128,0.2012983315613548,0.23620985523887228,0.269335177720492,0.2922819943678583,0.29920716058520735,0.26064987182873756,0.21576745247965023,0.17501117357412577,0.12555451962149444,0.08670638479561976,0.06087489742102914,0.07443224621496203,0.06110049379889482,0.04226295586313711,0.049994580674414646,0.07321912310426848,0.06816610412500479,0.11182160175802558,0.17366736443034014,0.23395074889488798,0.29644886884483324,0.36604966171737097,0.43450542266294434,0.5005632861623774,0.5781359033137674,0.6514445187289564,0.7133409446233436,0.790233185131223,0.8676618040103383,0.9318413695092582,0.9876730420825446,1.0,0.9553796289534287,0.8964172183073957,0.8210271206645672,0.7437582460260366,0.6803051187997813,0.608913178526648,0.5312012888262085,0.4534669271993459,0.3757325655724806,0.29799872840761843,0.22157736006626028,0.16054937876785935,0.08649640197499586,0.03283808006101996,0.04723005380528145,0.059415251580238415,0.079279818213009,0.09902338040750758,0.10030902958483301,0.1004847276008789,0.11237733713156173,0.11455845332619896,0.09551165600777356,0.07971140997904325,0.07918527283489274,0.07380277542710578,0.058565740487098505,0.058460406690025835,0.07204021209769618,0.06419704201444709,0.06356416669397058,0.0729434506537876,0.07233829031198047,0.09766472170863727,0.129893471140063,0.16865351197781608,0.2036610904349292,0.23993477905701344,0.2476893834475864,0.22969939060106404,0.18675712369373976,0.14423530581352528,0.10397338937485623,0.06718440847419638,0.042350099934304275,0.0494025497716839,0.05095376537574259,0.03731708267091971,0.03943253106936506,0.06385170739974999,0.11588011775182894,0.16428085422002114,0.22277616239949438,0.2957748007512384,0.3734967118518293,0.44929496696607574,0.5101498308740058,0.5855914847564647,0.6632677974162329,0.7312914425047481,0.7978280214631104,0.8749619049490907,0.9357685211334061,0.9644242721261325,0.9417147231349805,0.8834945967647387,0.8068726671195616,0.7293304619700169,0.6642222289635367,0.5947373098710149,0.5170451910219565,0.43932650410487994,0.3673304632886625,0.3045061580590316,0.22805027470940376,0.1661139333962507,0.0928599918240427,0.02136466132478887,0.023755639763747283,0.051121478711416035,0.07410128540070327,0.07200041638337007,0.0792308723748385,0.09121665541993584,0.10022602456189755,0.10033201179861084,0.10715559048205447,0.13660030734105577,PM
0.5091346265274894,0.5117522804888064,0.48035822387566585,0.4746614567937182,0.48481372285223445,0.49819107071077795,0.4981979096048055,0.48509168556936855,0.47465281205755705,0.4760683122037448,0.4945826935367288,0.4851724166097977,0.4659508083680137,0.4369389684294509,0.4225488178650849,0.3645663856896326,0.2876765255182203,0.21061940757174646,0.1335622896252726,0.057058097081897685,0.00909969597209992,0.000293055043191881,0.0,0.00417726179047806,0.018543902809504687,0.08307525650465974,0.16008557297641435,0.2371426909228882,0.3141996861305527,0.38969428937349315,0.4261489551185731,0.4216799770200903,0.40803475205880124,0.45298504578374654,0.4515982683966553,0.4316768947559635,0.4272081527031286,0.4385742729920503,0.45705783414870194,0.47409347649052025,0.48396670155008614,0.486219108407107,0.4304413512119094,0.3730559442560386,0.34172303759867795,0.3447170360737304,0.383762675295364,0.44694268423040384,0.5037754985039187,0.5528673329853686,0.5947676554286159,0.6419518075478603,0.7159552110783083,0.7885450176806614,0.8473118958600256,0.9233956269486399,0.9952144784894035,0.9877729990256352,0.9195531466565061,0.8544629793821672,0.7890264698265801,0.7201455071139349,0.6684509988320921,0.6183043009879681,0.5785940849264315,0.5479846730765834,0.5188261419813109,0.4990111170468432,0.5149409769903182,0.52622575843264,0.5439483756632706,0.5276796001286765,0.5391368522364313,0.5633362114916736,0.554242765992873,0.5733929190797524,0.5935074586796003,0.6257107917406843,0.6648553228896503,0.6923038495053322,0.7307659459731282,0.7692735899033956,0.809108963132366,0.8523358375380132,0.8843471040093913,0.8918127496019261,0.846624700047494,0.7999952735639964,0.7485257919781585,0.6974968548817055,0.6532475213575042,0.5950204085636206,0.5507917318890923,0.5381370537805985,0.5025890509263662,0.4783394978357447,0.49845745012925,0.5056061783094559,0.4986123011179666,0.5112126828188499,0.5029668181090017,0.5167080387742904,0.5407687023853978,0.5347729849204041,0.5222214470491897,0.525278616850029,0.5284962683197589,0.5358199223612234,0.5401700257580297,0.5226353440927163,0.5269707903627401,0.5341099286484052,0.5222316312570974,0.5220386906970984,0.5134876615579747,0.511222839221793,0.5053015819381983,0.5137962925997015,0.5102896551241849,0.5177640289331085,0.5020419061055366,0.5204479474205499,0.5214743205061936,0.5044806802625237,0.49834459359810657,0.4966659624446992,0.48176140801302525,0.4933309364599978,0.4756747715103189,0.4586210224739369,0.4297074428495664,0.43361408075000796,0.46790507419601157,0.5058059705099267,0.5135891383419082,0.5046466605403195,0.509232516314333,0.4918195254365849,0.44787994822980215,0.38454279228335153,0.35777432096097783,0.38254951966065454,0.43793369111781466,0.500612030512448,0.5523229534104606,0.611485058019134,0.6696443161354773,0.7281303685846323,0.803750791348425,0.8645360431154678,0.934558625298056,1.0,0.979911972444631,0.9085046902051923,0.8467193595935729,0.7787037853988865,0.7205672179752742,0.6691237522611799,0.6176986261515318,0.5759682768148751,0.5533309092887082,0.565915963977806,0.5525644182250709,0.5648908385601419,0.5473332040268546,0.5544351677787356,0.5732996933901178,0.5937203243643236,0.6088705344048604,0.602732737117404,0.6206968740127619,0.645293458098207,0.6800496077266565,0.7101584542774577,0.7438201574957519,0.7955037351769265,0.829082622604643,0.8631640374283629,0.9102051548117327,0.92201880563087,0.8976547818298881,0.840330116854652,0.7849299861006402,0.7334331496994073,0.6819390310860949,0.6306076604398254,0.5888012458572098,0.5527990627013994,0.5168997759002432,0.5066947922651521,0.5148445630579008,0.5038107461970562,0.5168577436688824,0.49941717419551157,0.5017722920798531,0.5208517663394927,0.5210705015872521,0.5027742141524021,0.5079920142666752,0.5219087517105878,0.5220585926054113,0.5218950739225336,0.5074818671676447,0.4983741756633493,0.5002437851876858,0.5179948862721315,0.5013984820974886,0.49832942558199944,0.4983272338175482,0.49703627861018296,0.4777624872495716,0.4859278005534504,0.497297638421883,0.47928532786240696,0.4746614567937182,0.48583291948172436,0.49821032532916076,0.4931014734427821,0.47581713274946136,0.48407049105725,0.4566876115214402,0.431990630365791,0.4302403798848604,0.460607602384981,0.4804872756887457,0.49770082362979595,0.4920130090453556,0.4794268325177984,0.4825477056633698,0.42743266761417287,0.38391348455887364,0.3918080898045022,0.44165142801557034,0.4983571051114062,0.5455479861099888,0.5771678057928198,0.6271568195324417,0.6858716722821194,0.7534418666478411,0.8158020976423437,0.8926853334583607,0.9668594568551603,0.9748858445543807,0.9157774596232127,0.8806365519721453,0.8195675454146407,0.7429465443288414,0.6814278478462872,0.6299535199292761,0.5785406701797684,0.5333355488747586,0.5325162836128494,0.5456583475491894,0.5457899513932749,0.5457899513932749,PM
0.868432175738242,0.8659903926858168,0.8869660047269736,0.8959562771468383,0.8952715185180726,0.878133085471744,0.8686746086444508,0.8931922744660996,0.8839809058418826,0.887038928550941,0.9020584421570699,0.8961930511383911,0.8891845610506581,0.8448710281714313,0.7913928773674517,0.7687104337591117,0.7683440670518946,0.7634754604080451,0.7223495781940414,0.644973860343983,0.5659596282219788,0.48713989800338453,0.42620392994705947,0.41311486313907375,0.4131851012191885,0.4220207179147901,0.47105914523970727,0.5493529670405173,0.6283675589709312,0.7068938983117095,0.7572776200144267,0.7533947611760601,0.7586164415323071,0.8054575004886892,0.8598280041599575,0.9088622873744443,0.9068651939080601,0.9064233927445065,0.8877746210458315,0.8349536615121509,0.7709050784792719,0.7055831949796474,0.6417735903815167,0.5665864329786223,0.4998551707836092,0.42753034784289534,0.34905046869993717,0.28324564352887194,0.20983740177193866,0.13086847565131166,0.061022960931499615,0.05495420362128156,0.10845739677856336,0.18664463019254107,0.26089005921655417,0.3259743637844994,0.404366310571894,0.4831837095458211,0.551595840949159,0.6221070143190093,0.6941087385848741,0.7598693005877473,0.8221827456943176,0.8705217794130387,0.8938406423188536,0.9060310212999894,0.8814058086988372,0.8607950216918203,0.8808893003148532,0.888005241871638,0.8959252338652068,0.8960092095747343,0.8974271909048217,0.9242899508750924,0.932073797746281,0.9094383556522172,0.8739239087728747,0.866724525679027,0.8816266807051165,0.8954312609101391,0.8959210568941658,0.8870992297854379,0.879808598468848,0.8978216352456547,0.9141424862220746,0.9128924358612416,0.8978435111034693,0.9131034000381071,0.9221940049844437,0.9119177839989199,0.9009185676792377,0.8938182407918593,0.8598205057517805,0.829982748786473,0.833484854907363,0.8783074743035373,0.9260014660061513,0.9286186145874518,0.918626281937247,0.8988248773951453,0.8445331629815116,0.7789421710507858,0.7124985822563055,0.6401686711538237,0.5657614792520991,0.5007382510332832,0.4225063696065243,0.3490049037985954,0.28329902237631543,0.20480470060862555,0.13228620232604404,0.06601975694645335,0.004235907983050069,0.0,0.056965156780670156,0.1351995900183769,0.20359399711569504,0.2741666293840077,0.35310536137834214,0.4321200197506503,0.5111275835779674,0.5862672288098145,0.6505787700601204,0.7242580451447425,0.7885480656468467,0.8478499245041786,0.8893359484425654,0.9048572784755939,0.9028711136003222,0.8989056102322981,0.9118272047720959,0.9228515617660968,0.9344703664897116,0.9346827130892721,0.9363354157142054,0.9514017938834232,0.9423084761066423,0.9450182785611201,0.9339307672759216,0.9132632794757445,0.8968003927768944,0.9029210210291936,0.9094440909831447,0.8964864427960175,0.8960088783874482,0.8964173749377653,0.9094986008199717,0.9153471340691044,0.9205947502953586,0.9337073080634624,0.9214637948431759,0.9181075423046856,0.9209668116079399,0.8739335036913647,0.8551100882584484,0.8437109753680159,0.8816297740269756,0.9160316683917271,0.9323188209171134,0.9293448992231483,0.8774861310576374,0.8148304797065888,0.7518637429426138,0.6755654504084303,0.606130595013417,0.536637280942895,0.45775049434742865,0.3787358359751205,0.29972406467531787,0.2238450435154018,0.1599871983645329,0.09544538558769489,0.050793886288210466,0.030463482229127425,0.07964639963541709,0.151500380161953,0.21816700448576798,0.2968392207498973,0.3745682213193975,0.4382675160527083,0.5145489155648599,0.5930434678501442,0.6586976331206458,0.7321111478406568,0.801088120558521,0.8683378231826153,0.9245257899346067,0.953577989325054,0.9675407552971178,0.9502923085765169,0.9481057631648078,0.9670263592620154,0.9664709266570548,0.9596210650012993,0.986738475261987,0.994918881258398,1.0,0.9755842174098777,0.9539859871909533,0.9188840033997332,0.8821175784806643,0.8590268475247091,0.8641891614745534,0.8679334571838506,0.8700744634847153,0.8606618081481248,0.8573323212130801,0.8531745157244663,0.8397465115464722,0.8558289514890909,0.8659377544013567,0.8692156787792609,0.8709329076816426,0.8648519067844855,0.8642145008414772,0.8607368307476744,0.8695458627738786,0.843321056863152,0.8036061192565862,0.8122959333932966,0.8505100991863395,0.8930957101651047,0.9042579566382658,0.8993544397880857,0.8969855717995237,0.8413843078783785,0.7750660436056402,0.7050354542677524,0.6409834759268906,0.5667175954938726,0.502728105190303,0.42665686860865604,0.3495019004682103,0.28567741726442364,0.2089504073786297,0.13062861966278572,0.06608163217040142,0.006088221104987301,0.0024311290027174692,0.07157114082011251,0.1505638184013769,0.22887756996972364,0.29406628987422945,0.36828373564003014,0.44631679862669094,0.5108228653277336,0.5859352088081757,0.6574485681813576,0.724542062031722,0.7905338192980911,0.8497114347490049,0.8796637165045018,0.9080667152800679,0.9012329303971742,0.9057825276944427,PM
0.7754445599935362,0.7960266960258453,0.763049610124261,0.7185883266001873,0.6877705606562463,0.6945617608888455,0.7325902364696395,0.742956120831681,0.7429814851287899,0.7429814851287899,0.7429814851287899,0.7429166868591679,0.7254741387769448,0.6657861518650909,0.6576730966409245,0.6686545196648446,0.6243256909359474,0.5515849546647678,0.5259361518388648,0.5256339405968031,0.5177738093496878,0.4741835926021416,0.3872776999135743,0.2981844082541052,0.20909051152561542,0.1199983291593485,0.03611857434036647,0.004988770475367943,0.0,0.00020286411144621042,0.007868614000979601,0.03310280874323546,0.11496365550813525,0.20404746076739855,0.2931413574958883,0.38223495168986776,0.4697159955961192,0.5083015291392012,0.4475700831106577,0.37269309435242093,0.29801521515650986,0.20909656221581496,0.12934561134408096,0.11962297575929792,0.17881305394953095,0.2454995761600145,0.32648610670616574,0.39255044981608744,0.4553367704503861,0.5148306394603326,0.5743241050909313,0.6368180767728955,0.6853605023611458,0.7086062403406741,0.71440016370543,0.7144041974988964,0.7144041974988964,0.7144041974988964,0.7144057101714454,0.7177962611219773,0.7459073175302864,0.7849101198927535,0.8294797952470381,0.8740147560734775,0.9182335524128327,0.9512175726835972,0.9645477259392683,0.925104937142331,0.8691551527012988,0.8219286184752308,0.7773974202392919,0.7444610291284208,0.7204530828248661,0.690815925429904,0.6624567023768009,0.6572567196496628,0.6572496222391111,0.6572496222391111,0.6572500256184579,0.6588122749914973,0.6829836605208941,0.7185844944963948,0.7604854664828311,0.7648984624244513,0.7267749579937837,0.70433925262095,0.6606246328907632,0.6630961184641864,0.6999617478328926,0.7143233126571369,0.7132786246648024,0.6910215095478129,0.6858340072795555,0.6858200524201115,0.6767860615454735,0.6383699705606505,0.6302009051509954,0.6349780867968446,0.5738032405649154,0.4997068147790227,0.41081254185427074,0.32171864512578097,0.23287631470833148,0.1628304913286982,0.10680420132154822,0.0928854831637489,0.1375385625037442,0.1909854043612702,0.24741889295223363,0.3139551178661364,0.3754518309532324,0.4391766889078488,0.5201525323185603,0.5317749150794615,0.5165798036286526,0.541097724352908,0.5681374405338158,0.5715165492113927,0.5720521209207501,0.5929144296843374,0.6000991886031892,0.6059403330663597,0.6430882128205058,0.6812895135071262,0.7336029824166683,0.7804986443478121,0.8366939993460178,0.8815695389134204,0.9169166855224251,0.9188509812186041,0.8642807435949518,0.8176279349158735,0.7648640822066444,0.7274034309139488,0.6893214345437642,0.6595328638952216,0.6316465218421063,0.609800474392685,0.5967507577126394,0.572968673745196,0.5502614752033042,0.5604825434344409,0.5714738882041068,0.5720232028871557,0.5959591139110039,0.627165744178594,0.6187509830726983,0.5893617976041803,0.5596112342832278,0.5454278415561999,0.5681394574305489,0.5715559449119194,0.5821251102820941,0.597944492962581,0.5745482432987883,0.5855163806021411,0.5999928316339238,0.5953340849236772,0.5734631243666009,0.5933865517439516,0.6445541848214731,0.6051896701437078,0.5167419720739241,0.43750019143951846,0.36747726175131756,0.3170227610591221,0.33351479951094554,0.3772622688513598,0.42184659165673377,0.4696091009715042,0.5496079928363047,0.6124504515551275,0.6513337665426961,0.6572455884456447,0.6572496222391111,0.6572496222391111,0.6572496222391111,0.6572496222391111,0.6572970925121311,0.6694907322178212,0.6910639540624528,0.7294264880473609,0.768893861270028,0.8152555276625746,0.8630729315247647,0.9047223049679136,0.9056859066445355,0.8590373845910984,0.8222821828071796,0.7894834604463998,0.7504582675441087,0.7214226637370764,0.7089697688820751,0.6870565390837342,0.6856814527481605,0.668872828053722,0.6766927380165884,0.659969890631193,0.6572685950395245,0.6645393882580404,0.7023401341191411,0.7350175431897696,0.7623478959603585,0.7421430530960524,0.7094981448077524,0.6770121409800565,0.6578623890137738,0.6741480656470431,0.7051470535800313,0.6877687453168893,0.7045271204870494,0.7144209204264786,0.7254626110360469,0.7428429237288254,0.7481322136622737,0.7586267526601977,0.7055547279093277,0.6671558609164627,0.6793055489243516,0.634538451958413,0.5503389943480803,0.46935713128111534,0.4002529401788095,0.3116856681787832,0.23502995111651437,0.2022797319386047,0.22831539562394898,0.2946153668074407,0.37385402125191014,0.45948624682196204,0.512674740919044,0.5787202403595835,0.629451603103167,0.6790548800534486,0.7135565958563728,0.7144041974988964,0.7144056093266089,0.7176283375254364,0.7414189090331673,0.7429817876633003,0.7443778278020199,0.7682009576178981,0.8031933871132955,0.8363755053732485,0.8599467601397555,0.907005971613736,0.9734750831790828,1.0,0.9897842116212887,0.9473417876871393,0.890985925389292,0.8538341347314589,0.8155249736243162,0.7936494327015211,0.7558946747819251,PM
0.3049536306142917,0.22949719251971423,0.1665471896386963,0.0820821204891038,0.01751828441476544,0.06722235534066101,0.1551712876191642,0.24342256469345003,0.3316738560625794,0.4194284319042847,0.48519485333130863,0.5322241457780237,0.5917694708799708,0.6795415657388437,0.7589953525051287,0.802016486286667,0.8712832856578565,0.9392815658318403,1.0,0.9804769502409041,0.9348583213933503,0.8604271502213656,0.8017621093046161,0.7438458424874357,0.6679995477438716,0.6304832077522491,0.5924506252714172,0.5351633751237941,0.5067404420386028,0.5059794255736314,0.5070276178665125,0.5303038226045622,0.5092455787144576,0.5058194316877413,0.49057975306548585,0.48409360582512484,0.5128617115912446,0.5363464578144352,0.5371052162574843,0.5370982944151628,0.5314259465615834,0.50898242931122,0.5339699498382968,0.5215848927965236,0.5359724208561625,0.5299200679237357,0.5182096204425894,0.5360826732989628,0.5132099266205143,0.5123377280402508,0.5357723689539435,0.5192242124409132,0.5048134963394721,0.48098312174864244,0.47485412806187544,0.47485333708054434,0.47485333708054434,0.47488163219657675,0.48666876668976844,0.5154891301119902,0.5367986215036922,0.5368271600742549,0.5169053456217183,0.5060039416542619,0.5059996661981652,0.5158125571347929,0.5248197168804696,0.5243127883151573,0.5279543781996265,0.5064801368375695,0.4996570239916611,0.46056401169397354,0.41912156135406153,0.38752227633659775,0.343733831187496,0.30125980866046653,0.28799414115120126,0.2736952258706804,0.25701940747213037,0.25438889939326437,0.23422113201881878,0.26028971604786655,0.29854515949866034,0.30443370366378364,0.28814594311213604,0.28809749227450343,0.28891789498877873,0.3110398685434639,0.2927531889462234,0.2870407751808708,0.2504293796769339,0.19182139178164004,0.13103832426275908,0.05335319287955276,0.0,0.03093557911758893,0.09869738249587012,0.18666344730202233,0.2749147267587837,0.3631655225733441,0.44755963865734394,0.5106551248932893,0.5967940967865033,0.6850444375485534,0.7673133041600542,0.8316472062222706,0.9012349039517211,0.9051263568060106,0.8626947711866375,0.7809972611101808,0.7025128490546679,0.6435302126542473,0.5849610815365285,0.5424283182669258,0.5191457526547687,0.44985562023358305,0.4148573267638742,0.4133141229263666,0.43488906949732975,0.4179156198477658,0.41462739594243025,0.4408062107229078,0.44134738224449066,0.4165245239557782,0.44066642863053396,0.4728670490103202,0.48418497558625617,0.5067342419451579,0.530181887200996,0.4893341997555716,0.474880200113863,0.47485333708054434,0.47485333708054434,0.47485333708054434,0.47485333708054434,0.47485333708054434,0.47485333708054434,0.47485326560632846,0.4740651168836507,0.4508852951368114,0.45015846298659135,0.47354627938068106,0.4568557246664957,0.45555684048260403,0.474596656235553,0.47485333708054434,0.47485333708054434,0.47485333708054434,0.47485333708054434,0.47528997782371096,0.49631187199096605,0.5028392631900669,0.49483261687884283,0.511423940090344,0.540186957159535,0.566832131096092,0.5900755968364866,0.6194457055153189,0.6195678413221817,0.5770439249509911,0.5330047316224382,0.49007754319986496,0.4595856475878586,0.41947781583193144,0.40192103417002123,0.38179208215524074,0.3814672923394973,0.37510278990387125,0.3615162628102526,0.38118303679458965,0.38152384883783874,0.39805402809662027,0.4106741989167402,0.38985040230710144,0.410430581820977,0.41204848859734344,0.3906480693463843,0.40750621590698,0.39349578620443015,0.35788781679708404,0.2989586316087829,0.21632393352796164,0.1280866898700994,0.05279073927268296,0.08447939025728957,0.1712836542642533,0.25953483365710817,0.347786029727283,0.43501290665150094,0.4978206157255345,0.5814193996419741,0.6696653163684188,0.7575639482801986,0.8254139302170511,0.8961835844368622,0.937098429402405,0.9332196772829242,0.8986017011744414,0.8476701521555183,0.779495221522458,0.7199227648242488,0.668877665531598,0.6123532785834795,0.5640181922470466,0.5064745526393652,0.4757705570379889,0.4748531464826353,0.47247598332617624,0.446925387835722,0.4437207817976505,0.4380476906122164,0.41277669531035066,0.3898512123482236,0.4146379297385696,0.4425812738326247,0.4437272628823017,0.4436099005491876,0.43004980570784124,0.41265350432615033,0.4126461749728412,0.42831050371073776,0.44339605614972566,0.42787567821145966,0.41264434263451477,0.41260138881186403,0.41260138881186403,0.41260138881186403,0.41260138881186403,0.41260138881186403,0.4128580696568571,0.4325304502630285,0.4436741552174839,0.4437279347399379,0.4481713857416194,0.47297626611278876,0.4748649815258812,0.4828362990624573,0.5232591187031526,0.5166607327312063,0.5060037787799105,0.5094914778449837,0.5449020285999868,0.567931551595132,0.5682187517165573,0.5590776461456963,0.5358639086857879,0.5031791518534634,0.4494912098050605,0.4194294927817621,0.40163222599087955,0.3611573169284572,0.3501833821713305,0.3337952339645849,0.3296096334087446,0.3500557287460033,PM
0.6931269179575548,0.679224090000317,0.7051744815378402,0.7324820128756482,0.7679837645039145,0.7865847566020694,0.7867647705771112,0.786764577407844,0.7847088174712358,0.7602158650733273,0.7576172544445683,0.7576146784814757,0.7546750119466434,0.7312304068667483,0.7501030960685293,0.7594750943990958,0.7844046269452676,0.8109372520199063,0.8190916692130417,0.8434164809376732,0.8450642648781406,0.8450471921709815,0.8356110950103615,0.818866186903068,0.8430455870620133,0.8313061457508226,0.8160777972216104,0.815914597754893,0.815914597754893,0.815914597754893,0.8153893963006649,0.7838590104847549,0.7368370338982064,0.702859295916352,0.7183636007414496,0.7448084672392135,0.7575871230778457,0.7576149433993278,0.7576149433993278,0.7576150179074741,0.7588259612477621,0.7813109619673293,0.7895395235852156,0.8427056810376845,0.8753547858646415,0.9053547186726263,0.9531391827860158,0.9104881808793381,0.829659952072145,0.7611421830395653,0.6960450050597622,0.6149522597998267,0.5336756828453035,0.4530150932337378,0.39334708237259797,0.3189883882592266,0.23882313405216316,0.18167752628579148,0.11879787586773993,0.09005447326042226,0.12772186417987097,0.18672000987822468,0.25907161561358016,0.3166442547574224,0.38915107012223427,0.4473575047323539,0.5275967993281956,0.5816572828672477,0.6042905531881786,0.5893977807896027,0.6097188970934644,0.5863412266628245,0.5684063299067246,0.5537175627770701,0.5535573022113205,0.546747306269979,0.5243981283364176,0.5011122304527449,0.48425580930288525,0.47895190842926727,0.49518797473563403,0.4952665857254539,0.49672046772681977,0.5246749815507208,0.5561632392532374,0.5912461033559193,0.6304574325113208,0.6585363943098352,0.6941030046180581,0.6993148419948874,0.6993152890437626,0.6993152890437626,0.6993152890437626,0.6993151952186896,0.6984255024644819,0.6747005882894115,0.6875045769064059,0.6992905567605519,0.6993152890437626,0.6993152890437626,0.6993152890437626,0.6993152890437626,0.6993152890437626,0.6993152890437626,0.6993152890437626,0.6994902783549772,0.7153840997140941,0.7418871445611943,0.7602735259276283,0.7791847869229445,0.7582175406005893,0.7328228824546716,0.6995123001037049,0.6729686257348027,0.6790290942042079,0.7228642639523635,0.7566514734286391,0.7387017025804328,0.7498581181876007,0.756966735649657,0.735203047730681,0.7331874414522908,0.7567903953626596,0.7672609079534318,0.8062725235904873,0.8467789183441861,0.8777940394386325,0.913098761671419,0.9101408627013523,0.8475665703144459,0.7817945281823908,0.7006870456168341,0.6194109101920633,0.5432499131452069,0.4846641029486367,0.40473048356947405,0.323453988022,0.24217741106747503,0.1609011487029015,0.08317645891658998,0.028135930174438606,0.0003391015570857192,0.029563598004304303,0.08482605155059275,0.16284860528129297,0.23134141826426635,0.29616547310011576,0.3579443019093782,0.42963389303568356,0.4963438487464993,0.562649248556407,0.6203776906166514,0.6407240121657933,0.6410156346881974,0.6410156346881974,0.6410156346881974,0.6410156346881974,0.6404199287701502,0.618983274677074,0.6118735452347766,0.6118658088901938,0.6120761663551173,0.6294781721986196,0.6422014358871255,0.67705348165887,0.6994926712248812,0.7274864161071521,0.7755255727199062,0.8161439628650591,0.8442553445997811,0.8450643752605789,0.8450644249326755,0.8450644249326755,0.8450644249326755,0.8450644249326755,0.8450326342762731,0.831028763394329,0.8160719022993623,0.8159145039298199,0.8150248111756122,0.7912995327384955,0.7999398854388211,0.7884527364514398,0.7867648713010853,0.7867647705771112,0.7867647705771112,0.7867648299076713,0.7876853419308008,0.8097105616802782,0.8161373196094095,0.8343592944031624,0.8415590271155002,0.8156220884272187,0.7822592752376227,0.7582999365781822,0.7593823235678174,0.7975817149672348,0.815882861908281,0.815914597754893,0.815914597754893,0.815914597754893,0.8159179479514549,0.8193816617363003,0.8459231906814368,0.8815459174067497,0.9345871528101402,0.9657893460587372,1.0,0.9711284348685174,0.8906995793490156,0.8210750705147207,0.7570645928724824,0.6759954273015367,0.5947188503470127,0.5134425438294645,0.4351736708025413,0.37787737664816934,0.2987616751190716,0.21748613493773483,0.140101209902455,0.082276233435163,0.012163204587616328,0.0,0.02805784891119778,0.09028810355027073,0.15845713455633526,0.22868743652141799,0.29209366426113004,0.3730169643291461,0.4390649581917758,0.5059314655743465,0.5656581661071884,0.6310357696590518,0.6666695783441874,0.6754435199954525,0.6903202181901058,0.6705758398088317,0.6551583397989109,0.6411523070047984,0.6410045780030451,0.6335028683058521,0.6124431239157682,0.611865848903828,0.6119847950602697,0.6251757943225282,0.641264979014184,0.6611340290940024,0.6774651034853738,0.7044240345597679,0.7403743904278892,0.7678250504228501,0.7865037081701258,0.7867647705771112,0.7867647705771112,0.7867647705771112,PM
0.8111251082706081,0.8152527957208422,0.7710369952395375,0.7281475733738443,0.7543145405077176,0.7890947660202077,0.7930051811939087,0.7408443872990222,0.6573245767527531,0.5729340149568873,0.48575495016737147,0.40903004695294154,0.30702483978085127,0.22458780093698127,0.14550337504218547,0.06756957257586649,0.015294958588046192,0.0,0.002968281587526711,0.05465956274419348,0.16098627323322656,0.24225793909113857,0.31276869584360867,0.2711074406819929,0.18465324016386298,0.10163876652064108,0.07608973261084273,0.11363835565934188,0.054987935786351194,0.007124861882979339,0.0001441885888393557,0.025773048731450032,0.08636665035129276,0.17161981309545915,0.26095826835284885,0.36337726626562095,0.44841599104193364,0.526718765192137,0.6081131958857666,0.6814172561123923,0.7611698882020113,0.8110977711552945,0.8144143746261356,0.8068086943164481,0.8054184245845128,0.7662158197682221,0.7903492405114854,0.8193333928490549,0.8522724901363956,0.819303246751959,0.8202227490721787,0.8744770864029965,0.8989611894166236,0.9166814633998657,0.9065420821588024,0.9379254664275871,0.9549237178850163,0.9186279398922892,0.9220007303909865,0.9116272997252768,0.880188079703375,0.8428111277819657,0.8549217867398307,0.8305477208766856,0.8284974859705816,0.8030019063352167,0.8202565840764215,0.8455346899072778,0.8321804850966874,0.8007544232480965,0.8286872678588129,0.8571461868739023,0.8477587998247573,0.8212920938504134,0.8113627724998063,0.8094847701711023,0.7461257234119207,0.7554449193573909,0.8095402635497484,0.8142310760148153,0.7934854918872141,0.7661461285635021,0.7900417928072079,0.8177541435973446,0.7944251132756772,0.7530190885402792,0.7044316701174314,0.7253782761921519,0.7821983086427142,0.7968968215751033,0.8175852616658066,0.7687626941535823,0.6726568524960399,0.5835662056673634,0.47112059852866217,0.35800804150153187,0.24494940771010754,0.14583318910615528,0.07181522634070703,0.03997586239733231,0.09075998181310752,0.17674321754677802,0.274216312842241,0.3734858099963141,0.4473431246176327,0.5155505401924101,0.6108859312994159,0.6950551513200995,0.7514286941668722,0.8048670221130285,0.8508709409383552,0.82224961534539,0.7983501247083487,0.8370013923822848,0.8888274841421087,0.8992440113956368,0.9183764673985761,0.9128443003004572,0.8701450110130562,0.9081987446501341,0.907575577815285,0.923395648263762,0.9595860982204938,0.9685504525588247,0.9895968642750494,1.0,0.9488839056154648,0.9334134342566731,0.905309049720942,0.8362876942446364,0.8560377367864325,0.8381660841075984,0.8298047369296331,0.8299847986651878,0.8479135805138238,0.8648868914655399,0.886334977526551,0.8681274117133952,0.8493881618022066,0.8301653630899661,0.8432734270435942,0.8409282028851921,0.8483194912511083,0.8358730482692911,0.8292530607264581,0.8004109566378279,0.7635156776472618,0.7846310219940467,0.7951043526272388,0.7747971165252894,0.7206937848390389,0.6970806198665622,0.7469198247458859,0.7680153861327463,0.7764326654713871,0.8236674777868771,0.7597533163355061,0.6748795168436414,0.5835559122635523,0.4852771502089075,0.3734866117302129,0.28639381756402926,0.18299325065809846,0.10348888795281574,0.07927677750110274,0.141573124236964,0.24948551809226593,0.3363855639262727,0.44165951788032487,0.5310597070312886,0.6020510233893654,0.6710901476101965,0.7459086703674487,0.7931788618405555,0.809725437456918,0.7984769176562798,0.8368198556126556,0.8329522764008201,0.7983045673973219,0.8442191753717898,0.8459475667220104,0.8556869549922475,0.8643987694933299,0.874883706232775,0.8984755631907557,0.9052479519348893,0.9172739993161496,0.9112214345625533,0.957946021850387,0.9446756070292412,0.9335874329838578,0.9314566714979966,0.8926746891776167,0.8599783162192409,0.8252035343116093,0.8089350576969787,0.8070382907472098,0.7978053563877125,0.8259421131877307,0.8448443885831223,0.8072480224281398,0.789072502973978,0.7631127424689694,0.7975607279723738,0.7983422529423878,0.7952028436880836,0.7952005284634076,0.7952005284634076,0.7952029730018983,0.7986632801990448,0.8246694853634953,0.7989635605540384,0.7891923188877277,0.7624549803192107,0.7757609969981365,0.809130904643732,0.8053104755322078,0.809589035930304,0.7588687867276933,0.674640500285415,0.5733228728728132,0.487889109255061,0.3838945857129872,0.2985994806946044,0.18858280515010506,0.09668411315297121,0.02605663665645075,0.02325562894466593,0.08213319010533127,0.18306803817050898,0.2961622365350518,0.40865187637249534,0.49398960865990293,0.5526707777442814,0.6362874230614208,0.712456424339508,0.7716889983405055,0.7949600005569364,0.7980852490140844,0.8178442094695342,0.8105644267889183,0.8296066587499933,0.8400437899744873,0.8764477980772849,0.8986775158935671,0.8922080074747516,0.8392112729041337,0.8477821081476558,0.9149592230834172,0.9606159257461959,0.9401190289151593,0.9335450594515597,0.9334220172058103,0.9177980851552769,0.9223629295930857,PM
0.01312604983914234,0.0,0.010809748370708583,0.07651942540447454,0.1636463238974475,0.26871625227284657,0.3457290378535438,0.38595317455451195,0.45287572482330596,0.5411763538009176,0.6466079269016989,0.7520692840595649,0.8469481970283788,0.9260030653429974,1.0,0.9383989046251333,0.8560775188371021,0.771980830874667,0.7137090127481214,0.6615021243979484,0.6369640250752973,0.6274302948257553,0.6000293424516467,0.598388411121582,0.5704927909934829,0.5617834256982723,0.5615796518190646,0.5391315951113009,0.5244161044063169,0.5263392390750141,0.5518342297656549,0.5270582596899986,0.5243318287271554,0.5365785860053762,0.5846419566302758,0.5790133057326967,0.5272037394240536,0.5392642933043792,0.5393722406189694,0.5244248984767799,0.5190802552561768,0.4892773887490609,0.5082043188181808,0.5603281927375727,0.5545890147276848,0.5347847081367858,0.5328794346052703,0.5239790405920592,0.5000084719082913,0.4858225939627818,0.45620294621674695,0.4794299506376962,0.5234210019450067,0.5243765116927399,0.5376324196050772,0.5604809628208134,0.5263516688256198,0.48843988507295766,0.4489452403039529,0.4123263489510798,0.4270310072892327,0.4952713665884607,0.5553649904841382,0.5315622864655838,0.4941577865504909,0.4988068465967359,0.45546430265216564,0.4262105443200479,0.34932886173910926,0.33803584773602235,0.3834714773772241,0.4848695935301537,0.5593844724993664,0.6405823425818458,0.7292079512133274,0.8345893033639182,0.9149313660893412,0.8623518261511194,0.8198282868995088,0.7433315470762958,0.6519360295908179,0.6366593449374003,0.616116690342877,0.6090883242685727,0.6359652836517036,0.6421965853399012,0.6487218645960784,0.6396442820193071,0.6515850472049314,0.6318801912566778,0.6016069765414436,0.59923267392087,0.5992467810554238,0.610580583533034,0.6361522718047503,0.6441801229937179,0.6731691242357352,0.6740601361218399,0.6528015100484659,0.6368247951182529,0.6366921400033716,0.636696666044994,0.6411413209188037,0.6723462737635737,0.6741092123086778,0.6571439536826986,0.6364321516076306,0.6111529733522909,0.6130682626850881,0.6364197921770653,0.6307268099900671,0.6012242582657095,0.6003774973449074,0.6285883087243835,0.6366989637377367,0.647423928986365,0.6517361479231596,0.5836826741503351,0.5021291711445661,0.47836405744689703,0.4506773557347712,0.4819162065207818,0.5235419294384496,0.5239767063165788,0.498337748556847,0.42364511667196414,0.3450651180024762,0.33140777236372454,0.27496760569366696,0.26292216364626597,0.3068170578280558,0.4105387857827978,0.5139404715224769,0.5897885622803578,0.689503520030474,0.7949774739010564,0.9001318255335455,0.9625403606063188,0.8884935493798478,0.7836220080006324,0.7047038285085696,0.673612465541992,0.6360571290645227,0.6028893018930326,0.616535831408557,0.5995304327530526,0.5991755927706226,0.5783516846269672,0.5611184076681113,0.533450590985705,0.5300110535154507,0.5362011910592184,0.5370277039072677,0.560481013124285,0.5274775246481616,0.4906780181975483,0.5336955995794428,0.5903455520238969,0.6237941478175566,0.6067064183516475,0.6069346306889436,0.6357186490984317,0.6272551760155656,0.6028648167469761,0.6141849342710426,0.6012224505660733,0.6169519406820134,0.6041959689657244,0.6267535199498964,0.6003075551135248,0.5991994871045385,0.5848396415178234,0.5789355200241122,0.5991746804371276,0.591744022435547,0.5654545900187724,0.5940289350833057,0.5992319268357189,0.5992325006096904,0.5992317664934044,0.5925342207993944,0.558121678265894,0.5079997341364182,0.42695233469506455,0.41526925307559903,0.4616040344227157,0.5528040406103489,0.5984845920129231,0.5960642045332998,0.5550832925435145,0.5170865941042821,0.4623205583466108,0.39741929535636,0.3762053572111981,0.4212843049508219,0.4913586601244644,0.5612960097947495,0.6333640363859541,0.7345954154796948,0.8328878159269166,0.8356797635399902,0.7826362128383639,0.7125020533563662,0.6471729623929434,0.6198579632623744,0.565104089307864,0.5737662078025121,0.5673251321528188,0.5710742577032875,0.5979412200040048,0.5734494632825884,0.5617876096941394,0.5620762211948342,0.5791936136085969,0.563687326806507,0.5629686076657361,0.5955718337189664,0.6347929887432384,0.6366920672991352,0.638629272039485,0.6541932860863326,0.6508575554760618,0.638823618418404,0.6073332215300757,0.626768715200761,0.6091317670209353,0.6232704093468548,0.6036090632387046,0.6345930032132356,0.6302285623325306,0.6009971720907874,0.5855747707996164,0.5669344507658467,0.5893083312577785,0.5742166451954569,0.5811030986408356,0.5621496998780566,0.5789250232968719,0.5898572783605971,0.5628704632353054,0.5879409426273092,0.6156025610309213,0.6059907925888579,0.6353933337219635,0.6057711309219398,0.5619879554828495,0.5094870242355292,0.437395626985996,0.4131784289741871,0.44467793074789075,0.522845022848184,0.5839051218218447,0.5707076962700981,0.5581018107018778,0.5034086989357247,PM
0.802302685495921,0.8061595110831177,0.8343484449188789,0.8449760479072626,0.8357577938992615,0.8436639277081173,0.8347111407108443,0.8126963689779645,0.7634990365792964,0.7050507639954389,0.6508604997065963,0.5935541430623812,0.5650901769313554,0.5945462193204123,0.5697854090527974,0.5194449556363687,0.4989542334940391,0.4726296509236121,0.4204740267327214,0.36296650536941333,0.29986795737858873,0.23672067179224343,0.17357338620589813,0.11046468596243275,0.05388742789862633,0.025916412385523335,0.055082481235951386,0.1055722900364644,0.16489763950727987,0.228032241311388,0.2911712651070344,0.35137057517381476,0.40366169627524395,0.46273924790384124,0.4934763683573624,0.5082779595415836,0.5544505474944352,0.6173646207310663,0.6796667035054234,0.7242990709803006,0.7557677111118508,0.7525936572508161,0.7561738975881562,0.7646451711581528,0.777484922407385,0.8247372955437435,0.8611865239770493,0.9148485494913485,0.9547478207184725,0.9463455199547361,0.9332650223654562,0.9325656440846886,0.9262030294600558,0.9163517014668172,0.9105231183481903,0.9105250258674773,0.9157320414570358,0.9035356118995845,0.8871749995559819,0.8639096619944451,0.8313056315121514,0.8023420493406461,0.7690558097938887,0.7327257890741237,0.7226402540371937,0.7437474049323338,0.7676072169524208,0.7990566114127118,0.8317466025292632,0.8632315746117278,0.8775392422219825,0.8885452011564663,0.889024907425521,0.8800168862676645,0.8629641215021553,0.8688879126046753,0.8746597386556103,0.8745753118442954,0.8649812579851215,0.8469325289481318,0.8466207742430272,0.8607711228471024,0.8811311976619489,0.8893494825014061,0.8978656429705261,0.8915785813501631,0.8750194748635161,0.8211437753307798,0.769109560491251,0.708850148444486,0.6570432982178045,0.5950692240689692,0.5365087710674534,0.4829144554640319,0.4200862583320919,0.35714068553608924,0.30300785830629096,0.24511540259043407,0.18821582123501623,0.17360260286549,0.2198113322312918,0.27187059415873094,0.33428120026288854,0.397426744552668,0.45889871499447454,0.5107040423024927,0.5723902178923117,0.6355366336619701,0.6984014693711824,0.7522785543963373,0.8081008022438292,0.849932185685061,0.9073762132630798,0.9599767161432826,1.0,0.9875989585451705,0.9648338186558401,0.9486121888669459,0.944291921865537,0.9398794731510511,0.9339128832641594,0.9344576194026115,0.9385467603677937,0.9275176108014209,0.9106143952504282,0.8859741507095569,0.8551306229621662,0.8184129616300382,0.7851223271218779,0.7481075805389477,0.7206943848404359,0.7189208368227402,0.7444268858764427,0.775971235483143,0.8074630626630785,0.8324110431814122,0.8384316595429411,0.8553650923435758,0.860191571428242,0.8602149362664147,0.8602031870765718,0.8564649761518295,0.8490552158396767,0.8493015127823385,0.8386818298755143,0.8562809950663444,0.8649917165906835,0.8331460450264729,0.820600712562972,0.8307545593882564,0.8379638988497309,0.8579933549349645,0.8644633070728185,0.8633201659455163,0.8511512018289107,0.8363811536891617,0.7910072312040861,0.7373391920616434,0.6794238771817231,0.6213812562792143,0.5673521500459406,0.5044723093811618,0.4423237291077453,0.39038323649426476,0.32950713110354446,0.26636502936588613,0.2048774397642874,0.15313566579381055,0.09625401208064432,0.0875483627325424,0.13922635918411919,0.19496651948141164,0.25117213805203753,0.3142351005920274,0.3773342236617854,0.4348662018708178,0.4893752367083648,0.5523434622388184,0.6151314751247168,0.6684136418964508,0.7273227496961434,0.7900289510267062,0.8363728853550416,0.8762807078840202,0.9252087512267502,0.9570648398099197,0.9615630611215931,0.9588885386337198,0.9479304096720331,0.9471779280719477,0.953724515778863,0.951430323381095,0.9448874985003672,0.9323353342644203,0.9158197654538496,0.8923718728631957,0.8559013561708104,0.8235888944311314,0.7886267539493477,0.7614553333934762,0.7620989445167607,0.7845206048579341,0.8112939779058683,0.8374558368495264,0.8599955060424995,0.871583229655676,0.8627903514989765,0.8729360302814468,0.8745315274021217,0.8661716973201505,0.8602498597218782,0.85579475257865,0.8503175047779803,0.8664060822740631,0.8443749617192311,0.8198683429067231,0.8218903211668933,0.8402698715754027,0.8534041031524171,0.8453014468833344,0.8375034670640913,0.8358668259413555,0.8355131208775557,0.8135230096940025,0.7611488062533955,0.7057992217045679,0.6484180092571683,0.5938669747554828,0.5309352118838082,0.4690443531273307,0.41717914245613397,0.35597191637973524,0.29282635359018494,0.229709642554768,0.17182287319170064,0.11761583686692423,0.05490239431662913,0.004719551788004317,0.0,0.0509207688026303,0.11400368964108099,0.17715097522742473,0.24028372317425717,0.29917814242703256,0.3524941771188461,0.4152594001047152,0.47840585735951957,0.540451810073558,0.5922918849445398,0.6533706210409798,0.7165020406676703,0.7757351821056018,0.828510813758593,0.8816986088196135,0.9252767681691263,PM
0.5000562858696416,0.5336027091251347,0.5341134373770959,0.5342131844395244,0.5519814848901712,0.584662626758,0.6236395227022999,0.645141683713252,0.6801548196254288,0.6807041991780416,0.6897842384821118,0.7190043249065354,0.6596337039686055,0.5984099757610846,0.5825048305908282,0.5445318464547109,0.49358881607541694,0.509548632257232,0.48560058298328723,0.4641530815081989,0.44079980528174634,0.48123910147394255,0.47092265799334054,0.43976079968380244,0.4784954986264296,0.485249492943729,0.4852507712234244,0.48525992688335684,0.49660270245639637,0.5201720098053428,0.48571068196230716,0.45042924731203904,0.4722570251720226,0.48071066131160833,0.44000057020640426,0.4654479301980894,0.472993893306346,0.4375519183964345,0.4363881050697529,0.43637780363926115,0.4184136509822043,0.38792286907159745,0.387629953947064,0.4059141666871682,0.4360927045821166,0.4363881050697529,0.43639053004153094,0.4440163178030554,0.48346990428716996,0.4852449813683295,0.47508849482027227,0.4373737068750714,0.4024870421225826,0.4000132897389017,0.40010494543405795,0.3869065383082093,0.35002359555856444,0.34175169967694785,0.3821415685242382,0.34216486360755916,0.2593018229878741,0.14196317746915543,0.05235624704334185,0.05368078449062619,0.11192180265962648,0.2256081964506631,0.3328938311765359,0.4277822266607245,0.5527962214946758,0.6781145888064444,0.8019860702646913,0.844303722519081,0.7843224607402561,0.6999010385226896,0.6351027858439711,0.5728628214217792,0.5099337703319788,0.4697721651576998,0.43709905561347195,0.4364711642422492,0.4527645353211609,0.46351656478258807,0.4409596522968151,0.481353135920898,0.4852507712234244,0.48525327138812546,0.49443693047947956,0.5696851152168874,0.5927066270853762,0.6314226602335449,0.6642060376001648,0.7213164893362087,0.7295607183102337,0.729564101991782,0.7295530486320541,0.7102821292067638,0.6711932320863614,0.6112099901454542,0.5830499173647352,0.5579706895272594,0.5312170881218599,0.49093221196459336,0.48525396692266565,0.48826087128064977,0.5289457410548053,0.5341136817540963,0.5362178118683936,0.5748868157072087,0.5561449155435572,0.5354499771133163,0.5702918456221795,0.5446549655425796,0.5341165390851836,0.5341134373770959,0.531909724319819,0.4945782836414745,0.523568642481818,0.4904436391434759,0.48525263224827775,0.4852382140052329,0.4634842792617624,0.45653698692891886,0.5100621452351213,0.49418331464254805,0.5235669882375058,0.4873203101160337,0.4852509780039638,0.4852507712234244,0.4852507712234244,0.4852507712234244,0.4852507712234244,0.4854077339084837,0.5094371845632422,0.5494193672438445,0.5623906232242861,0.5021661783063287,0.4848817020535927,0.45131671277355956,0.43659940971764577,0.4664434281874046,0.5317753121031927,0.5296866099830018,0.4888232089731135,0.48482440537747884,0.4398901959149031,0.3570271552952171,0.2394978406470143,0.11480032803760487,0.030013420708480787,0.0,0.05176049216063028,0.1516866947223976,0.23624234012568834,0.3573455568799897,0.482509345490981,0.5841250393533644,0.6845421804190881,0.8005044273793356,0.8826617527325187,0.862038069848623,0.7808164924167595,0.7049097952803667,0.6421404957369727,0.5885330767438379,0.5786520128468995,0.528446873071295,0.4869782529893021,0.5046274121930328,0.5647342765296068,0.5481059578343865,0.548115958493189,0.5824653752788072,0.5829761035307675,0.5845927796404133,0.6224375366296035,0.6318337317585776,0.6325502653768531,0.6674536943366949,0.722482366181973,0.729562372554545,0.7295586129083809,0.7198453536820058,0.6764108783195155,0.632753150794958,0.5899054373484569,0.547584353462117,0.5341431330162782,0.515878577366732,0.4856133657802486,0.4852507712234244,0.4856820594696245,0.5098557934519938,0.48779851539111885,0.48773907043130915,0.5235674393950465,0.4926545698346869,0.5084663965505021,0.4854506456254546,0.4852507712234244,0.4852507712234244,0.4852507712234244,0.4818823280124658,0.44158285281288734,0.43638996609460623,0.4363881050697529,0.4365021560378395,0.45581845653209374,0.4849912586965095,0.4852507712234244,0.48462340709912244,0.44823432378601424,0.4356783566662292,0.3975871166395528,0.38752842783478414,0.3875254389160814,0.38756797035588164,0.4013131613101919,0.4597175783834935,0.45503027177285293,0.39834430174992264,0.3773663018174753,0.3401071319034603,0.34385752050554697,0.3841569957051236,0.3875254389160814,0.3875254389160814,0.3872031224579038,0.35551731077823234,0.29346039606662355,0.21052625936428981,0.1943231549404274,0.2404955318925941,0.3385451379395654,0.4636925659341369,0.5860716510781421,0.6708471542550001,0.7907861484078555,0.9159662917746925,1.0,0.9410158645549593,0.8582819463722462,0.774527496609684,0.6883430046129497,0.6021757062153448,0.5373865706785761,0.49305273453285636,0.5329186669423418,0.5755824167423444,0.5747369124826056,0.5361963642448213,0.5505022556626198,0.5771147435542767,0.5370401062195667,0.5462852271876661,0.5823639012486623,PM
0.7934470671013245,0.8026863787846414,0.8161678261605938,0.8183607243964,0.8370209283521644,0.8564986433669701,0.8399577635175848,0.8289947058053175,0.788976159844966,0.7259232208478994,0.6690117970487237,0.6053453534268525,0.5517790079647322,0.5771431080867933,0.5834783347795147,0.5385868909336238,0.4884693975289931,0.43363708317726823,0.39479602100166167,0.37425880217733587,0.31285320748517487,0.2486742086904008,0.19210910713711948,0.12409442685145056,0.06455145132698403,0.0390693865731464,0.07961101569931373,0.1340674223538616,0.19952574615633312,0.2672702391905588,0.3228097680744333,0.3781488229481158,0.38980255100534755,0.3977208393184011,0.44077094613744494,0.5088448602768114,0.5775088439263407,0.6459018941823489,0.6934886774222044,0.6927690488793061,0.6890669417081048,0.7040348306152029,0.7046454799612314,0.7204984124713749,0.7697848058020536,0.8287640648781811,0.8653715208569115,0.8689918258293758,0.8689951439695647,0.869245651439392,0.8801088296718933,0.8861431875012729,0.8932539627107525,0.9186304705116877,0.9593621342323431,0.9839829979140764,0.9610786873500556,0.9268085757305822,0.8919557219565282,0.8511912960937185,0.8350354625883862,0.8347757110623988,0.8411272129945973,0.8280697070275438,0.8188109036428859,0.8324775406289819,0.8347290587528278,0.8347831951801283,0.8420938683851249,0.8491696379495166,0.8257008882487011,0.8176495120952056,0.8210786932378045,0.825218589571866,0.8326349884645134,0.8347291485102462,0.8347004261616715,0.8250551352963837,0.7736688872379767,0.7158658420527058,0.648312163221346,0.5928491309811319,0.5272492560646098,0.4585932515663682,0.392736161511015,0.3373940198813967,0.2697296867106238,0.20106991964983179,0.13531558436262392,0.07990211485756893,0.016454363165421704,0.0002987298448722253,0.038819167555886214,0.10546124345368924,0.17412432267256328,0.24278837675673381,0.31134720211076994,0.3717583971384788,0.43174377124634944,0.500310483926965,0.567184528908756,0.6223014357321142,0.688631368186686,0.7451231834124261,0.7982263887112353,0.8191088917948504,0.8422353704975327,0.8644721551017507,0.8708614546756923,0.8773245610151075,0.873987562603372,0.8904878486006735,0.9049491017693851,0.9303146665466917,0.9713476764396001,1.0,0.9789708934669861,0.9297972029988317,0.8953645786291315,0.8626767858264253,0.8283482132583342,0.795469931079424,0.7856828774938704,0.7996401136609976,0.8158359021669108,0.8380850945769915,0.8382006909602686,0.814505320014951,0.7858965546986423,0.7716020812269093,0.7780296812739529,0.7997538937804647,0.8192378715501998,0.8302840262275231,0.8166343624185446,0.7941386610090664,0.766792411221354,0.7377757792960171,0.7442052237103387,0.7706647593769427,0.7928584866279937,0.8061072479217724,0.8128813534410924,0.7927733910550914,0.7829950904413514,0.7643165236163636,0.707446870557551,0.6508877409749934,0.5868959525987636,0.5182508246482218,0.4495867705640513,0.38092271647988074,0.3127486395195658,0.2562157724375407,0.19205777004528457,0.1281491991597128,0.08745744863589922,0.09869666110661512,0.14953145411475477,0.21711966641021752,0.2829461316804367,0.33834754190899385,0.40598336736680185,0.4746099157870751,0.5369106104026762,0.5950740536641055,0.6632753183698061,0.7211790119609724,0.7696764451697273,0.7924063950276863,0.7837520126658011,0.7866118027031814,0.8138006877522783,0.8478516640019378,0.8679907131575111,0.8596044956009234,0.8521853537056261,0.864018707369063,0.8866514624208306,0.9002177546132764,0.87728291134948,0.8501680082328154,0.8248311294983761,0.8040183482219554,0.7907742640309419,0.7833895429710331,0.783600693437418,0.7948168429315872,0.8075516253759782,0.8122182716248676,0.8122883929348488,0.8175655812892697,0.8119727925249278,0.7953855233467237,0.7928955680822676,0.7842745950934291,0.7675082773537385,0.7529510718940045,0.7692376599846273,0.791496149856012,0.8153208840482042,0.8148621478840514,0.7817620830776488,0.7173843956349275,0.6619047695353584,0.5963834393488874,0.5279121524242472,0.4694769464662496,0.4074877691223433,0.33886532134146075,0.27189055192558964,0.22809605439859837,0.18122159623749035,0.11560099557201875,0.047202526378134824,0.0,0.020223908271850943,0.07266645978778641,0.13937615993528496,0.20331700556692,0.241210511956941,0.2888970335725438,0.3317365107435366,0.39655437266052385,0.4532861497928775,0.5172551209835752,0.5857973487966488,0.6461257702134455,0.7043786791449951,0.7547784183572626,0.7985916214789714,0.8176553641550175,0.832099986514931,0.8501152823159575,0.851861883200804,0.8519907208018953,0.8625766352960742,0.8911007161075535,0.9236802658794838,0.9553106423548088,0.9792886315713956,0.9490379166543632,0.9076015726427071,0.8667241836413058,0.8286088592306702,0.794313929371222,0.7688158506644838,0.7712931267119165,0.7887068599089675,0.8189268669220544,0.8470426890220173,0.8397442458236952,0.8229896891023687,0.8161117319204556,0.7957425385589372,PM
0.24888220424472784,0.24919071813043203,0.3337978588228978,0.4564541999894356,0.58504637101551,0.6642104157822786,0.6255084074161381,0.6344823538511726,0.8010552329999641,0.8977777156172433,0.9040351214684161,0.813932857396388,0.6799478592697934,0.6546156386174946,0.5149251875295864,0.3894099281249712,0.2591675690300068,0.2490517694162513,0.29725151731692634,0.33259094796209965,0.3313191099053636,0.2773296599227617,0.30406289706749234,0.395263344785727,0.41641231190914496,0.4164530211378512,0.4164456375162988,0.40444576063614157,0.3372600323541022,0.34480166691386493,0.41373186634874415,0.41645292671943324,0.4164530211378512,0.4164530211378512,0.4164530211378512,0.4164530211378512,0.4164530211378512,0.4164530211378512,0.4164530211378512,0.4164530211378512,0.4164530211378512,0.4164530211378512,0.4164530211378512,0.4164530211378512,0.4164530211378512,0.4164529182755121,0.41358383525036224,0.34426290196808296,0.33266809476255155,0.33266761269128864,0.33266761269128864,0.33266761269128864,0.33266802721116484,0.34318545805101763,0.41328777305359843,0.41645320536890473,0.425207776451467,0.49614753151772106,0.5633455279249944,0.5841617159999739,0.6334438798433091,0.6677255409686556,0.6553549554902389,0.5859591002096707,0.5112401842755272,0.4251941010583682,0.36610690249078104,0.3075299332904997,0.17683997186272116,0.16365456426388825,0.10825883739712516,0.05604861953437812,0.060100670822100355,0.030796848256199993,0.00824836582047972,0.07207904002237697,0.005483007962428843,0.04099213683136327,0.08113367598015486,0.0813113873516027,0.08131181415354582,0.0920249688679089,0.1557885150969902,0.08922073782523121,0.12495266366409652,0.16525587243770623,0.2321742195721832,0.3262048976769698,0.4700534526784974,0.6009500652894655,0.7324658237936656,0.7515694584972987,0.7641694386709545,0.8327575599190453,0.8172797418136213,0.6901477858281773,0.6614236122045778,0.5772688654775564,0.4248954571003676,0.23690090642821993,0.12694592897158152,0.0814589833959829,0.09217205577585297,0.16202572399020276,0.16358669016449845,0.10744082504697339,0.09398878964379342,0.16252367210744012,0.16509670982367197,0.16509679579816527,0.1645557353670526,0.12004902030591857,0.08140932324214845,0.0813113873516027,0.08128799436975243,0.06492398036791336,0.0,0.05813028378361729,0.08126316352520746,0.0813113873516027,0.0813113873516027,0.0813113873516027,0.08149999929013774,0.13230752227413412,0.16502504801377427,0.16509679579816527,0.16509679579816527,0.16509679579816527,0.16509679579816527,0.16528670310881566,0.21626805217738543,0.24881078318197503,0.24888220424472784,0.24888220424472784,0.2488822073152459,0.2528374366550441,0.3194982725106854,0.3329417465355302,0.3935402064831237,0.42217341548375487,0.4997189989470847,0.580538792520775,0.6099776967625345,0.6738651597976144,0.7450402037393342,0.7515944591786017,0.7500039194317321,0.692826766561458,0.6409737003409504,0.5739475979259243,0.5036720804922155,0.431980571010115,0.3364381717242768,0.2561310385760738,0.22874059785648626,0.16528537792709663,0.12540319064136085,0.12053606027326857,0.16458265011221407,0.16509679579816527,0.16509679579816527,0.16533981336549353,0.22301937834083674,0.2488241787691674,0.24888220424472784,0.24917315058027967,0.31011237329675545,0.33858522509983047,0.4164876296299589,0.5113077354401199,0.6728668056212879,0.7973049549881353,0.9238317713995841,1.0,0.9890663074264587,0.922728761357563,0.9150245968341739,0.8442816814444374,0.8332377713480028,0.7662937502458327,0.6363355734785596,0.46070902230495925,0.41678510657457046,0.474643775914112,0.5001813842737697,0.5001879187065441,0.4764315908047152,0.41926093586582347,0.4905868780568863,0.574767171148185,0.5984193996687122,0.6653976112577773,0.6677583321150902,0.64391284193381,0.5766682397650893,0.5072300948519217,0.5002386230270215,0.5002384295844138,0.5002384295844138,0.5002384295844138,0.5002384295844138,0.5002384295844138,0.5002384295844138,0.5002384295844138,0.5002384295844138,0.5002383651035434,0.49804211232593687,0.43365071491944285,0.41645361988877916,0.41474116929225957,0.35616967891367857,0.332668358827064,0.33266761269128864,0.33266761269128864,0.33266761269128864,0.33273186890686723,0.36685208777169365,0.41556206901965176,0.4164530610545807,0.4209959502302034,0.4881417783381732,0.5002314316013052,0.5218143133091058,0.5885193266226327,0.6689507579879201,0.7635390911282105,0.8330355860520626,0.8353799904458707,0.8353037414833295,0.7993692536880186,0.7036995821683778,0.6467598933753642,0.5794744128109883,0.4973378387408136,0.4034808634178475,0.33079471428966123,0.2591379907162281,0.23419362057440196,0.16821945790892912,0.16479796807349523,0.12320120652631772,0.08164327320467812,0.13528458703784452,0.1650306022816359,0.16509679579816527,0.16535535783086175,0.22409206727519582,0.24882809942883277,0.24888220424472784,0.2491886950456479,0.314231404285783,0.4366792275557181,0.5475004050004344,0.6430308714786523,0.667755398529005,PM
0.7440809378009536,0.7440809378009536,0.7440809378009536,0.7438287720930497,0.7292484310808423,0.7191782554852613,0.6900430561689617,0.6320016130195087,0.5775619535568626,0.5229474316748401,0.46480059662982054,0.39158946115175164,0.33565290905035505,0.2750230858217386,0.22948609693153488,0.20493989452787753,0.20709793751333683,0.2622651702935648,0.3354622787226669,0.3908846649072659,0.45229186592734427,0.5052815373262782,0.5168422711705869,0.5563147851598145,0.5983053717759796,0.6071652370690961,0.6348650932468827,0.6810077942151578,0.6968492630361851,0.6970069103830059,0.6872577040837262,0.6935142785331316,0.7304044505598624,0.7046664998891812,0.6444148408856023,0.5832855902455023,0.5096807283187306,0.4464533951073517,0.36615190888131366,0.2844342036856866,0.2058422351561009,0.14281799375707482,0.06577607491692694,0.02179988955592771,0.04817059203150942,0.12762961052023902,0.20538163711254853,0.26870602093709195,0.3456010152914426,0.40871330111055126,0.48570286779412,0.5487205812840097,0.6257519848966626,0.6824540940496204,0.7263553433456078,0.7345996943942801,0.7298744295585804,0.7529109713515285,0.7470181526109876,0.7519987306815947,0.7625821454915389,0.752094635673294,0.7809293587304618,0.8059061596561383,0.8441931069006321,0.8715843141503403,0.8990113495291863,0.930171403059989,0.9733789165715856,0.9650038727094894,0.9278474516148463,0.8825462247619327,0.8447710872871808,0.8126705409128081,0.7823377630186594,0.7675454679301366,0.7534617626709768,0.7587721517385528,0.7527414121230551,0.7462190684821448,0.7609702512830694,0.7502118294541575,0.7661284649355053,0.8037868201935456,0.8002019658737942,0.8071660472735198,0.8356758388863619,0.8210616525173018,0.8142890666707379,0.797906434512035,0.8002849642064449,0.8103268055490216,0.7903379745659684,0.7596931396788116,0.7235170059800868,0.6998223822944789,0.7060933883756197,0.7511570147769491,0.7873762714430277,0.7761039015154072,0.7820593216391241,0.7913327805228918,0.8036828268476692,0.7840019175445478,0.7303040360298265,0.6806705237376631,0.6181285152845164,0.5368773123937869,0.455175736715689,0.38046730881458535,0.3368198111340712,0.3341095413729782,0.40495247886177355,0.4780608607553751,0.5451087202546994,0.6182798914926129,0.6834281325992535,0.7381362897625787,0.783916968032619,0.805633816989856,0.814611059471718,0.8146399288699424,0.814639983818136,0.8152034137232311,0.8318320823879386,0.8540084524547482,0.8928026334635213,0.9151234940546771,0.9420014842503268,0.97642076798433,1.0000000000000004,0.9813588978878003,0.9315147388005007,0.899805213145068,0.8666469282040659,0.8290194021632686,0.7960664991176851,0.775686742757336,0.7754736012264116,0.7878043849010643,0.7693621792851522,0.766992429660895,0.7524773219876613,0.7692941236347903,0.7724137461365981,0.7543002410658461,0.7632603669632441,0.7675985530382254,0.7664361717092585,0.7480306563629449,0.7440916768837438,0.7473339561352121,0.752689424302373,0.7074259735544817,0.6727692849793288,0.6515434388283121,0.6616687168056279,0.6882435898601509,0.7080009134767158,0.7204226471441948,0.7205895008769096,0.7276409129478001,0.7258591729986947,0.6689712596299975,0.6078753480182746,0.5459924327907442,0.4664120455867464,0.3890776639586715,0.32551352466551675,0.24478797918642226,0.16983261070606526,0.13716045855473036,0.16597009527487616,0.23718440935290674,0.28766306627968374,0.34948523696579015,0.3953124022098531,0.45413250963060703,0.5272931825779104,0.5897868863892124,0.6558320125982018,0.7226873235980755,0.764787768982309,0.7947670475517259,0.8134957689785103,0.8142389982758109,0.7976868116488127,0.794645318936678,0.8153977501848098,0.8390597765670038,0.8622081677967732,0.8858237273419927,0.9209578213528893,0.9534244460046062,0.9736697157413663,0.9651910419599958,0.9233093088599187,0.8748968765789011,0.8458363216175755,0.8070889430374946,0.7632753160542847,0.7533458569549447,0.7448392052296047,0.744081126315526,0.7440809378009536,0.7440809378009536,0.7442025193795332,0.7557077001290455,0.7481119305387329,0.7525146046213256,0.7539823338549652,0.7663731625071932,0.7486253842875707,0.7350549020658481,0.7287535259453546,0.7285640097420325,0.735298148994155,0.7356962587499281,0.715314580825797,0.6799211578181175,0.6405426048103546,0.6277555693351977,0.6534443069572671,0.6910726842766861,0.714922535967947,0.7006260272798848,0.6970523495044181,0.7006165555606878,0.7304519496545718,0.7045964038505392,0.6443400979381568,0.5832150482014882,0.5061130255674371,0.43684832201582324,0.36596760967711983,0.28434068814948477,0.20336690479769226,0.13903917231310725,0.06279244016471752,0.0,0.01439408861725644,0.0808507734859516,0.1584114331146922,0.22175792777066983,0.3023140143937004,0.3775537315201998,0.4425470848884516,0.5108583676067138,0.5597049610704703,0.6115399704747193,0.6723112738090671,0.7206120783214973,0.7374062280513711,0.7215390682724081,0.7352224766965278,PM
0.7539434600697001,0.7694932178554055,0.7510000699640837,0.788460758739661,0.8071685755109428,0.8072436158239844,0.8072246151087183,0.7937900676663654,0.7443951796008736,0.714881284082046,0.7120464182846629,0.7432905031118118,0.7777912779850498,0.8055059099042161,0.8021813819133303,0.7766559753966122,0.7726297789167402,0.7189024427430288,0.6562545929901527,0.5988563374052003,0.5940557827572874,0.5874916141412108,0.5566629439594548,0.4726193978021431,0.38322297043993636,0.2938221713833036,0.2044213723266699,0.11502689650551101,0.03328941992941914,0.00568997711666519,0.0,0.00015391430912004012,0.009067562375353333,0.04907948733190892,0.13616789101321825,0.22556858683440062,0.3149693858910334,0.40427539701232273,0.4801224603857088,0.4888454839745453,0.4221487171756957,0.39057463136189696,0.43174591434013987,0.49658403530058237,0.5284837927309312,0.49197789718533613,0.4844200283201259,0.4990557017547088,0.5582559104508205,0.6108191073111264,0.6404779741269513,0.6457899464908676,0.6457903314086755,0.6457903314086755,0.6457903314086755,0.6457903314086755,0.6457993888261404,0.6548112281563672,0.6775597336104893,0.6829083757432777,0.7097008595657295,0.732523851871064,0.7631264411650109,0.8073611649794667,0.8420895033015272,0.8804908147594999,0.9253666151475466,0.9649920602337954,0.9946191822421229,0.9941717939230017,0.9643928322319448,0.934141871400552,0.9038908778058117,0.8736467597113817,0.8443995692800366,0.8390166338346994,0.8163000509938554,0.8072527110948418,0.8072436158239844,0.8066534308986562,0.7845205737208207,0.8008399886986117,0.8072399277483591,0.8072436158239844,0.8072265664219174,0.7970503730003502,0.7779382590783008,0.804005191925965,0.7819835037574405,0.7749486564386681,0.766852426560134,0.7535802740805364,0.7745488062719827,0.7749529589409221,0.7747920792226424,0.7559520372387256,0.7627538584024638,0.7517717015969936,0.7735877950346,0.8061550718681412,0.8072435094976518,0.8072240974811624,0.7958717856638327,0.7529289099368235,0.714766158736162,0.7186019387515588,0.7596963773478409,0.8006988306696581,0.8063843295159172,0.7807043907020557,0.7762883115266463,0.7987475305563745,0.7568798485160544,0.7091266143589889,0.6357109810447277,0.5491614181184561,0.4879755866496698,0.434781829128541,0.429564947607985,0.48574832152226577,0.5585182889824383,0.5917709402719078,0.5382146185301275,0.49242680585401466,0.48887768550769817,0.5271499785312912,0.5796011449745935,0.6328504100222165,0.6724413177760544,0.6768932687266025,0.6504837857056804,0.6651263785226131,0.6662054410651193,0.6460334424010314,0.6457903439782617,0.6457903996141328,0.6470820111904159,0.6719458716256579,0.6806817697703842,0.7096976353898805,0.7399485127674668,0.7702021012970146,0.8030860024047426,0.8395168969126336,0.8761193994250949,0.9207601160770684,0.9620383658543581,0.9793118855913319,1.0,0.973195911996311,0.9366044055019946,0.9072733042524286,0.8866628785010846,0.8470656385797133,0.8395414825420922,0.8384469478860721,0.8118577482214544,0.807247979420695,0.8072436158239844,0.8072436158239844,0.8072436158239844,0.8072197405268868,0.7947322282294174,0.7892059843408887,0.8071507094301547,0.8072433182751002,0.8032565162403138,0.7779381560489087,0.7989694382801602,0.7796002933515789,0.7605194302116498,0.7588419078960289,0.7749187350947944,0.7741338112385003,0.7505679386928037,0.7702601111233527,0.7888744473635789,0.8062563282265192,0.780384475048514,0.7750910666228377,0.7896037123199893,0.7856495700819153,0.7416002251806901,0.7073514731965282,0.681069475190486,0.7070320052415306,0.7511509104964231,0.7745664930816281,0.7749529589409221,0.7749545592399318,0.7774441598196287,0.7818192786586682,0.7019626402149299,0.6229005873277664,0.5551629683519552,0.47187602148472596,0.40806866089006366,0.3574376959790859,0.37172726083316654,0.44304655603663967,0.5108796086117611,0.5998869068545849,0.688600536069206,0.7333624380779131,0.6630079760794443,0.5981296944445313,0.5513048506752058,0.5491885632560853,0.5728274613808244,0.6096679853137417,0.6301751080127636,0.67103746642728,0.6597573772219976,0.6459046602337475,0.6457903703537857,0.6464025402202536,0.6695408912765348,0.6780685863075631,0.6782076802048689,0.6926753837275177,0.7103181931392042,0.7126839070240312,0.7588200240095375,0.8027082342851859,0.8358006941857985,0.872042828438965,0.9023006318522055,0.9325515873260706,0.9622095364514989,0.9686590254081215,0.9525273486852557,0.9234713448251108,0.9020717174404655,0.8747683491790577,0.8661401547192105,0.8367860766691759,0.8092722622814454,0.8072437157624943,0.8072436158239844,0.8072214833085969,0.7952376633542961,0.775766907918185,0.798463150575297,0.7911897232270233,0.7752350094651614,0.7871281785374586,0.7778999952472443,0.7742473752776755,0.7513729593567664,0.7694543934123956,0.7871958023402961,0.788249773426192,0.7510000699640846,0.7694932178554055,0.7539434600696993,PM
0.7709038617766981,0.7687482201702145,0.7441716673172389,0.7274409522969791,0.7100779603824878,0.7316600546224827,0.7873447156408351,0.8434002125742919,0.7647126137815969,0.6686716947291775,0.5888557042133029,0.49173448178631896,0.41296257921732105,0.32383232929841244,0.25471508368292595,0.17942607704730662,0.12681000205588244,0.10373126793112553,0.10537161383795102,0.1481209236673453,0.24125840621721606,0.2766427891502068,0.20573767799997666,0.17078436466613933,0.20537364179207662,0.27442868312023316,0.25211169858299387,0.1704769918689384,0.1125537634216256,0.10329986703546012,0.12563880952492124,0.18129030719425732,0.25654184450436857,0.3256229380444604,0.4020209502020129,0.4911863738396316,0.5924281944687828,0.6775351287376288,0.7674818157890058,0.8690031666789007,0.9590278165233381,0.9352597498400379,0.8640774051629685,0.7903515889425496,0.7334880547442073,0.7094536863104106,0.7268589058865547,0.7228717126990998,0.7007559350783805,0.7001537285665163,0.7199712511984502,0.7286886006432645,0.751342474736616,0.7819942280420462,0.8145341218589173,0.8536118296086967,0.9013313792799367,0.9261749180559069,0.9197000360973449,0.8879361129376648,0.8513812514517594,0.7961861137190733,0.7758373399891174,0.744061972254833,0.7489410074009624,0.7562192564939054,0.7567629370134159,0.7753467732207766,0.772044056822597,0.7614663685838656,0.7832995351838545,0.7844749445938572,0.7694673927591968,0.7447728876107074,0.7292123003424202,0.7507343876179884,0.7528915300733847,0.7301205780527309,0.7236144220647129,0.7013759835551858,0.7224952223244752,0.7907182245177107,0.7976334843317008,0.7108959744056036,0.6276042752765991,0.5266966472308403,0.4406221428258825,0.35163975648806245,0.25937608857541106,0.20656328808132196,0.21539546853248348,0.2762634380096478,0.3734499278689243,0.47503448034350226,0.5759551593574881,0.6580031724587694,0.7514166410373826,0.8529183549050008,0.9367967508141306,0.9042262413570632,0.8229932520148941,0.7633452022427814,0.7320425431485957,0.7137944783505152,0.6995789894597171,0.6994252770536487,0.6944079868312723,0.6768270280980944,0.7062862864204171,0.7289606144541652,0.7553231986622007,0.7846210467655781,0.8136960203920345,0.8547790577999552,0.8710001746707765,0.891218561371312,0.8639420664283368,0.8272313611572959,0.8008448832101371,0.7614272881980049,0.7361693844084338,0.7280841039577806,0.7426285635551495,0.7317180228006124,0.7287966756956021,0.7502384525502133,0.7674300562141831,0.7597538439082627,0.7728945943476861,0.7502584695024068,0.724706731482319,0.6989410599677304,0.6748913268829333,0.6919159048445249,0.7366614320695883,0.7319905894577681,0.7277957226897773,0.7171287051174793,0.7039995657841325,0.7393025747162132,0.7122540627911964,0.6314734663323693,0.5306386637106377,0.44345492683800947,0.3555960504143054,0.25420368723233855,0.16484154552335673,0.07927324483610487,0.0,0.004659208655885649,0.07446287532798879,0.1748744240009481,0.2655900289497075,0.35002939073509287,0.4513085453266519,0.5528956473706335,0.6544260700310791,0.7459407555861417,0.8296093354633336,0.9245066553699917,0.9135929800768099,0.8260969491667605,0.7799766791459963,0.7343515186251746,0.7022602874247519,0.7163052903232123,0.6841664381279382,0.6880914175823363,0.7199258020642731,0.7135171736303767,0.7136065007174364,0.7383432993790531,0.7636728036495595,0.7970655842823278,0.83931083274264,0.8692793837723456,0.9039883775245525,0.9402941814136434,0.9305262509977301,0.8788900866102485,0.8602604856815126,0.8143679365760019,0.7754188954367032,0.7543129665571979,0.7197934628809057,0.7119226174503646,0.7503722917195357,0.7562360253959395,0.7596915515030145,0.7844191843088502,0.8102364013881771,0.8337847001679735,0.8177826130497494,0.7996655356103148,0.7671107397156391,0.7564489900488218,0.7723024677551442,0.8193679655689627,0.8212791174427863,0.8130000230452121,0.79968765006153,0.7869356734070041,0.8400116142305509,0.9040914327277201,0.8657536191462092,0.7770411882208816,0.6843810234335987,0.601779717317044,0.5007654239533248,0.39961093732304187,0.31684981817371893,0.22443327026883741,0.1374861200547408,0.10581884431046218,0.1571393181198939,0.2567361945451103,0.3404607132816593,0.43196618791275876,0.5335138976385587,0.6350904476567929,0.731312133792501,0.8111078733191408,0.9113671908507261,0.9868448283024347,0.9337944961244351,0.8799352513759797,0.837818721684473,0.7953513560522318,0.7628273621741566,0.7562504443933293,0.7562369355080159,0.7568782478475868,0.7733717244929861,0.7620068459236822,0.7881510672581151,0.8157549791762473,0.8486913064755384,0.8955205714596954,0.9366964063622247,0.9685088283231029,1.0000000000000004,0.9658992194889318,0.9322287218244818,0.8748639663789519,0.8346432876331895,0.8079080253793918,0.7762831960608003,0.7434867469845456,0.7545868123616919,0.7610870639568854,0.7588198711114127,0.7817713958041401,0.785385790565797,0.8016480578930758,0.773267585853501,PM
0.4828479096400613,0.4921196167488924,0.5424160155297033,0.6011494499010575,0.642730766120603,0.6824249993175144,0.7181143046849903,0.7604408027580509,0.8054494130274656,0.8646245772183894,0.9134445448202151,0.9573799824976226,0.9849277574014847,0.9617281861297078,0.9191889304088374,0.8701774831015199,0.8284797335484198,0.7964416542702255,0.7711724820709052,0.7499183289455187,0.7497194877373021,0.7501048348445949,0.7473669680737267,0.732620149462518,0.7256504478350954,0.720473875897256,0.7411706074531554,0.7796485493743959,0.7928728692885614,0.7305670609997559,0.668345995766997,0.6033149176546149,0.5366907576021538,0.4758248750787648,0.40588499477335827,0.3354361050854948,0.2649878123376104,0.19567944224021194,0.13593666775531954,0.0725272703171056,0.017977285565868417,0.004121085570543803,0.04423778041406745,0.10496956012034375,0.16799683042384972,0.22907829039858396,0.29407966589396883,0.353845043334881,0.417159135497992,0.4789520698163994,0.541131421628448,0.5992591595784218,0.6313432059531034,0.6456039623087768,0.6695489524792728,0.7075205213215281,0.7451853586496366,0.7903559735492423,0.837420171951581,0.8876143529065887,0.9359946765918556,0.9843268538653362,0.9949373423701171,0.9610303431112281,0.9147665912001501,0.8715375888826775,0.825305119704465,0.7875381372238024,0.7672806511762229,0.7527527372570224,0.7444296914209751,0.743458753359101,0.7332569594080327,0.729464098228725,0.7196829576115877,0.7335385150591083,0.7743159607745451,0.8262990949639806,0.816384028357948,0.755611506253757,0.6914207588529113,0.6215966168079652,0.5610913926258843,0.49401536011220926,0.4243146364920871,0.36403533564348844,0.29664187759586547,0.2325956228112933,0.16950725880157402,0.10597714089713439,0.0440931731373333,0.01511742953930062,0.05444714620273161,0.1131011120994252,0.17464862793433755,0.23507444469697725,0.2961702272484432,0.36158938683862907,0.4228104293779691,0.4822240182947193,0.5256941827816186,0.5791335193235494,0.619809183410087,0.6385192137720137,0.6585262735230855,0.6879339800320234,0.7315859884527935,0.776531443057787,0.8209878484035216,0.8709717017025309,0.9191836008432512,0.9624272326150367,0.9964255910583752,0.9721703730646107,0.9275256507795782,0.8838979463476482,0.8418289029306221,0.8020835973934186,0.7647704227803842,0.7387775999301669,0.7261103302369445,0.7276629162762289,0.7242682870387267,0.7236402740207584,0.7192497592059712,0.7140384352088136,0.7108925080714064,0.7354082149829357,0.7836610632125842,0.8213983991490157,0.7807670633050059,0.7210607010267147,0.6515857881942673,0.5824024117931657,0.5227648002317775,0.45416701056940045,0.38922578085637705,0.32695994855888655,0.2626066470397912,0.19991096863652813,0.13166744951706466,0.07287015881488434,0.02472358535721586,0.027462395743276247,0.08310138537302358,0.14451726355808425,0.20494073220442122,0.27120512793526363,0.3315901069594993,0.39275775924290235,0.4574666548747992,0.5169821753717148,0.5742093929202119,0.6117907281157431,0.6345633609396868,0.659926286190885,0.6855850929693046,0.721730764827788,0.7680638977106582,0.8212713020697173,0.8666196647689539,0.9152139322024431,0.9599416173951665,0.999264492932679,0.9810784411379985,0.9374822309701722,0.8951954835751479,0.8530101884720531,0.8172965797585181,0.7873688119470541,0.7713562082592256,0.7603353042133592,0.7567837994708622,0.7386837325009503,0.7365043163570408,0.7387746173118936,0.7318471775869015,0.7586186716839827,0.8084952772974188,0.8074800092943735,0.7408488754270273,0.6768049177888218,0.6136019736148526,0.5434125903448657,0.47993475896477333,0.4161855690964342,0.3485121697251694,0.2884796672826908,0.21898606859265435,0.15642343928412417,0.09239904390227949,0.034124245281942134,0.0,0.025102990474177522,0.08481758517139792,0.1448155902045587,0.2092256244731041,0.27127905983787115,0.3414790642348815,0.4112385171975146,0.47140053748370403,0.5327116814835884,0.5868907516242101,0.618338923644884,0.634701635823901,0.6603441063998747,0.6900359673224787,0.727886548608516,0.7725622354659667,0.8166143048098295,0.8688135665465662,0.9240722396998555,0.9693348011026568,0.9999999999999998,0.9727234438972154,0.9286789671097655,0.8820486866020099,0.8359413934247535,0.7971443718634179,0.7707679324871968,0.7456793703686422,0.7329319804716288,0.7413124366194401,0.7347903368389079,0.7318329271709245,0.7231112354800098,0.7167847503199016,0.7278816780523718,0.7692944126208945,0.8207040884741927,0.8235303219661632,0.760819258648745,0.7002606844354078,0.6306949263546577,0.5689290972599512,0.5105021639602445,0.45962961748879283,0.3997366624026606,0.3336655186419122,0.26324494085414396,0.1928026081621823,0.12517513070625674,0.06670241932894494,0.02796492803090822,0.050868484241741285,0.1081806544019015,0.16893248463248844,0.22966337433020434,0.2932711495356026,0.3533655243060656,0.41773784085186394,0.4797848282645458,0.5443100470159041,0.5965509528887771,0.6234020936141176,PM
0.012205886402471222,0.0,0.002051827214545554,0.04830059785622787,0.1055910920309886,0.18708979918821367,0.2690227837488717,0.3412751448451754,0.38894016853855806,0.4514192147252869,0.5138705370217282,0.5831236802105497,0.6347711232594628,0.6600754966542661,0.6381247575849862,0.6353384654681147,0.6474292148602405,0.6668440892753429,0.667031083773697,0.6616830956329869,0.6337103304698424,0.6057950405282,0.603500039855847,0.6068501091938963,0.6330803333072019,0.6359962428373729,0.658903999107542,0.673264653323133,0.6982894286466497,0.6988026594072343,0.7027163595175487,0.7288653043254518,0.7441478057724948,0.7326400497049805,0.7015619006780183,0.6677899612172764,0.6401948691850867,0.62506513342489,0.6039437729073462,0.603497661293404,0.6035008626279268,0.6108595650723903,0.6348194814540298,0.6352655011847483,0.6353136807262629,0.6455113995430031,0.6667569224055683,0.6697527169957747,0.696201707216404,0.7029625541767537,0.7289152163681578,0.7305699489645248,0.7326152148523404,0.7592377192471265,0.7752840752183756,0.7939442068488827,0.7948200568866053,0.817629175811871,0.826898092777336,0.8514192711924071,0.8652448037501941,0.8890061096299284,0.8984583160433415,0.9208252627353488,0.9146333046250117,0.8616039060235723,0.8199346178502687,0.7788039954030275,0.7624431828519027,0.7623288948978688,0.7497198805715195,0.7030929067397311,0.6271835285344176,0.5712470852438587,0.49595902714584383,0.4503674626055316,0.39079542257286715,0.3373080418051515,0.31042887920784956,0.28666539458879203,0.2856936890258259,0.26752044419341114,0.22701998856432226,0.17278841331647765,0.14463968500945334,0.12712469130155135,0.13539708667022765,0.15836350738703509,0.15874790281456264,0.15874790281456264,0.1587250366324291,0.14334424440094473,0.09553853260100542,0.04166390187968272,0.0014772422272075758,0.012426510152443448,0.08593571309634829,0.16758917983890154,0.22926367101648282,0.3000529888491954,0.37017316952997525,0.34424943172569833,0.2971968136601708,0.2819869314860952,0.25577054389375586,0.2371901879945426,0.22238222549295195,0.22241074825836105,0.24009969484902705,0.2531972039021264,0.22733467068730295,0.19967322063355564,0.1905469182911208,0.1905121795260909,0.1843591720983877,0.1667064231507842,0.1900430191104716,0.19051739837192372,0.1950991639024311,0.22102924020669423,0.23959601576797152,0.25404190823882367,0.24998924148438562,0.2149635749007297,0.17347105261264062,0.13510501264128116,0.12650247515101398,0.10179561504275281,0.0876428089814354,0.06569209394483355,0.0945115163518615,0.13486796692711955,0.16413401418597573,0.19002057756467838,0.2168523435659031,0.2705330844048195,0.3453667135119911,0.40176534177249934,0.47897979869647855,0.5433066904323489,0.599576875531378,0.660236123790007,0.7023189861572154,0.7304612367498322,0.7580724448368166,0.762336357054556,0.762336860750132,0.762336860750132,0.7623303127076397,0.7520787797049611,0.7310074397689812,0.7315536217350997,0.7559554444367196,0.7474858046562591,0.7306874102843848,0.7305690208587867,0.7280835171538502,0.7016964102151251,0.6988023889040544,0.6988011809674415,0.6988011809674415,0.6988011809674415,0.6988011809674415,0.6959460331672576,0.6695045241443802,0.6857255876639776,0.6768841350849923,0.667075486955695,0.6670333410760954,0.6670333410760954,0.6670333410760954,0.6662805440676323,0.6404654885109595,0.6110939649971394,0.5707350050406816,0.5422096456765413,0.5645717429179031,0.5913744682534521,0.6282990939381223,0.6084649189826852,0.6034994195640726,0.6034896581303562,0.5908226253182285,0.5446957149933374,0.49019705604432495,0.41556422344187727,0.35986676165777887,0.3199310082452973,0.34360589997794744,0.4030714649026166,0.4728396151684322,0.5352364950527324,0.6164294490938405,0.6745671862823279,0.6865295068418238,0.661012828704524,0.636296258283549,0.6352655011847483,0.6352655011847483,0.6352655011847483,0.6352655011847483,0.6352655011847483,0.6352655011847483,0.6352655011847483,0.6352655011847483,0.6352655011847483,0.6352655011847483,0.6353981519930505,0.6536412568599159,0.6673477319837033,0.6876972359878204,0.6887598495873828,0.6670565110705624,0.6396528070961338,0.5987373988252527,0.546859808227631,0.5385181119421176,0.5126650550471927,0.4972661161490475,0.47677240819323785,0.47642630172802036,0.47668009574826,0.4965929163580487,0.508187215805191,0.5099018566480025,0.5358221840981203,0.550666987380187,0.5784188010898914,0.6030461001027936,0.6118811793685248,0.6394976434759068,0.6656716826958924,0.6543128289679885,0.634744348185035,0.6091713731235506,0.6039995666581701,0.6255660137905048,0.6564602366952244,0.70828592115212,0.7496942467018979,0.7884758171780915,0.8147552274032828,0.8404721993355064,0.8670467711719629,0.8900259479884429,0.9146959914281263,0.9403311938332122,0.953366511209258,0.9745018226449353,1.0,0.9968278467769682,0.9432243111684873,0.86325880662526,0.8068095275539857,0.7421510657466364,PM
0.8289379537495283,0.8302974759193995,0.8452328560522766,0.8443670064726938,0.8537336839505214,0.8614144287238623,0.8684564821137848,0.8742097181211046,0.8953275551669073,0.9093294711891187,0.9230703437311651,0.9432563838804795,0.9695471226420456,0.9877351293628933,1.0000000000000002,0.9953584818224901,0.9683868748383777,0.936247142722886,0.9095329372921441,0.877035788429317,0.8553145446152441,0.8361748008751941,0.8177150712199428,0.8103447626571121,0.8073009711016097,0.8163373960613842,0.8266645321094701,0.8210276358831348,0.8158102601695074,0.8203571868749029,0.8287967135236698,0.8289370077283176,0.8289926298644514,0.8337271303852936,0.8333240198282519,0.8304211032413529,0.8288299543109898,0.8210283805496459,0.8168119041475517,0.8273011752171622,0.8243292521941694,0.8159906042908436,0.8210282316163438,0.8288282112018714,0.8289370077283176,0.8288912065582748,0.8225698262321688,0.8068126365683119,0.7917570668691625,0.797742788611415,0.7959641005161593,0.8101312188872727,0.8078268283235064,0.8020612322208069,0.7923242589648039,0.7993236492761382,0.8025592694866905,0.8044901914142886,0.8193487860391222,0.8464226625840798,0.8731554419327037,0.862606869956178,0.8296511787733969,0.7867359864613868,0.7428043970580582,0.7086288389483124,0.6654155845267742,0.6216656929222613,0.5876063501899267,0.5440947060055941,0.4993053138734611,0.460681400909809,0.42271811598829867,0.37793819453425503,0.3332423494155168,0.2968457367408972,0.25659226603357443,0.21286559909138592,0.17880625635905156,0.1354349063793665,0.09904257701089247,0.061497677020785124,0.031785993647193145,0.025615167165381703,0.042367556217759894,0.0724833523851256,0.10644783078868025,0.14580332365922422,0.18375230508889362,0.22237609890590382,0.26643877386717807,0.3009792748206801,0.343652330784874,0.3884878743750515,0.4333240136984382,0.47814560194968125,0.5190600581390699,0.5548169748171485,0.5984548594414998,0.6327546621377766,0.6752393442846201,0.7097767390945473,0.7500962373331543,0.7708392183892843,0.7876940746441308,0.784898717672242,0.7841483669794289,0.7893615537667904,0.7904023796481379,0.8012962807564354,0.815102025950101,0.8297194394623195,0.8414724817137123,0.8568995634908088,0.8797526507617295,0.891110585174484,0.9187864920173288,0.9378527294174333,0.9594276560542514,0.9469603968520939,0.9282021374710212,0.8958381612904283,0.8627591761273294,0.8379586863525972,0.8018737450499474,0.7735634624955854,0.7631994454702429,0.7581347420171738,0.7382573386642666,0.7403333158604835,0.738111285487739,0.7366290522304639,0.7366274580546477,0.737653920870833,0.7482359395213434,0.7560482760503138,0.7699590224544612,0.7649665230826568,0.7699348643007011,0.7777670779253316,0.7886042251900764,0.7970207626279915,0.7935548664728305,0.7775433553186788,0.7729928595804643,0.7691052364901181,0.766469317817611,0.7724670561100366,0.7831088604071639,0.789318345215172,0.7847650920928129,0.7736904753634255,0.7623455996015907,0.7513452513353662,0.7584409769670091,0.7690903074784077,0.7734082220623268,0.7634304616512713,0.7632069099760981,0.7715813295767522,0.776177046584219,0.7762240823550581,0.7819562373834754,0.8101522407239325,0.8387255162548979,0.8477621843374237,0.8105568557862031,0.7736045183980618,0.7430472560540233,0.714894660135647,0.6792715118231396,0.6390178028225322,0.5942066312705889,0.5494477907954474,0.5116177544446927,0.4728395119313842,0.4280491737780394,0.3833848263375026,0.3476277607261229,0.3067137811233014,0.26351693287774247,0.23065030270032283,0.20543170586154225,0.17234150904633094,0.13530508751951653,0.09904257701089314,0.061488499192471346,0.026919078007727304,0.0,0.00840392595287498,0.032454244375587304,0.06361746787943368,0.10585558143901252,0.14063600619656902,0.182406486908119,0.2129226093083849,0.23852414069141936,0.2777305395385268,0.32252740759862863,0.3627812357458762,0.3991778484204953,0.44383830906849253,0.4834315091735988,0.520465925802339,0.5635707411373565,0.5977462992471017,0.6416804288474582,0.6865120465714154,0.7270589248776413,0.7501195572369375,0.772925021125509,0.7839369762499884,0.7894176227028311,0.7963047805965477,0.8025170069562828,0.8026935730073863,0.8103526391593852,0.8210702949271476,0.8367856383316956,0.8552655253069081,0.8684687106069997,0.8914921185795521,0.9177632813681831,0.9386448915686911,0.9441885005559663,0.924534982173068,0.9000325135701706,0.8703076582783653,0.8441286176933682,0.8192127021786193,0.7927099044797925,0.768270312086657,0.7465734461325713,0.7416726505646414,0.737309320076674,0.7366418601934888,0.7398464495415646,0.7403017172021318,0.7490200162881762,0.7427768082715087,0.7436353554912796,0.7685146199050832,0.7750888472496034,0.7645322617763812,0.7715822755979624,0.776177046584219,0.7761886085243337,0.7760168166414838,0.7664007825532171,0.7527775106339598,0.7597623498731501,0.7629979700837024,0.7649246087051551,0.7749319545918036,0.7656413354699969,PM
