0,1,2,3,4,5,6,7,8,9,10,11,12,13,14,15,16,17,18,19,20,21,22,23,24,25,26,27,28,29,30,31,32,33,34,35,36,37,38,39,40,41,42,43,44,45,46,47,48,49,50,51,52,53,54,55,56,57,58,59,60,61,62,63,64,65,66,67,68,69,70,71,72,73,74,75,76,77,78,79,80,81,82,83,84,85,86,87,88,89,90,91,92,93,94,95,96,97,98,99,100,101,102,103,104,105,106,107,108,109,110,111,112,113,114,115,116,117,118,119,120,121,122,123,124,125,126,127,128,129,130,131,132,133,134,135,136,137,138,139,140,141,142,143,144,145,146,147,148,149,150,151,152,153,154,155,156,157,158,159,160,161,162,163,164,165,166,167,168,169,170,171,172,173,174,175,176,177,178,179,180,181,182,183,184,185,186,187,188,189,190,191,192,193,194,195,196,197,198,199,200,201,202,203,204,205,206,207,208,209,210,211,212,213,214,215,216,217,218,219,220,221,222,223,224,225,226,227,228,229,230,231,232,233,234,235,236,237,238,239,240,241,242,243,244,245,246,247,248,249,250,251,252,253,254,Target
0.9562278901121419,0.5388794401886936,0.3193810614280226,0.2841840434321039,0.3067165349214509,0.3316242269737273,0.41022861890081375,0.4370651865371622,0.28208226520411994,0.22695986952804792,0.5813657995455817,0.9401174178755252,0.7202337358954054,0.3312516956896263,0.20184353683285683,0.1778562846818994,0.15903052949906438,0.12664793951893283,0.2353042623394963,0.3870266713134538,0.2449104960539068,0.12637005950112412,0.38096857052614697,0.820395396222724,0.8378025938003071,0.4414743264861478,0.2560907674240449,0.26117890085273987,0.24739421236801618,0.25433429621493375,0.34371765430658074,0.400711739001157,0.28262211690829075,0.3115139427061191,0.7083350522049101,0.9981612339856527,0.7047592530815088,0.3833346737940251,0.3145515276332749,0.31120298258302737,0.2920302110552013,0.3808151549100032,0.5179446483632479,0.35392285904232557,0.20004721616071985,0.3617778885775147,0.8077189292383111,0.9254349660413652,0.5350994229645636,0.3036897156963849,0.28293016860869313,0.2697508536895612,0.2720801994961837,0.36952820393064023,0.27639003620297364,0.12268917920011235,0.1899774519168156,0.6085629999736861,0.779733067829969,0.4136996055246853,0.17371770054267532,0.15020431667001488,0.16783998523858878,0.15483317295900734,0.22127929145106484,0.423277531902154,0.3361209758181214,0.17611254433939427,0.2577056846714043,0.6916732421491822,0.9283427330681677,0.5925969750614057,0.3253295462692012,0.31809196267979845,0.3330551674900881,0.33649828523556624,0.4476889334202272,0.4387275826839572,0.2552913478524632,0.23056378942854794,0.5995134407455875,0.898664730459672,0.6178620384742568,0.3043101654266711,0.26650137035587873,0.2648962871410401,0.28296828428107124,0.42101428411121944,0.44326864969033064,0.25798297405922743,0.14405979980090833,0.40849987147836364,0.8351538070649962,0.832582961793483,0.4276579566934422,0.2613481233180124,0.20311158799691653,0.011203003681153678,0.0028900520583603484,0.16261210269498028,0.25373649535711196,0.5949826562903455,0.49949618674426954,0.10875407764857936,0.0938696370667218,0.25859124657455723,0.3963395592372523,0.25655941403811733,0.1890428346458597,0.18221158121743586,0.18061379884543904,0.21987829480912247,0.5111173328589942,0.6203979761932041,0.24488496297670315,0.12485763487718349,0.2836913346318455,0.4017849941293936,0.28629642897119134,0.26043129219257977,0.2704314152081839,0.24221144847801002,0.2657659427240022,0.5673072710927438,0.5186295148123916,0.12970778459264198,0.09377792067676882,0.23216739349109106,0.3148364760689497,0.12762407336460768,0.08047481451117533,0.08042811006546158,0.06709078752760056,0.07457089611033663,0.2804165365614657,0.5126878181148018,0.18751305109318306,0.0,0.1374762566094283,0.28371276398333856,0.21807723025380032,0.19686032202471893,0.21287666379437642,0.2166183610625394,0.22927202264859892,0.5261420525807647,0.6335332250846335,0.24632835596725466,0.0995063580833968,0.25129360017196434,0.42771879550126135,0.3237976940521825,0.2116403927481505,0.21912102334036776,0.23326991725786606,0.24528399827156333,0.327475547377045,0.6437096989249707,0.5721779979634589,0.20655418069246578,0.19827062950497032,0.3129949706453059,0.28767292420824386,0.1986644121944403,0.18148150710575628,0.1866503106818096,0.1749348431500275,0.2637767197613341,0.5982097949968188,0.45337787937790086,0.06893274607939981,0.07551332184433246,0.2302142003638954,0.28002518937471144,0.08690017279003337,0.058870051647708976,0.0866745903652304,0.10266257501083476,0.13285387208041288,0.3071797488253176,0.5719826367659353,0.29976079840807457,0.10848945863277559,0.2544035453758493,0.3685772337882476,0.27552817849769307,0.25008644493067655,0.22244254995381985,0.22855666412816578,0.31575464215426563,0.6555524927583307,0.7090892372793909,0.309790428969291,0.1648455615715425,0.23040457219057364,0.40809400098231396,0.30775174531168736,0.16702734383307138,0.13790843745990933,0.09534620104964686,0.09075687226390494,0.1729708318973704,0.5121585619672016,0.43668074673928015,0.1017824869897519,0.12730982349290376,0.2599744831634594,0.2048716282689338,0.15330601823041934,0.16791803617895007,0.18513770665186913,0.23942396296549395,0.45275478327967056,0.7444787797979959,0.4635506563386418,0.1216482135452921,0.18998564027450482,0.37234489443455043,0.4285282020365946,0.24709160645392814,0.2135701834095003,0.20647418143932494,0.24170790568768563,0.2769583687813979,0.2921768422037043,0.3620461566820059,0.5378733767858366,0.41488301915859926,0.24597712453874365,0.28511421792106906,0.7050303332031111,1.0,0.7048635245907899,0.35890513626345877,0.27643750557741,0.24756147631753356,0.2355329634945338,0.2450863815832096,0.3555521925856011,0.269589133763918,0.17271332652426974,0.3852472899447137,0.8036144763021604,0.7782188565377166,0.3733345936232282,0.18274228235837753,0.17328387238289755,0.2137650916583902,0.2428013788189638,0.4096454005048704,0.48875950652744304,0.30480004154289864,0.2566345066710134,0.5040331004417968,0.9375682205095979,PM
0.9999999999999998,0.7044333287749087,0.548632294500415,0.8544763540192661,0.8572621292562304,0.7087116754632767,0.5328319996813737,0.5743851493828978,0.45008858191428414,0.33766157043395295,0.5687922555259679,0.623454096902478,0.3010606594070808,0.28600418554810725,0.5904338158226292,0.632197841131023,0.6722289462392868,0.6998495200931834,0.5468380242962143,0.39567605002975426,0.6709373619509977,0.7848082499580105,0.5900710113924406,0.25480046823290703,0.5123561342329774,0.6571803813054913,0.685853280893461,0.6783186240991295,0.6556353069056782,0.42271523790185506,0.4871958122451805,0.7455065123223854,0.6961226388555593,0.3414586677562246,0.425325016148524,0.650005567743076,0.6791446575622684,0.6950666669850694,0.6704271850660033,0.4494096633732567,0.43038775141183927,0.7072129102182438,0.7258492099703073,0.3974324972420107,0.28354961620137176,0.6270581616330018,0.6791298414121003,0.6816340654726638,0.6635041620419029,0.43448681752439167,0.5758824844724943,0.8082542770042884,0.7437684653195082,0.3529548518759287,0.36487397474602834,0.6638743966769016,0.7056854012223048,0.7252490825781546,0.7118575689660782,0.5280906439045518,0.4232070180792522,0.6868560834753541,0.725304525077137,0.41486518307967324,0.2380226974509052,0.5505538627524345,0.6257962105489299,0.6730875122976057,0.6712391001707834,0.43423795868930726,0.4715221066677333,0.7212911611751738,0.7524296821163154,0.4479078526682547,0.40537356519565226,0.6685004485378438,0.6882708836830582,0.6895825591962363,0.6617076585446828,0.41870140356172825,0.45814266308601614,0.7297597071582784,0.7201139965447447,0.3509931952351477,0.27615113635796074,0.5978790874869715,0.6444789218976521,0.6750762960222294,0.6588941832375437,0.4355374739756177,0.34097959623271135,0.621348061834383,0.7118302679186581,0.43392929588428086,0.23255497153848803,0.5738745038402453,0.6918374376697158,0.7620731293483354,0.7518611868028511,0.6497768471859706,0.6779954144483595,0.6799464441869503,0.6131074083135781,0.48930182829083946,0.0718773947135305,0.087635447056158,0.5266667429440222,0.584977920735674,0.3019879266176235,0.233329295819388,0.5177922769888028,0.5985461926785407,0.5810744727045314,0.5385441128001462,0.28279661546801194,0.02289512037824193,0.41351409085330215,0.6714313445906732,0.4643549322437084,0.26841134197963723,0.5128020637182862,0.6172644682502801,0.6126308475243951,0.6041568156887533,0.464755760151111,0.06654973036139067,0.24649567637834902,0.6173320663791968,0.5629652162757173,0.28593139263022604,0.4161788862152862,0.6054339874782475,0.5819173338421864,0.5183880221035448,0.41743093841712553,0.019329213922809174,0.11074312200317071,0.5577889519163179,0.616072769894606,0.33455955596712283,0.3894817337286811,0.6147622049498722,0.6412088098738573,0.6339795664941901,0.5889925669324458,0.3183116468377116,0.08737356561440857,0.4855533588245866,0.7150713962806046,0.5043132343945145,0.312369160582213,0.5495370535306543,0.6087674616770011,0.5999568606077641,0.5949479441234169,0.3013799541898883,0.0,0.3584121689518185,0.6593699092003911,0.5135908651817915,0.2429155986924949,0.4336632285668569,0.613882234771504,0.6139943683347762,0.5867424357760129,0.5006859478290109,0.11334391473861771,0.13980403399807373,0.554363933139679,0.6387859041426489,0.35754070384991476,0.32694077676138744,0.5716573681404984,0.6073846995677228,0.6042215757394553,0.5588758046765305,0.2933946181648388,0.0018897983322669898,0.3703811520106386,0.6738560811521308,0.5276241365728611,0.2738504158827866,0.47953762281592494,0.6162356264494735,0.5875094627366748,0.5279946133946825,0.44438599061013107,0.04504121409057915,0.07793762315656094,0.47958074004290663,0.4442108905316202,0.214022074343164,0.3754586679936043,0.4679113425489294,0.48345161642985546,0.6891129296453757,0.7799393743623833,0.6448308518664227,0.27014975044969614,0.5120052933545474,0.8735554530912129,0.763174986313959,0.39981416060251296,0.38846191545412867,0.6370240227524142,0.616925465508886,0.721194671896707,0.5298400998849233,0.06174373521647092,0.09627572165481268,0.5711158989378997,0.6919524011116527,0.3813309568401817,0.21555493238316425,0.4876166623352505,0.5902224195845089,0.577849040085056,0.5847569702493927,0.5523564810777011,0.45072642822058806,0.06339088737000309,0.1959676220402713,0.6240490433382442,0.659864607593798,0.3709968834134043,0.35356233651126323,0.5993630436601685,0.6546727344922287,0.7018921654874746,0.7186301103249695,0.5696388610589918,0.4027028058244675,0.6630060262833688,0.7956861006247846,0.5987435875119245,0.22611907464399583,0.4408263641633752,0.6380587245442013,0.6532679263718622,0.65895676994447,0.664746034293634,0.6499982901835477,0.44794777496856075,0.3939065718531787,0.7122682617848122,0.7704249316504612,0.42723360869657534,0.36130692118245533,0.7641923073017065,0.7854499168697704,0.7240664231536635,0.6904965568755761,0.4554615510816322,0.643821694401473,0.957467574293714,PM
0.9670983573312373,0.6407888822289018,0.4436526931581737,0.38999569225922537,0.40185751975289086,0.4389063287852317,0.423264397209417,0.4212042515366845,0.4075302463922703,0.3231214802785982,0.360754728447809,0.7155095218284109,0.9853161131232342,0.7788331110159821,0.44505110257957736,0.33495737929415026,0.3032450192098841,0.2990466614154863,0.2933431812806684,0.2941242664147994,0.32605056710548697,0.36648357092299166,0.32854825115443087,0.315397270139147,0.6329444139358233,0.9290744507297706,0.7634536556823066,0.46069123058685224,0.38881119820734966,0.3699201595958377,0.36782863595149196,0.36239167729242694,0.38755838726046954,0.44309933739731266,0.40281974135648224,0.30822426750281107,0.49765319691851073,0.8738285182065468,0.9709140241125824,0.6684164418109104,0.4374259381202834,0.4039410384446578,0.39579939533033737,0.39341725632250646,0.38391374012837254,0.3769999387186067,0.3881340620276881,0.4038516450258005,0.3435000118737739,0.3654897670414785,0.7109147366863475,0.9978753724531833,0.8157911472097108,0.49129806655369523,0.402650718491093,0.3840541568294953,0.3817551462262443,0.381350059910726,0.3698410397599743,0.3931405222885893,0.4217341300650306,0.3619762655545582,0.32334089455036663,0.6276178538015287,0.9392935940198999,0.7963800537880548,0.4826403705547355,0.39690166128622506,0.37829057553603573,0.36846487077635515,0.3492290992520348,0.3591744867962743,0.40760132911663427,0.3727988553638324,0.2664844606096233,0.4021574961029859,0.7782821925748544,0.9513709905397854,0.6788547024537481,0.40767089041377313,0.3625559224135333,0.3512391466516238,0.3528227640566348,0.35011955645377024,0.3483524365191366,0.37444945382588224,0.3850397799240073,0.31875570798421005,0.4201257451993812,0.7885318349775494,0.9834997434133184,0.7099148601455438,0.4264774882141571,0.37085781792396033,0.3553639280435239,0.36118291976728667,0.3588278348861169,0.3639009596724194,0.4028439075952923,0.37466445664328885,0.29237554887682227,0.4537116013206035,0.8214184885095503,0.8984711761792077,0.5856633153044364,0.40011050323884834,0.38187031035000474,0.3816023194513569,0.38123064180609356,0.3898017625997652,0.43820250771540104,0.43235774714229325,0.33105786478588684,0.37214227670248223,0.7345384201201204,1.0000000000000002,0.7901537120630568,0.4869269122642015,0.4174909016510895,0.4067514552012792,0.40575136813633894,0.3920788162044686,0.3603542013553236,0.35704700414818413,0.3603377191685113,0.364567857088528,0.4481732871917301,0.3361948345038286,0.048766721029836146,0.17259463871003367,0.35556427069217333,0.3941283558070212,0.3483111164975261,0.32915427070020775,0.3292553924223036,0.3315160941494326,0.331801827789479,0.38280404452505734,0.5049033418339703,0.2443843606075251,0.05378166525046191,0.24201114432621695,0.3460520608218014,0.3439123611961805,0.31061541646041,0.30977694241577214,0.3096337861560161,0.30632702908027887,0.3124040348463495,0.35154899505606996,0.43026087076475505,0.15677052112406775,0.12309231639910978,0.2961394944621485,0.3423896269185558,0.3120342544386081,0.2957401371555466,0.3010934280364379,0.30600598981864646,0.3022172957106182,0.31290152167619234,0.37803672811236844,0.3034567043506988,0.0,0.08684076244255956,0.2914993096434244,0.35476039185841945,0.3148541199540833,0.30076576579303693,0.3192924034543554,0.3264200516591169,0.33950916002721065,0.41386573979436525,0.41959976521186215,0.11747772653608801,0.1442537859965629,0.32691367969629637,0.37472202369890417,0.3343814750867178,0.3216161968859732,0.32969465219271155,0.3284593533521243,0.33160255594132737,0.33980078836085714,0.4016781701234926,0.5277634717665893,0.25065574681125513,0.12785765338505972,0.2971095775168284,0.3517542907224449,0.3295461148478078,0.32329950069851887,0.33408801406819233,0.3424337800028048,0.34660493695143857,0.34828223110160406,0.36889122257070683,0.4647112026582978,0.2264297127781485,0.022581940380875354,0.22969114968145155,0.3684582991948504,0.3745723012124802,0.32168344487814005,0.3156806910827048,0.3186243679609342,0.3200386142300482,0.3284231444376631,0.3936933639448277,0.5118381352843444,0.22070927792956563,0.056253336160502654,0.24409002265745627,0.31560383390378965,0.2785183353916283,0.24618425222818652,0.24362732747714344,0.2452268079576021,0.25026352321530543,0.27153215857770285,0.31990640495197087,0.4891804859911639,0.278649592060525,0.07845809099132484,0.24392399682612753,0.35228154505160325,0.36972976782326894,0.3686873497015779,0.38434593890644897,0.35105775275155526,0.33224629017967633,0.3710678822276474,0.480893980844175,0.4555899240939596,0.13697565322930627,0.16373226257944706,0.36610353396898243,0.4131256473072238,0.3755807567991112,0.35031942386870374,0.349237240776352,0.37654924117089106,0.3808979030928583,0.3859943851715424,0.44242349172280737,0.44382310585628826,0.42928540111039437,0.40603634109967657,0.39802051709417374,0.4195031419720918,0.4657984154037831,0.44078175779561146,0.36590894983510003,0.5733768767887597,0.9316690890089434,PM
1.0,0.8962532482809298,0.911826200938691,0.7556457652932496,0.4186436838442473,0.6408318047600927,0.859028683940608,0.8084433594218163,0.812796498893265,0.787617422196834,0.7627220421596528,0.8112323118918376,0.8961220816672135,0.7584093881941345,0.6821255531636927,0.8468539738476966,0.8731145350497993,0.8316829810626842,0.8363476421599625,0.8151651793174759,0.8147234677033866,0.8808811346493166,0.7959865650651632,0.8764207378211406,0.8959719599522091,0.8271550699411057,0.7933749041383615,0.7935364286533568,0.7783210584636095,0.840561747339521,0.7760252188732522,0.6366341733428742,0.8220226249461855,0.8268070675146868,0.7950686186205278,0.7947462544833357,0.7496325633588854,0.756093192924868,0.7945262045884873,0.5904973247365408,0.583797480623256,0.8184174723352862,0.7986101823968763,0.7857565450530002,0.7967157116353336,0.7523342013364269,0.7891967515465477,0.8054271259467116,0.5375122030393809,0.553751740711355,0.795523650769105,0.7546332462762386,0.7691986170836618,0.7589560334141878,0.721326243250092,0.7995584946592436,0.8631455722495995,0.6769695160915794,0.7199766046010154,0.8940484494866219,0.8868035553035476,0.8397956697679732,0.8322030091670927,0.8186938261422982,0.7757852937313761,0.8393141579720136,0.741097149252433,0.6980424963144327,0.82457311061142,0.8330961465898987,0.8075089277143954,0.8272270886564277,0.7886306064986361,0.7981986423094045,0.8520080087619433,0.6531215488979658,0.6259730159325816,0.864604513818473,0.8433639355588953,0.8548501252822165,0.8631654436532319,0.8217901119133191,0.8523143837705698,0.8924442677222557,0.6228720963947842,0.5687894088035916,0.8260692483238508,0.747860227543252,0.6274172648649747,0.5938458269387916,0.5198385680183795,0.4657593662398014,0.6246616556504914,0.7412858149350723,0.5321606280428308,0.7043621685320893,0.9428303747860336,0.8715643413416418,0.8384685632907951,0.8294859064375588,0.8089469304582835,0.8395122313289969,0.910674596107977,0.8002359222373423,0.7857193313418827,0.9270340789174547,0.9048518930555574,0.8426970828472178,0.8212452212273864,0.789306120680044,0.7790871094034171,0.8355284814791273,0.7307042418438341,0.666679154441177,0.8418519794049106,0.8625777295548955,0.821553998712603,0.8366798119351242,0.8193316413370315,0.7768460897364453,0.8074858070201567,0.6980615150412657,0.7469479300900712,0.72506965789173,0.38977878201988947,0.07370358553967593,0.15386499930558406,0.11043550792154777,0.5202194637924622,0.7146186247450861,0.6820802116338784,0.7181405853425646,0.7338912175978258,0.7202685811422764,0.7263638120912828,0.6810497686283186,0.4027695357714314,0.4886821291962602,0.7244168984835859,0.684109417111209,0.6765448015626623,0.7086395958084291,0.7285617729653957,0.7390603524619754,0.7860055941164696,0.5708938604816223,0.42044837361000864,0.7028405803408697,0.7811010873859106,0.6974721046625323,0.7059236933183128,0.7250139556171744,0.7125802129101029,0.7762585057988116,0.7002479247413183,0.2490607650713339,0.22873962795952574,0.5863614249615101,0.5712363368549673,0.3784754476862422,0.39384330055257966,0.47703800418111486,0.5158059740239223,0.6021244540838127,0.7056570581794794,0.39677583752755075,0.1432798840628755,0.5180974610977676,0.7855497729572325,0.7311359714510139,0.7314774458475508,0.7678545922615894,0.7565596263839267,0.7241353523156846,0.7305591666141198,0.397315546224426,0.21361374996322446,0.5756849110970426,0.7443489672431403,0.677650903791748,0.7063153958604871,0.7165250127529044,0.7084366252019341,0.7149624312104463,0.5652731580184187,0.42978526764022007,0.6619413175520368,0.7249725920402068,0.6787423696129573,0.7187748052990512,0.7384472290783628,0.7253581526090036,0.7628515787215995,0.5541241300966884,0.3949887994812471,0.6882594380574742,0.7088373887509318,0.6169522515673989,0.6540551131020975,0.6743895687836172,0.6433636723236438,0.6803067349529948,0.37564350086137166,0.07858078531608825,0.42059722545529477,0.7076109228480392,0.6731123918506343,0.6498190633005758,0.7001545254799577,0.6865675828605999,0.6749925765374729,0.6769031195213389,0.33859655425046364,0.23512127181582443,0.5979318153961106,0.700851395161497,0.6336687349412964,0.6717562930168142,0.6969681929522187,0.6760501364797569,0.7102860165681042,0.48995220730037037,0.34553770570061015,0.6500210339854338,0.7201029329415793,0.6748755464054179,0.6923923319409329,0.6991514188983476,0.7290186721956342,0.7588530444998858,0.6022222576891858,0.6095063348903071,0.7660751371647465,0.7140564389984521,0.7169457223298399,0.735725427062822,0.713024156542684,0.7335516826599267,0.6655149593916065,0.39113134136456207,0.5307617007371017,0.771905422367285,0.7179444537198991,0.6643576567786855,0.6705204940699963,0.6926355056622127,0.672027219701175,0.7122650165867115,0.42785704135057934,0.0,0.24768373382719533,0.6750319727923371,0.7941956502340006,0.8089170400627141,0.9290737243665204,PM
0.9905900426574044,0.8162001052115953,0.8245244968138663,0.8836662777097728,0.8693792688911066,0.7121016486054346,0.4555587812912636,0.6819147486042514,0.8140198247940034,0.706709272288105,0.7251343606371425,0.7188502199944278,0.7761962617333151,0.663948886658899,0.8333250430828585,0.9197678946554313,0.8094061746767927,0.8177015430387242,0.7961209330419343,0.8421309818276708,0.6822902831537041,0.7892261868290011,0.971037704185211,0.8051306046467333,0.7789393347444664,0.7683892507522954,0.7915134637898102,0.7402581556752794,0.6572805620147688,0.9174943905780135,0.8279711888686099,0.7771493397133893,0.7470449275419149,0.7672514401238175,0.7429400454489055,0.5196235091813173,0.7436067509762907,0.8444691405744211,0.7155570506913291,0.7521435267032737,0.7750604606908511,0.854344991836617,0.7364767830963015,0.698161201276732,0.9417897944148037,0.8135907074782998,0.7814775123240796,0.7628231063872126,0.849567917985464,0.8545653624378642,0.6829552304410254,0.9339249413283723,0.9513897994109373,0.7942719995256964,0.8317201499657583,0.7736856817417841,0.8115683045153006,0.6735882089195664,0.7603803322008325,0.8770563742660911,0.7319923440201539,0.7359666073064228,0.725797326627942,0.7648812903448461,0.6425300379980354,0.4292183972718162,0.6172562751587451,0.679099228796268,0.6513137759241601,0.6569901101836604,0.661270409626763,0.5535364401118685,0.12073565849244927,0.05660985135265495,0.48062287434510487,0.7382875205067125,0.6999205521070291,0.7579253083022786,0.7224942953359736,0.7909723717065316,0.6065353431398306,0.21147103425958447,0.3624628771712355,0.7493233902607166,0.781300805065382,0.6929033635768727,0.7161979922791155,0.7186215763678443,0.6604893105046674,0.23733405532019636,0.1328933918443529,0.5412014626005912,0.7768466756773422,0.7220437697767237,0.6879646077048698,0.6453898110561225,0.6728112471409291,0.3338963988880639,0.03343070302681328,0.3564568908097496,0.6801626073045346,0.673890779914234,0.7011087699803615,0.7137123968225709,0.7321027871715096,0.40254866505469944,0.08442375479233055,0.38582557444312915,0.7010340070453678,0.6908097813264364,0.7118286284588313,0.7065591533613169,0.7352568790601361,0.4747712651852911,0.0710128201925957,0.2559919144176004,0.6660570614488404,0.7659445736974855,0.7309210841820553,0.7608589690677177,0.7438446050585479,0.6837005034361143,0.2691313831402826,0.13702604901066118,0.5275637452240853,0.7047520555076383,0.6422455568433418,0.6512039038652981,0.6327356528070496,0.6424111324388528,0.2809972726193586,0.0,0.3208167222720715,0.6744421582924476,0.8089300013782095,0.792664023979758,0.7440888531536811,0.767959828944677,0.7339059488588462,0.30524520541379685,0.20004602038133035,0.6106007362087049,0.8242433304973618,0.8113089370356092,0.76990186339263,0.729464365038464,0.7952786912798124,0.5020482004163331,0.12677483414012336,0.3447894600870429,0.6766710982511617,0.6887124802189848,0.5814992633287488,0.647182780466788,0.6970490861870324,0.7118148511968159,0.3249642174474636,0.15908212099677566,0.549097458533977,0.7676062446366803,0.7184819560821245,0.748198515448933,0.7547470007540493,0.764101261868283,0.42833374778689204,0.1409208595307898,0.4057650842247982,0.7599115691460758,0.7912353683178883,0.6621521519995339,0.6622496544399874,0.6730828656945054,0.7489226286938842,0.41418081890867553,0.15534353595213513,0.49894596117292433,0.7542660139153952,0.7224911035333976,0.7391692093823168,0.7105992009191191,0.7181881344900052,0.38645507545477775,0.05161229335906703,0.33750137218124054,0.6911824245726435,0.7266733308635485,0.7038524442618435,0.673398157934533,0.6833506592359919,0.5427281015031793,0.1114332794539632,0.1489042374730254,0.5607023942504363,0.6946887602236931,0.6705898152041907,0.7269832668571183,0.7497476465958419,0.7800946044723285,0.42993714458492116,0.13981397581489396,0.4541214674851397,0.7796126683228932,0.7433530047079211,0.8779740540584569,0.9329602803178307,0.8101037366923802,0.7807864916290834,0.743317873228639,0.7684782256243663,0.6073527899798834,0.731636135414987,0.8586350775684979,0.7424191172448948,0.7708086424963738,0.7801027773424944,0.8130490138226139,0.6408825756861214,0.7309007023697962,0.9048051465254296,0.7864101132312635,0.8124606235883671,0.7982740154567181,0.8380142469953817,0.7409079257425168,0.729826111549795,0.9558696216220963,0.8010695074678227,0.7287768507023358,0.7329728128731825,0.8301244586356753,0.8969776331789872,0.7272317048990129,0.8752981320219457,0.9066074518401894,0.8211143638506995,0.805723836825436,0.8012609931990848,0.8568681715697006,0.685372250511449,0.8268076266087032,0.9046557504797055,0.7556421862247364,0.7020276565944954,0.6774705741862794,0.7805285138506524,0.6992058023245848,0.7448860770330352,1.0,0.844735210080291,0.8197176659727232,0.8627646563877556,0.90182974348967,0.8694906498936219,0.6911002023453718,0.9306930789510144,PM
0.9790508219892745,0.9563359830396038,0.7450628253122243,0.43506419747799707,0.6294796706096394,0.8545076293388961,0.8384164237194526,0.8861619414959697,0.8640075943757138,0.9062435269138666,0.9311398632910987,0.9305046411251953,0.7003349922571093,0.41470365720862545,0.6546470242230421,0.8628293044338068,0.8467870988350249,0.9031879999952867,0.8941259213104146,0.910531783405128,0.9282648814792006,0.9133388882156136,0.7311401448693934,0.4174076806547745,0.5745253361622681,0.8575683760485847,0.8374429541080078,0.8928459909168932,0.8862587692740652,0.9229461559348681,0.9595978244649629,0.9571538515938088,0.8412812524990215,0.5030503738001147,0.5166184579905216,0.8347659356970302,0.8363103516956919,0.8868733766174254,0.8829583583065456,0.9058125184826705,0.9404198996930312,0.8768366642615403,0.8484931698558315,0.8124725871199209,0.8247913863289481,0.7637136885040251,0.7569543716251633,0.44345941948155543,0.10816732111839278,0.3151926250019551,0.7188506740792947,0.8800152907735755,0.8899738891284735,0.8361984744784342,0.8196627150526997,0.8086554847745079,0.7491914621108576,0.6755920174775342,0.2740596632441715,0.04212630677253493,0.36934917355107355,0.7517875567337332,0.8572846374108946,0.8660311379099227,0.8332267074925354,0.8339253063232978,0.7905909956891376,0.7722104924869791,0.6006076298964692,0.17482720300065624,0.06309948272026478,0.44909189005876604,0.8027322920930188,0.8651233700912483,0.8377479665917035,0.7941894874095533,0.807692257957303,0.7479777125772914,0.7390032100598477,0.39094612084234004,0.08287071311805472,0.3158658395612378,0.7200248082766073,0.8877438623835064,0.9184573603113065,0.8744414937561732,0.8462543564779049,0.800185803038424,0.7539026687228377,0.6654123143702332,0.26043833778815484,0.10689177608708766,0.47126980587571043,0.8106022202940205,0.8612371334803769,0.8504252054318716,0.7912404281358193,0.7979984280684692,0.7605964266185227,0.7374703866441091,0.5856401273903525,0.1616510405477064,0.0,0.3696469713666165,0.7534630302989357,0.8465311738822948,0.8474818857129637,0.8086940286166932,0.817667694245383,0.7831941026033634,0.7674731653331254,0.6202639003753044,0.21520420082657166,0.13512127237469385,0.5230748700702065,0.8355978616162428,0.8880319364451245,0.8709498642353851,0.8289582380631225,0.8341502648063522,0.7615153870248349,0.7673201302198308,0.48002926622227926,0.11472022124684333,0.2590184975406419,0.6608584168769246,0.8698646572341561,0.8777488853438554,0.8598631341004946,0.8254469119649562,0.831994350967668,0.7694793714543292,0.7786437370926823,0.5396250025813351,0.11616305169010366,0.06471963873615116,0.4584235784131624,0.7992084079800473,0.8639072652313066,0.8615372705906933,0.8057680989380412,0.7946493510765241,0.8150920927225803,0.7630660247153119,0.7217434659340652,0.3403813533720813,0.10326923277312783,0.4194196980430528,0.7880426353514877,0.8794387168338608,0.8665336545841055,0.8209418686908275,0.8305339734741549,0.7995478856022898,0.7600933950402841,0.6469963444487962,0.24117959398538968,0.12442042976837586,0.4896943378772364,0.8143253362085449,0.8775076679200401,0.8544863737880432,0.8024936382458071,0.8068830566697199,0.749336185684888,0.7633412644548901,0.5747788890704765,0.14804447484560146,0.02911957805529375,0.41526409413279775,0.7806660798106259,0.8647389925347905,0.8569073197408242,0.8105167161051058,0.8738260641357395,0.9335638026189511,0.9297779869549149,0.8411055545398648,0.5049014101226968,0.48472746262796373,0.8096664985137058,0.8192534358486684,0.8606693204565398,0.8628494600530919,0.8804103959195174,0.9457821520674375,0.942297766994375,0.8429974355493138,0.5035169250286756,0.48765991953628374,0.8128874970941359,0.8342716683897194,0.8902010579210818,0.8879462368853045,0.9025323077821926,0.9404465401223606,0.9528613887172986,0.7878662588732323,0.460914431974501,0.6000225456816682,0.8778948731236137,0.8453543634259216,0.8841559324146916,0.8639268396751062,0.9159336482129802,0.93493807214021,0.9353385026603332,0.7510747186159544,0.42390089368581096,0.5731203169489171,0.8515251871244766,0.831954457225805,0.8977609021316334,0.8931019411841051,0.9050472869803771,0.9418978148085325,0.9413730947892464,0.8351689462060853,0.5024978858016494,0.5489563957656299,0.8447047569271117,0.8344987833668879,0.8913666678198321,0.8918159690305213,0.9364670471930622,0.962278753885711,0.9426586252729933,0.7648914965962391,0.46480909204172705,0.6573820413036547,0.8674961566141076,0.8406484450011188,0.8842615606269718,0.8699867361212169,0.9190308824760188,0.9137404712586713,0.8814901149911479,0.5910185208692614,0.4097561472856054,0.7189824003605291,0.8324286165713152,0.8268660129603412,0.8619793689337926,0.8589705496419852,0.9199924212020524,0.9320942004753622,0.8549512368434019,0.5165944008791371,0.4287605535961808,0.7711100882464023,0.8448397257921255,0.8848933215233205,0.917006856021143,0.9305091469770675,1.0,PM
0.989354870548267,0.9322342937115472,0.8757630363743755,0.8331895126093064,0.8713978653117808,0.601695694881294,0.6361190473387893,0.9430252872338775,0.9321430945285994,0.9135972506367623,0.8436015344449871,0.8513874707294414,0.8487480964645172,0.515747576357781,0.49730632712345335,0.8650464801175554,0.9297296946933856,0.903148690054509,0.8764205390548024,0.8320788848306891,0.8946683076123213,0.6864569711858622,0.7644097954149717,0.9519340828438984,0.9011874287471803,0.8875371635900867,0.8815486952217034,0.890725049290675,0.6818076732772812,0.8746370316017072,0.9260990849416207,0.8808520522402884,0.8507985640471908,0.8828172238068398,0.8399384969281062,0.6477219307047973,0.8891007792948059,0.9396462148485131,0.9230839714808684,0.8729602395510699,0.8934696784857666,0.8455842405015114,0.5493252388214186,0.7204609888146761,0.9903552296118344,0.9302652543433104,0.9079914724011572,0.8322226866449726,0.9107034867206264,0.6913910599640146,0.5222751773796719,0.8459231379574254,0.9644729963932567,0.9150822879860553,0.8421322212004981,0.8459584139282262,0.8309635748288823,0.5306558899813261,0.65376202785579,0.9540197570697527,0.9316921062445688,0.9274471787031954,0.8552261219278646,0.9283748678833114,0.7486797831685396,0.7482271418749452,0.9999999999999999,0.9454678600876872,0.931185273568624,0.8542824931281393,0.9118839499355079,0.7012290321797766,0.6756269628880854,0.9683282688792899,0.9415406083952188,0.9236561721405286,0.8352116273380058,0.8884828582425447,0.7767032806879951,0.43298653354482797,0.5483495104912965,0.9202222102965308,0.9300591150117891,0.8816859502207427,0.7514124460610584,0.3285953924349172,0.07441454630284944,0.3679780001987707,0.7663951940586519,0.8190918745454695,0.8066832315314293,0.8870109610469533,0.8893072004048713,0.7480252722331194,0.3338459401194752,0.2031471306557764,0.5780209697642327,0.8582438096205572,0.8054548400600213,0.8838994915300512,0.8906286455631679,0.8663969567242157,0.5239118950897338,0.23654836058089512,0.5097063237395424,0.8528528512428574,0.8190461653339508,0.8468854402331888,0.8836925328223387,0.8678135284231457,0.6059043103806495,0.18473376650802242,0.13926430546303803,0.5420870574711683,0.830794355469522,0.764645672585193,0.8358591629252169,0.8666431983959718,0.8707833921447615,0.5635097502065269,0.13490450977646773,0.09973365014796898,0.5120364911552743,0.843282712983988,0.7896302115573043,0.8394193233983144,0.8813135383442569,0.8742274046414978,0.5681412024026196,0.16176730271259343,0.20801180029736843,0.6218392273848151,0.871325056809834,0.7955547481878537,0.8698643091808681,0.8550813882592513,0.8279560053074911,0.487098861489343,0.1776037799989304,0.4208359301078829,0.7986538709918248,0.8315534043038132,0.8071725389157319,0.831405369917685,0.8378561335820517,0.6680481247518452,0.2998087902755061,0.40010310494455814,0.7834380493317986,0.8437796230085902,0.8262981002667363,0.8632452580465365,0.8504625460153895,0.6273613327508331,0.22896852707622606,0.2695724018062805,0.6752946712661055,0.8310946545191696,0.7828295084094911,0.861498860031397,0.8511561649598446,0.8167911565415346,0.45797568632141605,0.07494135419240422,0.2010340492130852,0.6296309877386291,0.8462974127831026,0.7595204943827351,0.8481418157324506,0.880235490395019,0.8718261649993849,0.7072332366450779,0.3026627207921311,0.0,0.25811522495547323,0.6858833099966105,0.8315006595506184,0.7711003068541374,0.8784172536806832,0.8895432623876512,0.866763519486763,0.5122497652257012,0.1189584539671551,0.2168176669530235,0.6456222541576945,0.8809603651058141,0.8010139147540901,0.8826618844304469,0.8661820810261162,0.8362044967284553,0.491473429111946,0.183514448909758,0.4234333897975291,0.8002087748349384,0.831627380664982,0.8488593387035076,0.870235643666636,0.8649285673592167,0.6381568247343273,0.23777361523059715,0.28120744488386007,0.6880405697716415,0.851006275564404,0.7817938759308977,0.8610901141084221,0.8418933810046144,0.7624116175588719,0.35841355572087563,0.07748148454466447,0.35428660909680854,0.7470844961285691,0.8133720551999829,0.785008964826461,0.8806908261875775,0.8723111588419045,0.7350128408479192,0.3118295902428392,0.06624261203545428,0.380511064706044,0.7737480013971788,0.8064511005910292,0.7958576821822171,0.8870233614496387,0.6054776161324656,0.47205037560170604,0.8169640417704868,0.9604636056490973,0.921625727052476,0.8564437028918529,0.8499367372806993,0.8636155952562753,0.5851445580915681,0.7009944693960434,0.9437234635313919,0.8912592722491205,0.8879492531798406,0.8293805068700418,0.9068314669756986,0.681325753006864,0.6312787236056717,0.9326286567947227,0.9217300074536782,0.9351283849317212,0.8695922826458448,0.9147574512591566,0.7771142167312924,0.6893358279553808,0.9482470193447824,0.9278995781084601,0.9260409364613106,0.8508412282063654,0.9305453465350632,0.7381162216167926,0.5822585637959543,0.9011355919291196,PM
0.9829468261358107,0.9213674528408207,0.9430711860674548,0.9357724464586405,0.9148600932659341,0.9432172099378704,0.9902819073419264,0.8762458622318026,0.5508270442441288,0.38568518792383827,0.6631628167357113,0.9420505095049714,0.9167210953819507,0.9021583911247353,0.9287274678491497,0.9251072145775938,0.9273369754979492,0.9796072059191341,0.9578533930301998,0.7262398237046759,0.4195784525208191,0.32518909444495353,0.12736069886052753,0.0,0.3130788025371632,0.6294047566554581,0.6514033090663895,0.8218850807249416,0.9317751825414957,0.8984674104237156,0.861630330500075,0.8713880373461502,0.8794332566074397,0.8469238452634698,0.8506739009079287,0.7690725952370754,0.41611879928559065,0.07639255392406002,0.12816476751874822,0.497135833567619,0.829772134408953,0.9280094133317633,0.8778763148033899,0.8620468285756473,0.8832225549261552,0.8881450904492296,0.8589928092397598,0.8888244012728996,0.6950007604707051,0.3184488315035869,0.06373239274926584,0.2825225215988944,0.6612923703146238,0.9186512850647766,0.9283758159303579,0.8697194073618284,0.8655649486076058,0.8736043413091406,0.8545525299874739,0.8386457712585722,0.7993388509093016,0.47563402039393493,0.11345534151353359,0.08457741568096416,0.4288468191006671,0.7769930598356098,0.930237050977933,0.8880506393677192,0.8573561457490664,0.8713424750510541,0.8711875677942003,0.8551088979944539,0.8584264406484956,0.7901876544043791,0.4443854858879985,0.11383753115604905,0.13872181551758705,0.49613630026270755,0.8328580726017327,0.9362804474093838,0.8827703904237936,0.8598761188890254,0.8761976965747764,0.8733014605810292,0.8389485394105625,0.8692429283244494,0.6927522182047436,0.3170287725268119,0.00954245869846354,0.14984513676647454,0.5300321808837452,0.8529641056219133,0.9322650578526754,0.8768131560482264,0.8567201295286244,0.8682251491251944,0.8714409936879985,0.8298375342370132,0.8627472436034318,0.6602965273962993,0.2871686488425201,0.04566077810968522,0.25083503471712204,0.62946588263937,0.9048264758032196,0.9229094633802426,0.8634214186398719,0.8627547343012314,0.8791642567701492,0.8687593946550909,0.8312459986395233,0.8665728712565752,0.6630728596464512,0.28758362657564257,0.07521010563952307,0.33500502374630187,0.7085249190715175,0.9225389272291267,0.9112466430016699,0.8675164187185627,0.8809354235918219,0.8775355939404916,0.8377397753977516,0.8574410932128524,0.6994836495947829,0.3268942529332783,0.01962672378959457,0.16153814010784423,0.542013342829547,0.8599730711099876,0.9276173844228768,0.8781099344720582,0.8671978159773082,0.877855975656501,0.8652514559187134,0.8497336060244229,0.8388267254797583,0.5233328417494705,0.15497099263755715,0.07558962571895217,0.41151946559547964,0.7766846650381949,0.9415996568967024,0.903605236415338,0.8673383826509582,0.8778458609788471,0.8752755622953703,0.8468296225008312,0.872463581040098,0.7522041718411612,0.395730211987444,0.08763027774607918,0.15810791370648875,0.5282980994498727,0.8517477648704725,0.9440573930550846,0.977034042991378,0.9313976741536059,0.6470745868611183,0.369831637620974,0.5626057822719563,0.9017082894155997,0.9502637328985188,0.9030706084127891,0.9298929487031937,0.9262815747251818,0.9227611120888415,0.9753963755568036,0.9745491381951741,0.7477835443483134,0.41232841758690136,0.41866144678339107,0.7596910494938482,0.9786709465116135,0.9066319466153017,0.9164123199933549,0.926230428600884,0.9182451483921494,0.9225112961306552,0.9794073027449484,0.9476978260122342,0.6856458377511256,0.41518316331909005,0.6030793493109006,0.9224499216891626,0.9284130037444405,0.8998704403794779,0.9303922860086904,0.9283109791318682,0.9192979002213544,0.9586513101002692,0.9695449376894345,0.7540636825011566,0.4052910353951869,0.37735698060691786,0.6898778320295968,0.9579477291811636,0.9284540932692082,0.9098063322355991,0.9298943364210743,0.9283833921378006,0.9139114192820543,0.9574606086053885,1.0,0.868564126393407,0.5432971978745575,0.4947176487972664,0.8256314340298372,0.9738770221914321,0.895943945371888,0.9212565664057837,0.9242717901821336,0.9136498954799657,0.9563142258974215,0.9900855299186497,0.8148433389695999,0.4596437124617572,0.28260934885655037,0.5735153926120959,0.9100076081237378,0.9424656106402802,0.8957004073724084,0.9317733363243856,0.9272521932302595,0.9174500685336573,0.9635949389772107,0.9828995070723876,0.7870972265143223,0.4397445344517657,0.35671194262776845,0.6899557662469753,0.9589368474190738,0.9151895527708374,0.9117260828935052,0.925215654822507,0.9200614025576581,0.9252292848926815,0.9815242447440327,0.9243138836013163,0.6214684419409813,0.2997894095428609,0.4130509482298939,0.770979286221025,0.9648389144817886,0.8927095005420373,0.9200070917432714,0.9305477735378884,0.9233137693307107,0.9302654109594319,0.9934903250387135,0.9642026006360809,0.6909262167036172,0.39067900191125143,0.5415071462496452,0.8865577651551486,PM
0.9710258094711066,0.8553637858341876,0.8544537312889133,0.6843168434426885,0.7752441727636752,0.7756608401559495,0.5994681081098046,0.5855977445727643,0.7484848515529383,0.7236531925186855,0.7652544929103913,0.6363290014565788,0.7551359852411688,0.7812325366050108,0.649195742969864,0.5273027907618415,0.7652093183236612,0.8577567838748581,0.7578750678414168,0.8540319968006895,0.7359445553139219,0.8594539673719792,0.8717113989206524,0.7112489959059816,0.6610741888584433,0.8898131645413678,0.8651931493538183,0.8434765712265655,0.8284159281804966,0.6740859732859081,0.7564098832038679,0.7039330246129656,0.5003177725804777,0.5996702056805807,0.7238556187322258,0.6495084416321699,0.6958591418107498,0.586504929235999,0.6985550052622798,0.7045779818489564,0.6702439045365627,0.8675159404217001,0.880640947224542,0.8123093783218707,0.815235522244921,0.7440926811714359,0.8944157807538384,0.8891029182332542,0.6518912932592844,0.5620697555863732,0.7239840805322437,0.6911401063761735,0.7113543521906909,0.5941246263856743,0.29580911129811804,0.002429469467482903,0.19425277491161275,0.0,0.31132373008244985,0.5466562411501954,0.4402669056619781,0.5358719392766895,0.49499318959056726,0.3812417523650149,0.600220093236393,0.7389183248599784,0.6518711005663835,0.6234831966344228,0.6921653539626869,0.6074581389362743,0.7989064579660119,0.6887420239030022,0.5217777741310994,0.6020150513390097,0.5495477263185289,0.43028547009793705,0.564935750736141,0.493810228178607,0.6081839071611945,0.5061724386468196,0.31528337349089774,0.5081543665385984,0.6404177314519668,0.5502041958718493,0.5660093442990322,0.6845808387830199,0.6480919461185146,0.7628983644827443,0.5740256346050425,0.5165661693842947,0.7118927655481997,0.7332501903277264,0.5866382673252208,0.6910716017262537,0.5983665447968756,0.7026218411446212,0.6313138552323365,0.3983090869721777,0.5204960115565158,0.658398501101352,0.6073152783869378,0.5113357549678277,0.5824805302975289,0.5306986281273631,0.6289582382637491,0.48022405876023244,0.3285806042200514,0.5477705110504147,0.643731783184053,0.5315871497691385,0.555345475844613,0.720935665808708,0.6665169145265195,0.832302488519868,0.7910858631599043,0.5285489157314278,0.5197329917033704,0.6228827987844214,0.5335921944626745,0.4909344157119344,0.5666771412458123,0.4325275662140262,0.5899644201401935,0.4562791445059444,0.3730432491345894,0.5946270532314766,0.6419438297217601,0.5297714072041866,0.6431157810057861,0.6264284899594856,0.6485004291881462,0.582491322947047,0.35966395278366425,0.5409194665634205,0.7094264554795955,0.6546100168099738,0.5668655088269912,0.6680685882069741,0.5652656270531318,0.7054183824869034,0.6092857175557431,0.4220088657062959,0.6016526710395258,0.6600542193061676,0.5050352280944961,0.6016415418901171,0.6426445797020803,0.6206447637656178,0.7273240508996386,0.5178869428957218,0.5549679680908288,0.7334105342582062,0.6103688456870837,0.4578164358343826,0.6078746717569281,0.6243880837316707,0.6603893050252392,0.45192869882792186,0.42244349746997534,0.6527818478615188,0.65174791648352,0.5277656247355393,0.6283371760321179,0.5816749294927837,0.6623595456985307,0.5271101946676993,0.37996336403016473,0.6087089580338545,0.7077438806470999,0.5703579374065324,0.6418793261201778,0.5984374228538818,0.6434496147810567,0.6444734199158155,0.40442274747293583,0.47162757254885257,0.6641366924887095,0.6152990226036081,0.5222070972562589,0.6891611588434494,0.6746721445815687,0.6961008079984738,0.49348216284615853,0.4024692947971915,0.6299048392671893,0.6251319450959252,0.5411588805193084,0.7638178953595283,0.8129034546448937,0.8160369823859859,0.6781297439250751,0.7046406861432524,0.784300382707146,0.633508685523299,0.5649423067262989,0.780324203931491,0.7680256100433307,0.7595151071649062,0.7506656055884133,0.75002020855004,0.8502338122849693,0.8010486261377356,0.560950694787095,0.6260684680087549,0.7842045163167537,0.7464906523076245,0.7846442690552209,0.6711030941456992,0.7460240201033401,0.7845403549176675,0.6090190238835613,0.5333086701129841,0.7455381783779713,0.782276112261028,0.7619530050348158,0.6385093041779606,0.6800557637527538,0.8466767045780692,0.7688296637822427,0.622699066800688,0.8167025372963019,0.8085563435239793,0.782824176935514,0.7566507119443808,0.6433194464006364,0.7808800797787501,0.7516807303221551,0.593598296585113,0.7636549013916314,0.8843047619880999,0.7994824695646434,0.8319661586430551,0.7018921756120005,0.7979042247790296,0.8423934770084744,0.675493986684732,0.5323004099798081,0.7295658123602893,0.776703488348125,0.7838498268305911,0.7367657305079094,0.7178675303630015,0.767314509216527,0.6319982210297801,0.4912881607406865,0.6926091849169005,0.7167924098530207,0.6265674206329024,0.7382395891898668,0.6108738245519785,0.7276045696074802,0.7578624311603002,0.657689569946629,0.7925564521608086,1.0,PM
1.0,0.9239584912322409,0.7673873411019478,0.6609841587364182,0.8255888716861013,0.7761313363692537,0.7855987431251998,0.836480727812507,0.9108653285236579,0.8680385050094341,0.7054922620767772,0.6420658396360759,0.6835954247870442,0.6164067290935722,0.6821458518407204,0.8168108730127983,0.8814561197445343,0.863257165538962,0.8285152855076521,0.720396448081642,0.7494802259085547,0.7673795424741763,0.6712497835263052,0.7087122487009161,0.7935832881081799,0.8256046034951634,0.7888729082561059,0.7172197686020398,0.7285874198463818,0.7165469720402822,0.6473162914564443,0.6628594340494316,0.7217221775559963,0.7897450221293258,0.681345481156542,0.6196330996486488,0.6566254246095817,0.6193928012031713,0.6284658967339687,0.7098764075516915,0.7644403950738399,0.7269701671223809,0.622346781484389,0.6308604594366192,0.6942995432227175,0.6630462712621847,0.7369266542687365,0.8122642561502316,0.8046103220513157,0.8420907107744027,0.7869182976474542,0.7290306159273086,0.7591291792857291,0.6892597519734407,0.6841475487826689,0.7993565042865547,0.9145165642175139,0.8884211779122198,0.7671380249133204,0.6865595493580772,0.7085975077489683,0.6541270487873967,0.6570564922797137,0.7295234962712489,0.8178836450234703,0.7587391863801987,0.6353604258968075,0.6312532466335403,0.6610123944368365,0.6047328296846852,0.6781633129728726,0.7844093277785178,0.7981687693037669,0.8610731736871973,0.7321693496747801,0.6311084863334533,0.7017850501788243,0.6960474417266727,0.6904424748557414,0.7922767629943608,0.8656544689851562,0.862959289876815,0.7932829685421416,0.7329291043682673,0.7695882524788531,0.6990706720117785,0.6742977496804596,0.742107123030455,0.8311483521096621,0.7837549145123734,0.6646975755192277,0.6502861071916208,0.6366353595532903,0.5853866174599003,0.660598334634074,0.7597594006105481,0.8165951961366877,0.7034511667209475,0.6391771406156006,0.6719426252330827,0.6357888281514947,0.6157350088880049,0.528404406278602,0.5378034096592827,0.5877196635645991,0.5641782663302211,0.6421179399969978,0.7075642803782554,0.6911974774988296,0.6484817386811361,0.5804061437891295,0.6801329497215876,0.6784466243831004,0.6765342233671414,0.7273133216522512,0.6631508036845757,0.7476600972903307,0.7078494022562016,0.6002218226515095,0.6312865285655191,0.621516809377904,0.5444152719108266,0.651261390783,0.6747628546318443,0.6117293577905505,0.6810544671185892,0.5966192965672392,0.5328321280643173,0.5948592224293305,0.5489548095585746,0.5683266237923816,0.6700847496468056,0.6728479060157246,0.6677281967321322,0.612511705552274,0.5700944423654826,0.6343333074120165,0.6187735702824413,0.6799611642682257,0.7241782608765193,0.7184316127320511,0.7819300537256515,0.6902019246547941,0.5873538347321934,0.6508670580638509,0.6729405599930613,0.681905247833642,0.7130691393903192,0.6071346878877026,0.7005901988890084,0.6940323132267725,0.5929520937647199,0.6116871541469631,0.6011526361419097,0.5298334172264347,0.588153446988052,0.6327177534130191,0.5969751479218308,0.6309515573315068,0.5389113358855799,0.5558238629639538,0.5821021312943326,0.5492144126743979,0.6227939927892914,0.6608830392571012,0.6184865381611528,0.5929045980941434,0.57162313692693,0.6410835611803574,0.658300718137574,0.6352281444927925,0.687565065580447,0.6103868411874802,0.6836923452817021,0.6697438793938275,0.5825218342445093,0.6639145367271748,0.6947201068624338,0.6297489825778233,0.7097975510485024,0.7038845725584637,0.6730307625216065,0.7611255105816044,0.6586207478628121,0.5335060904718367,0.5981784402548711,0.5930255809150586,0.5584846921407585,0.6846511699260738,0.7799830976205979,0.7453109721447939,0.7626337403545094,0.7056019968388414,0.7121317624943555,0.7273708853002572,0.401392639888821,0.0,0.08747940156160605,0.5003459631876517,0.8032754496562999,0.8678167578242277,0.8215646819256262,0.6258803459550442,0.47815301918442543,0.48203681621597916,0.4361966477940822,0.5778480563172974,0.6080897316219036,0.6006770012463338,0.6725115336235516,0.5826698561689696,0.6526663152138203,0.7201393150365143,0.6747321490148455,0.6591535317960084,0.6615692481688753,0.6145176186205621,0.7177715372435265,0.7217579990351339,0.6915009673973143,0.7021963502194715,0.5945516552613568,0.5606316641223965,0.5456895688817545,0.49251414376878744,0.5891495780734535,0.6445876374535673,0.607313718365682,0.6398389886167406,0.7611497084229057,0.7360648023144338,0.6002670422438765,0.5803955601600981,0.6302649259460988,0.6224790298779137,0.7282912837745785,0.7979179777973666,0.8600763359536368,0.8194333424484852,0.7031729678810086,0.7202565604283802,0.7325567478100186,0.7338293217704943,0.7910394942986434,0.7975930512774911,0.7611230124442012,0.784045139287803,0.6937722745085173,0.6654082329328403,0.6779163835200137,0.5541777278610893,0.553611732752985,0.5622654333800736,0.669218679015291,0.9284774440657211,PM
0.9760559383431102,0.562509971908842,0.3763372634549873,0.323868419387235,0.32888915539438446,0.33941464785291653,0.3085034035208445,0.30413198270473285,0.40783043757540693,0.47138462819595417,0.7857408730022766,0.9002199393006822,0.5305478912364847,0.3391361399245245,0.3366410978761769,0.37278837690592304,0.37941001488627824,0.3218576625240386,0.3435415569675009,0.43356689845395313,0.5064957899100484,0.8571687625980584,0.9284985232143976,0.5305324450978024,0.333243380541256,0.3182452484378946,0.33219998683242236,0.35138877332304763,0.32514287900728545,0.36296358448092003,0.45261336836677146,0.5716221335722522,0.9156398150004288,0.891184744519365,0.48952669440319707,0.3555927955953442,0.3557079578651978,0.41187928802033746,0.43224150696433505,0.36378294628804997,0.3703824510122351,0.45058573975063676,0.543332114846178,0.9030591699706203,0.9223690080438718,0.5122255553173793,0.3413433731693625,0.3299889485261118,0.3238930576446928,0.33657450054952487,0.3121173554822303,0.2398309767362352,0.03479032816721017,0.0,0.0021539438831543745,0.03157722676827901,0.23956478911667323,0.2770552763089926,0.25894018750165304,0.2583927689156147,0.22068999504468567,0.154207318427658,0.5145390724946421,0.6656907142676542,0.42060355391936466,0.3851074416192455,0.28572960046972873,0.3046875652017571,0.371654778978473,0.3415131717544686,0.2843646422335302,0.24237675264859582,0.1633750643764913,0.48313768532063617,0.5955139856494169,0.4066699835970542,0.35875824149543445,0.2510038296930863,0.2814174914372092,0.29140099965091193,0.26468143433176805,0.2522757133002267,0.19404204142473858,0.1530416174085052,0.5179146170200639,0.5625436372879828,0.37974772765000897,0.33042148516826564,0.23392581748103525,0.2967199278732655,0.33268572286966713,0.2897937642710795,0.26817014428776376,0.1647443679933882,0.21593365395473074,0.5892116074690124,0.5253779724198029,0.3644907702728071,0.2880401890110129,0.2193008282746216,0.27423308717538686,0.2757589863213863,0.24460122685811858,0.2832665161537673,0.20295002603143675,0.25026108220740917,0.6137903657040591,0.5644409874689573,0.42944630344583845,0.35111300226663045,0.22866149603871633,0.24294409970160502,0.24226977821139406,0.2088268908850497,0.23318724793059986,0.12296817939285942,0.21128619590886033,0.5629383072489464,0.46948546131700364,0.3794861842275912,0.3017209564665617,0.25608585432054176,0.29909099937944394,0.2475885142650276,0.16221924781271313,0.2243365087757485,0.16285608363296755,0.31128740372920993,0.6231823653541173,0.46562673872579885,0.38425487171054207,0.28620671327505565,0.2659017658974545,0.26722152711453506,0.2837113525630117,0.2945211940125032,0.3111031392802446,0.16881482427112915,0.17881366292863743,0.5214552792893248,0.414519168770356,0.3084288984777579,0.3833071999005917,0.28811013326415336,0.3016902512844182,0.31166248825505893,0.26832566709703953,0.23230078811806076,0.19943341094582245,0.12465731822068915,0.4603284858488126,0.6229052897162222,0.41036545105009714,0.3851031230621651,0.27249892934765385,0.2722743529054028,0.29582499094625336,0.2984274193065304,0.28871774454482746,0.2999542410107672,0.19072143156030852,0.4302627347748975,0.6541736752378984,0.4460610038635797,0.38565127687830025,0.2677764140895944,0.2547851657251987,0.3002662901015307,0.2805048838411073,0.250218558686903,0.21571239677605525,0.14329329573794802,0.4540773339722939,0.47557680578401107,0.35774363621761673,0.2983119122996529,0.21403212983877462,0.2613423997150275,0.2764361090714511,0.2578463838594456,0.319598691793068,0.3335574397970438,0.29773815945191395,0.3024565433343833,0.41001339437769446,0.4785136641754095,0.8141147395184973,0.8950133277076271,0.5059589678090444,0.3328588877530414,0.3237268680784642,0.3477054361602432,0.35983046431606547,0.3261485827707198,0.3304292454669626,0.4499566116478031,0.4971448682069999,0.799748860371684,0.9895489051434898,0.6351779205782748,0.38183431980294125,0.3658550509353129,0.34979113022358654,0.3518651141050204,0.33745149992492673,0.3168036367012619,0.42810903487614005,0.4548311670849474,0.6505905830357623,1.0000000000000002,0.8348436936785568,0.43128752696421624,0.31416656821232425,0.29919540122358446,0.3429597982965997,0.37070300446500437,0.34951630502745723,0.4268977830469336,0.4286845443201279,0.4161776437825042,0.7489445985164334,0.8460139856470834,0.48995425484796784,0.38695724651408603,0.373076795397947,0.3617451618463752,0.3303099132360965,0.34539827837598946,0.31985749949444453,0.4246025875631829,0.47582464882414777,0.7352398682615797,0.9812274078258116,0.6749920544902583,0.3719523882811877,0.28422546559226736,0.2327388856100041,0.31434499282206185,0.3623104417045553,0.32584225021636537,0.36580943688937606,0.43968442307712974,0.5562463554292798,0.9156121677557245,0.870542319858185,0.45947209410339496,0.31669660114220366,0.2829498293512762,0.29486237228066536,0.3036077108918669,0.2855710998669905,0.3645764666324911,0.4821383127717682,0.6142047915489923,0.9744453767969705,PM
0.9632876228417482,0.47970927337269487,0.26655989067769736,0.25392254537852654,0.24655510599667663,0.24383399592452548,0.23557978893143883,0.37251771993699867,0.4297148110815634,0.7458538993712835,0.9820123922394974,0.5979865535876225,0.2824000790829686,0.2289912626267574,0.2127452944782684,0.23336163395181364,0.18264355217282935,0.25036726713400537,0.3385823804019492,0.42130202686466367,0.8088091287311423,0.813773590142008,0.34920719587904303,0.183247754108542,0.15341813725511733,0.1883036392222075,0.20791595775045701,0.20815405505306872,0.3167855447522183,0.39379347855184754,0.7628311041388116,0.9886402669646248,0.5699524223245604,0.20889043668670526,0.16446836094338657,0.12055389349844337,0.1817651539128029,0.17319536935040736,0.18291574179918202,0.3282561400083237,0.41949894327115755,0.7856111254333635,0.983252584863457,0.5621156926405129,0.27902512635357635,0.23569874428211168,0.22988673516854696,0.2827037355597861,0.2689377189280475,0.3715546811751258,0.4253611991902271,0.6511386439258313,0.937188249879437,0.5959222813102922,0.2850946539415391,0.22801225287485494,0.17595712606527014,0.20811504236244271,0.22316822529920444,0.21156974549957264,0.2665077169414882,0.4040109730063479,0.8275995119918389,0.8832986120131108,0.41865614141246343,0.24300400445652315,0.21766242033163286,0.22352328623192452,0.22709902115385106,0.20880468283783626,0.30033787516196053,0.3569534120754754,0.7030367448736703,0.9165724621628768,0.5099121867896192,0.247694562656402,0.21366512824877626,0.24339469889505772,0.29102935561255805,0.2894412476584898,0.37803421591928643,0.4349143560567055,0.6644352787338077,0.979856523106585,0.6633528226921439,0.30905161796530134,0.2392511323582509,0.20614276082447436,0.22132300086501866,0.17012531077861004,0.23058019424709864,0.344939749084765,0.29807178291492553,0.2273040288758459,0.09607976032713372,0.12835645919949012,0.14060092937659485,0.12318174377825475,0.15239463731520475,0.09501032150772648,0.4506729209292213,0.539143990311616,0.3568448968020057,0.304900512167007,0.2109900095061441,0.2183791566581883,0.17297834381082255,0.1221519178707795,0.11724292188300156,0.050905763590511466,0.40148097549327444,0.44897114373831215,0.2511474806823477,0.20504857084363337,0.13248321516217976,0.1679712614273572,0.13844234152204926,0.1512876181950351,0.06892536360973756,0.05230053399277157,0.40339035381388166,0.3185929870122779,0.19337488173041084,0.13551546829030414,0.14681354921338352,0.13393387483400954,0.0868393834608927,0.12107635198532707,0.1135505379818893,0.1977191748631606,0.5578927666592124,0.4273316818605881,0.3376033327917871,0.2579823611612997,0.19225483072783156,0.21697190530040844,0.15899948861144342,0.15048838983781687,0.1157654494028435,0.13555879873778132,0.5377713371226642,0.46169626737925373,0.2903718563000779,0.17205907182130176,0.08317627360467128,0.11893222218046784,0.06140430622543036,0.06570819180633514,0.014485041062222592,0.14834865955216214,0.5460802596860188,0.39153733538383184,0.2609977374922865,0.16697126560651343,0.12674775254978732,0.14326162578508184,0.0768945078901373,0.09026602008985707,0.0,0.10540801901380181,0.4530630101266784,0.31144719150033584,0.2511174759241732,0.12736805033086362,0.12957699187245453,0.16881717720627254,0.12688072133513817,0.15680531580579693,0.10155507198866198,0.22110256180973442,0.5463228311940234,0.38195572135392375,0.30871453305276697,0.17685447376541585,0.16537623480789865,0.17455912017987307,0.1586522791985936,0.16131046251222125,0.07094177357707832,0.4178660949806692,0.5823075369070163,0.3407891075165934,0.2561125842318783,0.10344251592322218,0.10301022417019157,0.0939720452585151,0.09885337279086537,0.14187856154142242,0.053640778929338495,0.41982540178455663,0.6291059001324801,0.3523815332919713,0.27941789520089255,0.13679532536567018,0.11654421283697225,0.13886918460200137,0.09787014725470167,0.14624877287800686,0.09308910063895137,0.21214004180331303,0.6087401308174392,0.4677025788324296,0.337537496980715,0.22648899751201812,0.12595183415809874,0.1495057834825464,0.1061010870225414,0.10419238101426531,0.06731928841068235,0.03936274879012336,0.43811894062778833,0.43130687044290505,0.27775250630803505,0.20137475924056147,0.10423588561144115,0.1330942869737175,0.11558880728437071,0.1615047780134975,0.20529866182855816,0.17750913542311286,0.23564478447341308,0.3487247469458086,0.46587314601629215,0.8706545098188645,0.8429400943516092,0.36481399924034985,0.2016054318078222,0.16626633539382762,0.20072790980233757,0.22292489578049812,0.20884751280467473,0.3507338645744489,0.43365796543706825,0.7007327454387151,0.9367304066308506,0.5680034690926434,0.277460939614921,0.19965596149497866,0.19782407396947965,0.20943969837656962,0.17946707089844205,0.2980820918082334,0.3785464724588419,0.6385796006791535,1.0,0.7241910103996805,0.3020080038699904,0.2354473235632204,0.16652641071161556,0.17317295773851926,0.15557612747055538,0.23604030415325905,0.3655506635964061,0.5257668619226683,0.9466165462386762,PM
0.9776603539207858,0.641595288977074,0.5738694188398812,0.5846071316595567,0.5901782023936013,0.4666771690050413,0.4128859769261992,0.547991308655762,0.8247159365186052,0.9725255813314386,0.6344321104390609,0.5394579067656284,0.5565821410042364,0.5699947125057179,0.5093031847105367,0.446946250596882,0.5449295013321782,0.8407567990856908,0.8732408477875273,0.5663511242134653,0.533843361443405,0.5268032726147571,0.5152277029409871,0.38998501720658574,0.43083699352556026,0.5941776508183505,0.9220319291871615,0.8511474951948514,0.5669558301544444,0.5453169151875192,0.5607142499032496,0.5237092885053278,0.4568008976318545,0.44009020550153677,0.5913444329595907,0.9233486349560569,0.9374770017857079,0.5879168556829999,0.5416917773924759,0.5586676676756515,0.5475060103917211,0.46341468210053005,0.4654432909333379,0.6058043550103203,0.9105513969340273,0.7880523807053352,0.5680121498479807,0.5439608694462192,0.5147780338974974,0.5043688455206072,0.4104331725648285,0.4125265333070183,0.5812096416363812,0.9249299308955776,0.8967905132536873,0.5822829002310885,0.5214854066696493,0.5203330039815794,0.5339770576076388,0.4831086583619739,0.472610966154865,0.6257605850771775,0.9452086871805863,0.8711935725277553,0.5768706182041021,0.5545422022491899,0.5452539431820984,0.5329673477567134,0.4288991839680505,0.48083084846854174,0.7050308875714637,0.9945434660806596,0.7319752467675178,0.5415233358785376,0.5517447949889456,0.5592747992099247,0.5217154033520677,0.39800160560090037,0.4862285002443709,0.739157519164841,1.0000000000000004,0.7072310596513565,0.5065894209087207,0.5103858740869374,0.515051740583663,0.5333245897614449,0.45836456664310177,0.4517784890392753,0.5860849880161374,0.914536399933239,0.8955806250538885,0.5730501405673576,0.5369675682957129,0.5355470065552574,0.552708377240112,0.4705706835582415,0.4477939371731061,0.3558339303282585,0.017472689325097157,0.0,0.010369159477159329,0.004311148695469669,0.35516422400360215,0.43738145443055343,0.4214774886832289,0.3903432665003228,0.4397871512413203,0.6888165780815956,0.5565449577920689,0.3626647958572389,0.3123459512470821,0.4080562589398986,0.4067853747413017,0.38737559566008306,0.40565095068726587,0.6530033346346995,0.6777448862260322,0.41520229769767036,0.2884926887427022,0.36978512538336084,0.43799335422117736,0.4285263856380115,0.3987518608340803,0.5531090003952497,0.6559711235915744,0.41776287574857074,0.30961482912578653,0.36820920102831245,0.43119575662761367,0.4308522098623837,0.429282353500426,0.48871354364654573,0.7077312019605375,0.5537796283648331,0.38387549223086426,0.3636286327009546,0.4339580980353195,0.412567170252673,0.40592746903616295,0.45620087287377675,0.7057037110932356,0.5792575417917782,0.34346032396159165,0.26722905788482487,0.368365380364688,0.3937808227278965,0.4108306491793443,0.40262580707057927,0.5120287398042742,0.6250814321855862,0.425754426353127,0.3244657931929309,0.36728565965530446,0.44750095900377573,0.450396594222219,0.42421248751900364,0.4547321081656177,0.679280453584242,0.5538491805515662,0.35974842740343105,0.30699777095200265,0.4048618163629527,0.4229782117242009,0.41934956094543185,0.4342496307511432,0.6709541312571354,0.5795395562331125,0.3632750790486998,0.26260574013247195,0.36220315589479624,0.4124433692274114,0.4188085101245216,0.40507648302949617,0.5568729889498067,0.6536785402207652,0.4252270520360857,0.3212247892827529,0.39316699695477997,0.4590678263687198,0.4470176230718095,0.4091827148063887,0.47487021190869694,0.706065346410123,0.5365093739838525,0.34933252454224206,0.2832935046616516,0.4225487791147051,0.4695376634061401,0.4613380906169482,0.43735184435387886,0.6047605005085068,0.7293012357383377,0.4691112549424119,0.33066366693748916,0.30007174477328347,0.4213839217630819,0.4411115194621229,0.4133754347322536,0.45207390895115784,0.6587517384675734,0.4907055462070993,0.3618103544944993,0.33147379523163156,0.4415217864740715,0.44497323855704796,0.42865965664739347,0.4794007290454587,0.7031310448732295,0.563860235861906,0.3733429498512679,0.27144670545123484,0.37306338727634536,0.39496195001140366,0.3946688560384559,0.39688292571190154,0.6027027331684547,0.6769842385640068,0.41061859757687813,0.2702997257505375,0.27560662867495633,0.39470162766085837,0.420466767963255,0.49772858469746906,0.5160234371569841,0.45574476952810805,0.36373378748981144,0.47972250295631236,0.7514842285858263,0.9368197467631516,0.6189959308476141,0.499629309488026,0.5097933648745419,0.5020889799922088,0.44688163516297097,0.41967571269289516,0.5701207642085908,0.8797956065342394,0.9743428889433243,0.6278534363832109,0.5497573104615117,0.5636902516376776,0.5625566376987123,0.48455175482839374,0.4658907234691849,0.575899208196704,0.8974165935723111,0.9285795202954477,0.6081720932669294,0.5344537000766154,0.5451280221288846,0.535504248624505,0.4209607074032009,0.46011358691634197,0.6263957866582333,0.9856642107237374,PM
0.9849489308344892,0.7811443101383415,0.8307717581424776,0.7932626419520763,0.8038528952145101,0.9189737125503146,0.7091202722874819,0.8401916494343662,0.9360257781965324,0.8095676394841704,0.8374416834412126,0.7924409182234728,0.850694886984225,0.8996988123356657,0.7022472930834454,0.9121563648204059,0.9143027245966295,0.7578584027869826,0.7832073084762414,0.7375471861406413,0.8250002569279995,0.7855788640217569,0.7474353230413304,1.0000000000000004,0.8437601472232328,0.9009818499578253,0.8572932086811886,0.8621369026394778,0.847597645017824,0.5714627032555142,0.8576200519616619,0.8286545477986222,0.7633693546196132,0.7734230812393919,0.7534259794951486,0.8743934850380595,0.777762359793774,0.863740709560068,0.9122525861507804,0.7432898424791055,0.8093535214710958,0.7761245466258422,0.8491971658881989,0.8906589786562695,0.6121184911750364,0.8640720392213654,0.8418042466394318,0.7892835334553285,0.7442898710019779,0.753205780700402,0.8872944691230233,0.6763691498629343,0.7527630350152212,0.8797028419915267,0.7559283623150832,0.788923287665146,0.7377321223660993,0.8579967962355712,0.8105441712824546,0.5760526878199794,0.9286038724817129,0.8302504090407914,0.6492065125441249,0.7335544794377236,0.29842317097525983,0.0,0.13454810334189515,0.40993825454532207,0.6890762230288461,0.5776417068272832,0.5571657537892936,0.5705663096218174,0.5264375277565851,0.6808904011932513,0.30460243668148834,0.4004415835920021,0.6410400105198897,0.5268795427546848,0.5283818309741277,0.5762746693805649,0.5995874828629435,0.7028129463673047,0.24577338608049182,0.39548688587823433,0.6916174952542344,0.5796163253740683,0.5926648272106969,0.5684162401487929,0.6107675351576791,0.6182883179984451,0.26539796026568574,0.5681222342628223,0.6282301718928287,0.5239990869893294,0.5784110427509979,0.5642970516102346,0.6232386783138018,0.3739641335875423,0.13746957826104644,0.5748113886046671,0.6711330835812501,0.6235211366875189,0.684845681743631,0.6276333989214966,0.7180050767750177,0.32355038082200727,0.23123429011646124,0.6085968208919157,0.564618612100964,0.5460062319141374,0.5826617891809365,0.557322301603179,0.722680914005442,0.3723290764451628,0.4016707945096507,0.6627521328820802,0.5904351247419206,0.6045000170375774,0.6085208865994463,0.6596189491242752,0.6038767449569895,0.17296323210350417,0.5286544503475867,0.6946867337685498,0.5678738425574954,0.6183872615548509,0.5901150108558908,0.5841663172983806,0.7373062840291769,0.342110149545805,0.5056209964005194,0.6328081990999905,0.5054949389343304,0.5666305756229852,0.5699690008111262,0.5419450486280466,0.6349341079641264,0.20250909881007972,0.3875179801874986,0.6073615463870667,0.4682958154453347,0.5362158611277379,0.5625953261503551,0.43957360566659487,0.6264473467158598,0.24550169259883203,0.1844118797255727,0.6564497659522086,0.7061121296358221,0.6130720334323772,0.6712760259616002,0.6278090019206797,0.7483659226492123,0.4849758848791117,0.26340074462424523,0.6461302154575699,0.6142776152355656,0.49539226161077954,0.5509987005422845,0.5524968887054871,0.6648403560388187,0.5929314731308946,0.35878600154355,0.6506722817416692,0.612758056645295,0.5751402121970646,0.6437563146011192,0.5821490930818483,0.6068920087964198,0.426714034457226,0.10811864610455402,0.5412843623114303,0.6457580352077095,0.5724954197947962,0.604578361723163,0.5544368137517015,0.6555614296404522,0.6029261007455249,0.1933515287522769,0.5276010247087282,0.6189604715207802,0.5528332075057882,0.619374478038718,0.5599121522592871,0.6675186390048164,0.5755824503160074,0.36785469022403205,0.5708803872917052,0.5364820268669401,0.5452463369498273,0.6207485487702269,0.5681612570436392,0.8106558543497235,0.8863347599068905,0.795781426325552,0.8425563245082599,0.7432127654805432,0.763327981037127,0.7984523225965305,0.603565276251607,0.8973754698586656,0.8893216559105581,0.7910800532802633,0.8311810945043123,0.7680560946272235,0.8408732146571176,0.7986371586730532,0.7478305061308963,0.9830075127982396,0.8057807241716728,0.8177994058732589,0.8328397467249142,0.8429417359811961,0.9281021257129578,0.69185228905258,0.5259037735982757,0.8783007538128254,0.7769177566816494,0.8594868416659884,0.8277087884989043,0.783867465647027,0.8930481031606949,0.7545107096034545,0.8754399279422533,0.9163905179144627,0.7983744987583772,0.7847927675048676,0.7295138936678707,0.8027328669675051,0.9301505423433656,0.669064137211639,0.7765435226177888,0.9725708113716984,0.8667370604102822,0.876324565613618,0.8225128655757952,0.9539129691933659,0.9276410875619301,0.6753008716209243,0.9175996998458396,0.7319638775844708,0.6661975688131263,0.8142631646403289,0.6915211703734712,0.7521479175553005,0.8295214676468086,0.5630262519972056,0.7595332919046629,0.8327658836225207,0.7492294543902172,0.7711193603501614,0.706283982322164,0.8597081489671745,0.8691946170127447,0.8756026076314014,PM
0.9812893033063039,0.6171715506121056,0.46685080324768213,0.5464443617527839,0.5625162233733803,0.6508778290177344,0.5220709373548837,0.3861619612618181,0.4097858276994182,0.6118065489612672,0.9744904393974623,0.7109777129277091,0.49588476539773696,0.4839587758805375,0.5257716905107328,0.6044299006128258,0.5051429583534031,0.3946959954103524,0.4000368646505139,0.7173731264095742,0.9213201174967667,0.58955472981879,0.44744625499505597,0.5166036867715067,0.5346490400145192,0.6442076906506022,0.5109973823376781,0.3774094210067247,0.264163225767474,0.4991406157477698,0.9587266528495668,0.716704488035087,0.46941725128757783,0.5029123504823332,0.574350042390734,0.6334698228514011,0.5568887542535759,0.4613567189928891,0.4219534284703723,0.6566409699916465,0.9418137540184421,0.6142273544445986,0.37872427762880356,0.399346346096348,0.46517700609057044,0.5931147248612718,0.5026898670354312,0.44562229818403587,0.4304826872045524,0.7609014235120553,0.9398823537715209,0.598306471989754,0.4216014313518448,0.4973437551045632,0.5495442572128941,0.6102995382366938,0.477583484931122,0.44673693734294373,0.36026068095053576,0.6005579486468187,0.9440126073338115,0.6250689883744402,0.45173439676309,0.5159305739623772,0.5447762676852359,0.5785192017825804,0.49007096952116314,0.46264965522798507,0.47680951427221085,0.8164166501483483,0.9999999999999996,0.6467192017362771,0.4847221371719126,0.5390484512867975,0.5779551469733906,0.6853357385290089,0.5566299170409588,0.46774175374563853,0.3974538519582973,0.6796318862856716,0.8527671576532039,0.5043749059115243,0.37900870624789107,0.4523955291589803,0.4945206971905245,0.5191355321144928,0.37660924460232303,0.37750878109523933,0.4266550138357239,0.8368657123982941,0.8904138858733548,0.5538892515595357,0.41249882127304627,0.45145860497572654,0.5108061599504481,0.4920341497163476,0.401810636375449,0.38239174705923995,0.4538009639801013,0.9483400268260458,0.8925937998067441,0.5793068493339679,0.47026667174952586,0.5382662171729518,0.5358776537203007,0.472850449167062,0.4306674066695484,0.3717137675906046,0.3986504058624414,0.49232145542087835,0.17531282862418962,0.14888204168481556,0.29941336878024716,0.32055176073557057,0.4257170957085843,0.3783447982394601,0.33069988626253455,0.35395344528574846,0.5026032271835947,0.3413631152053833,0.2394386059258209,0.2770670196856031,0.3230375020267293,0.42572603221028205,0.3788757391984712,0.3055389713793901,0.2845593556643782,0.4207452560185203,0.31233231036719955,0.26351895120163604,0.38984020047224277,0.4718234560246386,0.5617038767985134,0.47203294451876676,0.4341551688052059,0.38270093616043965,0.5190885668907259,0.4811547224246424,0.2596493196992191,0.34909520911542957,0.36662721794583897,0.4663886808426123,0.4450793237410595,0.44479495454855433,0.3407356121226548,0.4095722977987566,0.49537137115710017,0.17176448447215176,0.20585939501189632,0.3604923308960277,0.3839097233149893,0.5016394351004689,0.4518820289075052,0.37704583449443607,0.31966418328032065,0.4982320432293488,0.4794447800488775,0.2699849776171068,0.3506403797092088,0.3662446706580371,0.48312165740635926,0.3911580730604709,0.33382935287178217,0.23251906699107883,0.37110981029020307,0.49052961193508215,0.2844793076002299,0.30426781889202204,0.37371861065562273,0.47203961582744025,0.5070492079908653,0.4751830043112606,0.3805017229927592,0.3483294932541492,0.4595819798913898,0.24343014277420094,0.0,0.21648305587123806,0.32800990288977694,0.5089120256852122,0.49521992966806794,0.43104855770669914,0.363250721119702,0.39009848367309496,0.4864528154847467,0.284111892471993,0.29143883597275355,0.3273772733931377,0.4778210134662606,0.46875711350155136,0.4306712097062033,0.35148506916719446,0.4450782690446067,0.4990099701526063,0.27706025731743855,0.29861244189135094,0.29034737925004794,0.44559404286043636,0.5215221591543844,0.4609376864587844,0.4344034991942758,0.3566156765076469,0.5016657224582337,0.5168827600483765,0.11553707821532555,0.1831626239726325,0.2936415779102779,0.4016050963302549,0.5259742061084673,0.409636153639656,0.3898953874375559,0.31068851138016695,0.44530992891133314,0.4378202523860777,0.24676758005180277,0.34602005345015296,0.37948273184516923,0.5174654020014096,0.5059261721421819,0.44425703319471754,0.33242437085445076,0.38738139788435166,0.49821166889025337,0.28161510879560403,0.2707809104611263,0.31186822625087895,0.433194618934047,0.46512557071391525,0.4789734223257436,0.6023845279924727,0.46809792292322916,0.3915172133384677,0.3988550205898944,0.749072339076005,0.9202409257768234,0.5895935947288367,0.4142338910304191,0.5076273606667998,0.559789601606846,0.6615079932510062,0.5533269106921188,0.4601351137933065,0.4300845461026115,0.7400889506118546,0.9135804202040996,0.5825942696057669,0.4151787473281856,0.47887353794106335,0.49498010260389114,0.624196064875437,0.5250678554063613,0.39357223401465324,0.34397829929109847,0.4095574569934759,0.9214964439154052,PM
1.0,0.9557614158200027,0.9611594824603746,0.9225910083556323,0.822820740326788,0.7665470205503433,0.8763938864714533,0.7460121411055578,0.7015613683490936,0.8868463426005304,0.8434340834775704,0.864259963182997,0.8490454071105158,0.8115272244012242,0.7269390003730125,0.8470005831879006,0.8124727565668937,0.6873334062591128,0.890353916141009,0.8610115220431722,0.883417641012624,0.8725068880957094,0.850344373088296,0.7338145051991845,0.7986297550423171,0.869476601126669,0.6858622218907697,0.7875440791566741,0.8759877186838825,0.8674176410896504,0.8904849111999211,0.8798181267509562,0.8246919563351334,0.7376746367406968,0.8487005636740719,0.7683321878204463,0.6440474957243314,0.8649576615870265,0.8381305576556133,0.869531216783388,0.8668282015162445,0.8547411941080227,0.7610097065637507,0.7717267998476949,0.8674995182696739,0.7078711098375581,0.7728522151973864,0.8814343689513722,0.8643469654965377,0.8905294919594686,0.8761918022781225,0.7964159771695956,0.7546312309464707,0.8719490481978052,0.7270943922969284,0.5667015269397568,0.8281983350803168,0.8524694885053328,0.8620691899313004,0.8599214380004416,0.8442729527744341,0.7603485037694284,0.7777390102923656,0.8440390815347092,0.677271519797336,0.806420354668719,0.8764359968488171,0.8710944653749753,0.8781705166208496,0.8699652938759401,0.7721656026258019,0.8106609832022391,0.879394352056702,0.7534549558444894,0.8774546335983717,0.8513734802756803,0.8829289064243531,0.8774243036472287,0.8717933550474704,0.7740606875373679,0.8451678088938022,0.8410797341991434,0.5722887793119869,0.4321266490659952,0.6871236177925184,0.807986734245369,0.7076993822790372,0.7721674017099134,0.8208343155866569,0.8253449706380978,0.7850764135776527,0.7960715118303541,0.5862821832308827,0.20375939448054803,0.18994729029282875,0.5982606655114937,0.8144572961825052,0.7081722561995889,0.730856260859043,0.8154732494013466,0.8247436289228554,0.788196548296304,0.8094573174922757,0.6055490945962836,0.21105772661529132,0.29804670904764974,0.6807130993956649,0.7652619853113127,0.6657828495131812,0.7575580599116867,0.7934407002540804,0.8057051651864269,0.7704653657087133,0.8100253483804245,0.5654573670666512,0.16066425947657792,0.24139337732518706,0.6449856022805966,0.7881666777260015,0.6725090028246345,0.7463807345118707,0.8166270518791028,0.8330263643218005,0.7843880439809174,0.8026997393906061,0.5865026088126672,0.2010769746422303,0.31913649076539863,0.7043684983933571,0.7771793153050708,0.6610167517041619,0.7496415474207088,0.8041493348446624,0.8136832824708393,0.768071375228705,0.7890837057811626,0.5719884733815928,0.17474733540485077,0.26285217021937823,0.6580822297709863,0.7825858842887561,0.6690999160736109,0.7508843153364886,0.819966205144341,0.8256732438342858,0.7752831280648289,0.8018878172353947,0.5994897802656791,0.18231188250252073,0.1834728258945304,0.5907793995949047,0.7914063343076152,0.6767916899123374,0.7045607885777381,0.8000936719485994,0.8114699712967823,0.8126459356959415,0.7826669756785276,0.7847884184848102,0.4240898189335547,0.14623087696023096,0.44002222893073206,0.7652342884435663,0.7321879193029268,0.6729797741680368,0.7788355850808144,0.793097191906988,0.7991701511851041,0.7662453461389434,0.7761302092505442,0.42449003075997616,0.11152471340405623,0.37612222874962886,0.7465631476535988,0.7730399040436864,0.6820870080329353,0.8147142328090005,0.8757964101184808,0.9121145523899052,0.8738361372565393,0.9122105754085901,0.6442153034233387,0.2506103787150853,0.3749296194942988,0.7539548617049734,0.7985778667530989,0.5991600697339399,0.5986920326378675,0.6523685434686017,0.6918119799154785,0.7733855891618311,0.7337651870717767,0.6671773724436383,0.3002024980161724,0.0,0.27361145351378835,0.6390427356930453,0.6813569725515283,0.6184118957412406,0.7414634625860002,0.7796281786284993,0.8011654927704472,0.7809591744639359,0.7935892084420915,0.4531546692302906,0.11652884270189401,0.35129984259727176,0.7286437645979404,0.7791788736813894,0.6553075066825294,0.7451217585235526,0.8132771077248941,0.8301949449661303,0.7978566258006468,0.8075736691487565,0.4705480769572974,0.2166988515178332,0.5273679211710576,0.8283146614499168,0.7747122158922237,0.737907030287531,0.8350140789706733,0.7805818290106923,0.8948170156443802,0.8428499723258618,0.6919871385094527,0.893209848509934,0.8733947718640578,0.8897781954815867,0.8721776559524796,0.8185853812756285,0.7268148424453771,0.8438286639991781,0.7959436228582151,0.6218457443826402,0.8449778026726285,0.8654788246901219,0.860391653479808,0.8364444509105073,0.7953840793387976,0.6849128755670648,0.7545658901160097,0.7089882997248989,0.4665318241228289,0.6428304994854561,0.7997282143990687,0.8487156539880019,0.7869472601178966,0.7276722471694463,0.7011278048069469,0.6277628657584919,0.7697852435480397,0.9072184944486379,0.7700496344477257,0.8763017559346955,PM
1.0,0.8709764184508675,0.5860624988603576,0.7443298563605727,0.8806683069860335,0.8481426648723582,0.9085594507625112,0.9296992818814855,0.9675948953847797,0.8818382500181334,0.5489304710999745,0.7329646175083608,0.8927610293130073,0.8862333893629972,0.9847246517312698,0.9672025872013088,0.7301898730693264,0.6276888399913694,0.8710560767773008,0.9053620561551261,0.8776542047376461,0.8894723660167148,0.9558403382214853,0.8120322448957187,0.5586296108550299,0.8157730228205642,0.8883016636740755,0.9141531336095232,0.9316207552503268,0.9073041373924631,0.6252334821337673,0.7107914007965084,0.9039236945844036,0.918622980538438,0.955452472130129,0.9408464549562421,0.9858502244408363,0.8370352459505086,0.6719068882508066,0.9047835797116743,0.9198957359326965,0.9332742125624542,0.9794284548639327,0.9463562908802143,0.6612673163701626,0.6808314107207591,0.9244204225937196,0.8757540959005112,0.8890374150472811,0.9008933487449315,0.9443249273149932,0.8493515147025992,0.5669566778982253,0.8029615529658445,0.9039974113150744,0.886297488521258,0.9102795627318954,0.8752549353390857,0.9011329425476351,0.8443325347193409,0.5961275803919568,0.7004919103039366,0.8367837687629414,0.8628527869803495,0.899069497489092,0.9344702243798855,0.9453985056613035,0.6746927986160207,0.546483774238173,0.8587819655128581,0.9034202292326987,0.9157454067834574,0.9111311357678109,0.9238652739875217,0.9649731155432861,0.7727264523722908,0.5840794136694782,0.9134171312334614,0.9962950478194337,0.9613005868251867,0.9483936195317928,0.9897447554114867,0.9335173373112129,0.6641861559848241,0.7494136318305484,0.8675051960680893,0.8781336052427591,0.9100851098339802,0.987068230369351,0.9143255124187384,0.6502138843345988,0.725416986899555,0.9290173629680227,0.9435906892518355,0.9352079843646295,0.92829889310083,0.9173001417480275,0.9305098371439926,0.9392846658544274,0.8109954988236838,0.6328718048926163,0.8368579913738965,0.8482003794887589,0.8791067606146519,0.946583245053048,0.9647498090183566,0.8958847828497749,0.5691286491466658,0.7322110916509241,0.9149850610889674,0.9066268477740462,0.878948440194264,0.9130897224923324,0.9125145369842635,0.9089632456494625,0.8334075490520934,0.8117087337696525,0.7949798817954092,0.7709461524988677,0.7776493769017412,0.8021720684754903,0.6317312036479579,0.06789054507547032,0.0,0.5749357336795753,0.8234039136556861,0.8653244595079728,0.7668062957106967,0.7813676333122959,0.7521869756912287,0.5746198214798137,0.13475656855914186,0.4178162767937401,0.8017921075602006,0.8407953317765005,0.8066531964689676,0.8245355085066244,0.8045724429349863,0.8301748641300657,0.8282247520115771,0.6814926083747266,0.1803653667757006,0.2499856709427255,0.7400557377731265,0.875857990284477,0.8049312291865145,0.7895616132312795,0.7607039868548027,0.6476786955760621,0.1836440081924584,0.322979465412649,0.7806666155582223,0.8877986059833618,0.8436342607916529,0.8660801242393763,0.8574902298143057,0.8009307881195209,0.357772469205615,0.24750509734087567,0.7341036047360938,0.84759304781223,0.7740766642512336,0.7955738060755575,0.7772363763368051,0.7840783712676775,0.5024900049138501,0.06089333326127022,0.4092051338436917,0.8117867961857477,0.8394655647215785,0.7890761026224968,0.7672605361591338,0.7436846006241584,0.6424413834532272,0.216387981591752,0.2438084911993128,0.6896640721930827,0.7901448204871184,0.765241171408102,0.7828349253762732,0.7460835272695152,0.7449073433885562,0.4536239705173979,0.029369088767985385,0.42511389858387405,0.8053223865021857,0.8238427259694845,0.788248745478112,0.7723306149331508,0.7765863950477327,0.7733409221326504,0.33340402132607494,0.08366877124539096,0.5906317684701743,0.8688975384194819,0.8528638611466572,0.8392706310699962,0.8128388968951286,0.6217175086120461,0.12394202619628247,0.35163619648269195,0.8187564008514019,0.8811025029502177,0.8080841485578478,0.8363663093334996,0.8027468327516285,0.7900545312815654,0.5501064913750882,0.09958803557478113,0.40159708065437716,0.7882925564425718,0.8117747145798981,0.7867266168307867,0.7662335598501384,0.517926854285562,0.03942203945148881,0.3242144363165953,0.7728124295967347,0.8197558946845609,0.7877793708032144,0.775545710116031,0.7843488963880905,0.6313294568392549,0.1452326509215398,0.3105394163292212,0.7855370923024494,0.8846306578111838,0.793512462521412,0.7847030536648969,0.6336411565148756,0.17486353068631733,0.39319139388636826,0.807822290197568,0.850384333984096,0.8066994259563702,0.7671522899914329,0.7484530039450101,0.7617396270879402,0.46343768157897003,0.05990947564981397,0.4546715701879869,0.7989301226333292,0.8958783290903969,0.7938884727480837,0.7229782727781382,0.43936485098273437,0.026637579277310586,0.42745794534580606,0.8333546456584573,0.921655572182007,0.6998850918858657,0.5277459603433057,0.811734913930291,0.8560310620997145,0.96417696457191,PM
0.9212188292936652,0.5793841232476462,0.6819177020630838,0.8989740162248332,0.8640804835014262,0.8957072987498662,0.8863610256481824,0.850632219416952,0.8909122767332927,0.9612237945688464,0.7948592119030569,0.5225717090607855,0.7391209907294798,0.6953280349807838,0.29601370387469816,0.014370361066904591,0.2639286741450806,0.6587643692461189,0.8796800310223396,0.8265494292616145,0.7708037619984356,0.8198157104157076,0.8240419135424706,0.7904700595365324,0.8136495704343634,0.5552502657053886,0.1340589261590801,0.2965656016187834,0.7584866910797248,0.9363719923531086,0.8390924067333938,0.8099920669762686,0.8350130371483038,0.8197625439944425,0.7603815793705591,0.740156994159139,0.35213809811094543,0.019192106351469063,0.3336114414645732,0.7700551406562954,0.8791627545946852,0.788621631566462,0.8243710739315457,0.8502371669427273,0.816212792312472,0.7598662279402257,0.6870276301268643,0.25319748605616743,0.006874366599840975,0.38871200556084573,0.7878609955937665,0.834118779046255,0.7177588828854755,0.7683341765495413,0.8070620888933273,0.7760511080949846,0.7564249129946699,0.6292227830247052,0.17221767536348187,0.10792058426069762,0.5609474970977673,0.8846969560245743,0.8741605642720225,0.8099793136857738,0.8946001775837498,0.8876638425499477,0.8340274525074769,0.7833500657306811,0.6647098871848895,0.23364385407613697,0.13303886290845646,0.5687207368073783,0.8606591220822761,0.8446353176825234,0.7639086917583227,0.821780690935811,0.8141605417420086,0.7711301731456677,0.7395744664314525,0.6613274561014546,0.20886084773197844,0.02471110311941338,0.4400700034293006,0.8275224429868338,0.8607875111686989,0.7558358575659965,0.7807185345317211,0.7956337751110716,0.774329824565861,0.7466934205939804,0.6029765851234521,0.14514403289298494,0.0950783974370224,0.5490339899645489,0.8680914660587751,0.8615444421055904,0.8028404871779748,0.8368329041876683,0.8356992652782955,0.7864057462622782,0.7639370753676051,0.4342298815689605,0.048607575255918745,0.2896910719225003,0.7402486353846818,0.8913592957022367,0.7947678486361089,0.7892099084718531,0.8453611334511442,0.8435607070519555,0.7876947088907957,0.7903790729057365,0.4863126426589479,0.0929568359179136,0.3214415965999653,0.76938176845932,0.9098169357363093,0.799236548864686,0.7732653558065403,0.8207215840868949,0.8191117567894153,0.7618442594600301,0.7495803317881056,0.3842701706803393,0.06062311797985509,0.3814025959126053,0.802069796815944,0.8861894981335257,0.7804111951845247,0.8027421213020334,0.8238996712353617,0.8059939476207096,0.7455960693281527,0.7103086625040429,0.3075257943488481,0.0,0.3337391852876608,0.756957526650216,0.8819040481337004,0.7935144051652399,0.7967790814270808,0.8361857701447704,0.8185410126210118,0.7652642702643828,0.704020009721652,0.2789123038723358,0.025799346121000655,0.40714469608205595,0.8222872973667352,0.9458267844588633,0.9417376701157105,0.6699594086805567,0.6374972902528044,0.8610142579951929,0.8494529615176518,0.8882385564936628,0.8912123200828008,0.8477790845334681,0.8970997869555701,0.9407422760381967,0.7123957816364188,0.5225356378290316,0.8091669516970155,0.8260386608003121,0.8616984831643679,0.8862085318452302,0.8659405333073174,0.8439966767258753,0.9461200836981025,0.8997172359390044,0.5926882579755477,0.6910882889429206,0.8694047538253422,0.8390401254701605,0.8796768366271908,0.8745713253431184,0.822432414906159,0.9008823060923021,0.9747642952862592,0.7724170427037247,0.5802210104540599,0.8593905820449013,0.868518182197701,0.9017098290693013,0.9109339281495854,0.8722369842364113,0.8520940615220838,0.9468616862801948,0.8536610292682549,0.5329763003067038,0.6798561847449214,0.8550125060672402,0.8743140587206362,0.9001669138678563,0.8949175703330507,0.8680797190778045,0.9338600774961232,0.9353732625854627,0.6606952390698824,0.5447985370216035,0.8238855408886432,0.8117946610561415,0.8519062139643203,0.8532681144071195,0.8293486460466684,0.8591681002572333,0.9496688386710777,0.8160644789739167,0.5463930197421683,0.7736323999744827,0.8280948447999881,0.8371310000326828,0.8740554923607966,0.8914288784344533,0.8345269986947985,0.9073681078346174,0.942164643167579,0.7459070537563248,0.5326803073584359,0.8109409411019197,0.873173786161771,0.9234400564909044,0.9511813107385751,0.9567138474779073,0.8846205436008268,0.9603446754933429,0.9640502774334021,0.6938151977649454,0.5052644340561512,0.8063107181519997,0.8328203649464172,0.853005870274224,0.8611434898066335,0.826664012214094,0.7937184309428897,0.9070604887792288,0.8513285736676812,0.59151554584044,0.7612846114342753,0.8420425333531616,0.8744161486274507,0.9013461340261559,0.9116543944949635,0.8561625811075932,0.9222701415495023,0.9125197781224139,0.6257302123944866,0.6156051448694921,0.8686243009046877,0.8343902483411119,0.8815478509413552,0.8957420421776832,0.8754865527132372,0.8964518973877416,0.9999999999999998,PM
0.9585953923153676,0.6732099562640137,0.7695952071089347,0.6894630095163943,0.7351075464752603,0.6747911915151072,0.5295765307613065,0.6999061230620942,0.9326595131065636,0.7283494768147443,0.7312095662985816,0.6673996755006892,0.679512118682621,0.6562019859196924,0.4574598448969791,0.5168742431431954,0.7749807996451468,0.7974343148727683,0.5725467915596321,0.64460886771763,0.6226663366138503,0.7055511702956343,0.6286865885892428,0.5365259088689163,0.736312277403508,0.9538997196658165,0.7114498806446927,0.6837841556797408,0.6442780885555766,0.6658620250152083,0.6787235520480355,0.5277543641131155,0.6196063563026293,0.8662354449092233,0.7870452636188698,0.5814334746877661,0.7219961437349696,0.6286818237041554,0.6808687304426395,0.6020710057681402,0.46802380474298166,0.6624950512297403,0.9095614873836508,0.6572567915674514,0.591367711579966,0.7163261964903227,0.6857765598291881,0.7635293122781199,0.707261138823482,0.5671331295370341,0.7489001566986699,0.9832528265983798,0.7629669912056904,0.764303455293303,0.7162052316702492,0.7422947534872701,0.7319857911279413,0.541831163116326,0.6130922552894593,0.7395506670931487,0.5899692586566005,0.42954489890537095,0.6010384592631013,0.6786835408216785,0.601874621802927,0.6722137406637034,0.46868026397052054,0.03603936628884963,0.3180301750997594,0.7864121700451703,0.6854915707160782,0.4750968145891088,0.5780622956715007,0.6884648121238017,0.5979846139602496,0.6077762929311965,0.44066457831988703,0.001300825929313465,0.27240221868399095,0.6944201398605809,0.5643430774774978,0.37254144021354163,0.5202868218225358,0.6029025996902186,0.5361602922059756,0.6322774046047521,0.3299289551386235,0.0392681479932655,0.48512259168744043,0.7045345012158641,0.5105765412743493,0.443864344613774,0.6146820798151675,0.5901429928908759,0.5507321024902159,0.5422952562223222,0.10065607551544797,0.15788757083783844,0.6754318777436752,0.682468400412628,0.4645866586428502,0.501474280003122,0.631738175103294,0.5522596174423535,0.5288183984793182,0.44205817182043017,0.0,0.19813051486501143,0.62967316957966,0.5191435380521434,0.3439460120177573,0.5141303991647672,0.6181734188591244,0.5537669875506595,0.6339500244165626,0.4447924496135167,0.034299416279061745,0.33504284020592223,0.7081513636023642,0.5761210208758527,0.4493715717489386,0.628207170195032,0.6568939938092018,0.5974821468666365,0.6655872230088691,0.31493941331985287,0.14226665755808687,0.6544389436881359,0.8245369557650868,0.5929262457373166,0.4647425805787413,0.6389988959351247,0.6271646515503431,0.522656646360045,0.5544040139335471,0.20475926059238692,0.05558672821976485,0.5494743790335277,0.6264469734185325,0.4120705234135591,0.4193284561806392,0.5978445246711823,0.5960033465216359,0.5788448537646955,0.5867086044470438,0.1442240995882096,0.14513070380526516,0.6468901789973991,0.6870166503894386,0.46774875427017415,0.49214015546670264,0.6373033368945276,0.5957370922096477,0.5560123628134375,0.5702894723041494,0.13584863601366415,0.16611411851361302,0.6680728745701225,0.6551659152006453,0.4506408730172793,0.5334254685432613,0.6604610299184936,0.5903799772850342,0.5726614968952872,0.49723099188077047,0.05107617397689035,0.2230892294886826,0.6730680191544502,0.5980095632009177,0.3965931745864828,0.5071927447594158,0.6131244120960844,0.5601223472308718,0.6205709317159105,0.5297113474613577,0.08647281063137546,0.29772978382228166,0.7479744930883601,0.6185096407333313,0.38259455006884435,0.46808550089124834,0.6017735677362732,0.5483333922907816,0.5220727929638049,0.4648380298552697,0.029950435087457983,0.2115602039475042,0.7170838096193055,0.6867164864736601,0.5019908174184247,0.6010711009324159,0.6647117817895114,0.5867116189719299,0.5991033115774202,0.41152098163533823,0.04169880952171079,0.3864295389843577,0.7107502311885394,0.6577022171453741,0.7174919533980844,0.7321877876356484,0.5948082109061215,0.6927272156311015,0.9400789075809111,0.8490277423629831,0.6661752030686015,0.6245447811501266,0.6235991361177313,0.6616240689480661,0.5312244132771888,0.49602070774140206,0.7547605504899559,0.9813462466763303,0.7346859013134193,0.7496194529334486,0.6482534716081698,0.6836228769394435,0.6611602449937091,0.48708405026750157,0.6081866109361815,0.8695709470609714,0.7739381308637858,0.6461983105445155,0.6878695740922178,0.6671480448880804,0.7272884061556497,0.6288865921687363,0.5240224634855282,0.7308031384280049,0.9752161573975591,0.7540018246078768,0.7168084043469523,0.6350473805251973,0.6877008365558765,0.6857446632524362,0.5238719755036563,0.6141734284067324,0.874555250340689,0.8287156746315847,0.6529423694039895,0.7148390153415107,0.6607381163764048,0.6843163729517339,0.5835015103854246,0.45790337381312574,0.6522547469775972,0.8914816255476836,0.6713870872630192,0.6647748636654827,0.6159276593214686,0.7066177445418074,0.7086726167005417,0.5538015485063634,0.7150957863393441,1.0,PM
1.0000000000000004,0.7118408607953515,0.4999861584717027,0.5312124758652441,0.5606324782197012,0.5427320386347141,0.4617974318572431,0.4011335234522928,0.5115359074033119,0.7613944158718029,0.9397156227891057,0.7756788318235537,0.5268576346514062,0.49538160050353897,0.5663305960220542,0.5658996129459393,0.5053458987150172,0.43285361862344907,0.5295494175312521,0.7414584591045448,0.9474067475401973,0.8558728214622797,0.5938897037182707,0.4923077882253404,0.5678832530308524,0.5543937646455017,0.528084763214479,0.4189930064028844,0.4458316054592468,0.5807523358202151,0.8923867679026021,0.9651106772441227,0.8047989782168115,0.5634302348428952,0.5006995318017342,0.5657369252257345,0.5507663839026429,0.5340237868484343,0.41978673549936296,0.45181605751282783,0.5882803202630837,0.8939744793833131,0.9527396738039497,0.7456114686036175,0.5155147966405202,0.5178055739787943,0.5649968270894585,0.5614998805939728,0.4988195401182698,0.4056840641879109,0.49667867896449147,0.6965096124046579,0.9707267511035007,0.8888817437905696,0.618846283644209,0.48369043764645525,0.553369785332257,0.5543717254736817,0.5479724725944632,0.435513022734519,0.44134044990234766,0.5657470468006194,0.8608735778185195,0.9774053160692162,0.7601398329179143,0.5173398716182485,0.512790354927045,0.5592619009269244,0.5469676121079057,0.49427043680196325,0.3872564930924294,0.47314068711851665,0.6508136225139611,0.955526167337303,0.9331301893212252,0.6671619675905593,0.4848756771616598,0.5045345279232669,0.3432404855370401,0.0,0.08261643102310723,0.41777149151988624,0.5476684257285411,0.6870253522473875,0.5824693142340491,0.40195725906796875,0.33792492436947486,0.33585223430169586,0.46119965606428837,0.48698033376213967,0.47380054103409686,0.39587241705899956,0.503307668125148,0.5974297993403601,0.6903235963063636,0.5040367200705127,0.37708045959559655,0.3182155079924498,0.44166158179022386,0.47950864361631007,0.4912349765060746,0.41605580986749624,0.4551869757924547,0.5674781535823232,0.6611055288662482,0.5983451118768426,0.42735773452492554,0.3242109574916565,0.39326504301902254,0.4816109046322916,0.4919783996405358,0.44726911298288075,0.4155563959010866,0.5405853328887988,0.6482646585793885,0.6442619914620535,0.45039128973926257,0.3450001158834861,0.3526877597743838,0.47069187904853305,0.4887843008969388,0.46787459324003766,0.40571261102349254,0.5210996437588782,0.6129622486861579,0.6852971287165084,0.4758566505565982,0.35333129108927563,0.3250865616839871,0.45192312107450405,0.4815745811230703,0.4914014543536003,0.4175446971236325,0.4692877915188558,0.5396376652728456,0.6084529875993634,0.6120120256189652,0.4525627698669772,0.3580811313287797,0.4177376234162966,0.4861788271925218,0.48748077209973095,0.39992638371551426,0.4438969175419132,0.4949282419429939,0.6281439260517052,0.5614653055603114,0.39732048437398015,0.303979095726703,0.4083251577024951,0.48155736910566915,0.48932699569898164,0.42782511387433875,0.4128786997562406,0.5216318099072859,0.604989558998382,0.6399013840750971,0.45758837753702775,0.34881501512445157,0.3442060098761255,0.45695006339968147,0.4719976048658454,0.4824696700938942,0.4018229399195463,0.4697830796375304,0.5388657865960513,0.6892957595746081,0.6084769268372643,0.4339512822903604,0.3343199958260157,0.398935997152674,0.4821261848314493,0.4985838821327251,0.4459858627065514,0.4221718044218328,0.528886523739724,0.564300619296918,0.6519930617246339,0.4702408714461539,0.35511122768318293,0.3495669522615765,0.4678806684044128,0.4902031087857761,0.4668675704885108,0.38507267350955976,0.5029438110381825,0.5715002446309225,0.6634933006756047,0.5222761326258749,0.38685943828749103,0.31885342003400696,0.4378790210083503,0.487890531738858,0.49180311562944334,0.40824774264061237,0.4806471149075935,0.5823899228901706,0.6746277588073015,0.5169372097182285,0.4019009831863589,0.34086154810011227,0.4427316498068645,0.46339640179327235,0.4595510610597029,0.41856955579404476,0.5260828783767288,0.5342547992518414,0.5279074903005392,0.4406097559961326,0.44823726323614865,0.5708491013773052,0.8611629553381772,0.9878562313627763,0.8428248836201977,0.5721219151419974,0.4978734206013784,0.5697250899363153,0.5607433453564257,0.5423270931063922,0.4251519613872863,0.4456189168301208,0.5786326677695586,0.8816461638847621,0.968658156517888,0.7620494632987067,0.5214957629317385,0.5120570537883427,0.5629856458924563,0.5539568954071332,0.4799222105183736,0.4140752665763894,0.5182121965849986,0.7376110030937904,0.9618728741638729,0.8785222212553077,0.6115311462440198,0.49791118082871666,0.5672192092779604,0.5577633937677726,0.5407971669510205,0.42570312375867614,0.4527638632283373,0.5853697732408665,0.8956791237691437,0.9653941457346242,0.7992423191294478,0.5432754515921605,0.49415341877883945,0.5563878839702046,0.5480380771159186,0.5260034111270899,0.41279385665024027,0.46782883792536945,0.6128947586659086,0.9417949895864037,PM
0.9992061440847886,0.674538698428718,0.8060110975011843,0.7182308501273971,0.7654544544276694,0.8538081028730522,0.4697879174617845,0.5028609532419375,0.8627458521374041,0.6036014214262044,0.6775946288662285,0.6591999135711561,0.7400232535789302,0.8789408928878895,0.5387335781645892,0.6345034672723786,0.975567047116245,0.6962951682569818,0.7789748419483442,0.7386688757662561,0.7847577765818348,0.9374083887736964,0.6223838737150666,0.5588417970499657,1.0,0.7555263714045473,0.7442851695163575,0.8168397235257285,0.7887874319164139,0.9416199776898977,0.745909341636724,0.8242115880754981,0.9460006346120524,0.4282446736845871,0.01448996477670006,0.0,0.2917445554275351,0.7837751791654792,0.7262803810697398,0.6558282207001533,0.682982860689282,0.5074084687509335,0.79106887440651,0.5082070243395855,0.3286814269257192,0.7668544750692741,0.7080429560120831,0.5943075435444443,0.6781717363518793,0.5267184535446159,0.7866900607576972,0.5269719454560513,0.22592296460341688,0.6722392674310811,0.7023591258430524,0.519522332458715,0.6019191203995904,0.4495117374000883,0.6544612974324169,0.45010073258528616,0.17152825660684723,0.6450968620518158,0.7164877209251208,0.5561329834247815,0.7002081548642978,0.530976282235851,0.6321953491922225,0.7562599681033384,0.2520082243373598,0.4816705109633408,0.8216571858731112,0.6523200522611203,0.6233997863412002,0.5746111603790398,0.5253594174721852,0.7762459539256805,0.3229306656806128,0.37255380864968846,0.7978730508782177,0.6857196637495799,0.6283552522482121,0.5770858237964411,0.6071966628348391,0.7797626762594976,0.33184714257414694,0.49441072705390043,0.7888716724045839,0.613292503052195,0.644862766420458,0.5126418651389013,0.45199474097670844,0.6391617746626923,0.19148043643428148,0.39139995315252696,0.7346753395770476,0.572142256001634,0.6091605997056941,0.6082708525195626,0.5945287305651745,0.7389842193778944,0.2153457716555578,0.37441875391802304,0.7762256286927234,0.6334701543537711,0.6213687938667678,0.5405670497046522,0.5120323092133603,0.6608635352715702,0.1516309033706542,0.3185956778394541,0.7523399595238764,0.6598618541056287,0.6567565730047802,0.6659693586797499,0.5717361939943326,0.7450252807431039,0.32095173666850396,0.48823214509878854,0.7598245617211217,0.5736485557409674,0.6068180332659723,0.5941573488310219,0.5691131980084783,0.7280590426229359,0.2723418190998208,0.4396246641289059,0.7217448281248164,0.5285616034908935,0.5522864407559918,0.5451224895394033,0.4812633829671409,0.7467905241720563,0.3303664735222962,0.30884676896610763,0.7569705028026812,0.6854229886944303,0.5632899888499843,0.689492730489615,0.4910335881706329,0.6955416828705188,0.6310611736502163,0.179927350167699,0.5881885584400317,0.8106409129923366,0.6276016411325367,0.6495186628604515,0.5756328417887522,0.57185801374496,0.7568738937192658,0.34801263433830965,0.5849269713653253,0.745903889765549,0.5816793553493254,0.69203688682992,0.5547945177823115,0.4802559902854959,0.7062403458972022,0.2734695989886342,0.36845640649724265,0.7309032544062402,0.62493672243949,0.7187136728213881,0.8405713141312798,0.5025205929596255,0.5651956320768083,0.8663512946261216,0.602711842426729,0.7585301352800169,0.7967388007626135,0.7120572746495557,0.8716285220208921,0.7001573991903869,0.5894513643121182,0.9555057948412511,0.7128253493430834,0.7156968982135314,0.7697793626981522,0.7456989302186865,0.9288149023726526,0.7406246566057022,0.43151478491806916,0.9016101560774494,0.8457571863382909,0.6613527913227109,0.8185001691838183,0.7110600308062169,0.8512988598629443,0.8557324286541896,0.4320725272766688,0.6524852589051022,0.9029613537620147,0.5991886608292494,0.7151796806220734,0.6580688300401851,0.6732597345913791,0.8287615833254192,0.5413450695817845,0.6025986222147854,0.9103633672168874,0.6668102683224353,0.7592289880748493,0.6834493268525033,0.7596703523249246,0.8719619423315206,0.538044728005449,0.6537608999267848,0.9662570417659628,0.6922225825898165,0.7929289539224813,0.7622774358823201,0.8035845159575019,0.8796544895872174,0.48196094970405534,0.3535711669476296,0.8502840272305181,0.7250668210132303,0.6586993418481448,0.7552023790675317,0.7396961793633245,0.8994448934753141,0.609741761946244,0.4063302111031355,0.9032344760759572,0.7826143321138281,0.7436284639204276,0.7522079659450767,0.6999310813997837,0.8649032964297971,0.615640803974423,0.3482147793830994,0.8074865625514245,0.683014981753459,0.5910942150984972,0.7833720854514681,0.7245714260937426,0.8997932940179711,0.7822490855859754,0.4637289118437371,0.8885760358951522,0.8638183615624762,0.6901918086044407,0.7758000307162076,0.7351513173095765,0.93031542161309,0.7691302216905065,0.3929039705120321,0.842199065487736,0.8828094320181559,0.6341880536374811,0.7626683492125417,0.7018839000023713,0.8892188442393372,0.8574844522036957,0.4591230997864719,0.8146955142971533,PM
0.8819987602749209,0.37043293406811384,0.2904306295211503,0.1455811061885024,0.15158574207405162,0.6119199226257945,0.9246228586817298,0.4479829379568445,0.29087339501769915,0.23265208978995355,0.2139361147463359,0.6238679410201822,0.9999999999999998,0.5445282483035807,0.3175387332616386,0.24062894421929792,0.11405736170407565,0.39861536025384736,0.6354256236675664,0.23700748810851513,0.04282326295683814,0.1832271330521229,0.14431243865118337,0.16539154049430005,0.7134110117421397,0.526600436918107,0.13944049172155193,0.15395810180772274,0.1822418896114042,0.05730509373835724,0.5210158675227456,0.6164876982296741,0.1602269361478521,0.027352895107121356,0.17966885259889454,0.14806899940709162,0.36421214751016984,0.7230700052464989,0.3420391346162093,0.11840786560206373,0.18585196927545766,0.13650147811250757,0.2399120465520055,0.7574648505044126,0.5171946350828651,0.1216696025782964,0.1246929138940438,0.17478306013634515,0.035972595063684,0.4536347782813357,0.6336092241101097,0.1893042891196295,0.03344589218409233,0.12552780181588652,0.045213552180109584,0.1254512064346771,0.669798928450603,0.4444640323413951,0.058563414677484715,0.09343555972462037,0.13635091668753896,0.0,0.4222802767244691,0.5070938424186442,0.09000404932242478,0.056136270514470565,0.1828903964170725,0.09415758501655391,0.3906953917008924,0.7636300974985055,0.353375433210007,0.06194843640858494,0.14855267514286585,0.16093034613890134,0.13402622888999982,0.6546456954624131,0.5017467288931152,0.10409175640852153,0.11541378594882579,0.17643282691662576,0.052061389021115456,0.4744650737385714,0.6210236737543517,0.1757707576163401,0.047386198172313376,0.19716347848222693,0.10000471764240415,0.23515424687986508,0.764740466664813,0.4932258406178025,0.11305844063115078,0.15898162761592793,0.19635633061324165,0.10403611004630697,0.6141290642542898,0.6277724943406142,0.16152959089603525,0.042167128249798846,0.16160428558384643,0.11373270175693895,0.2995224719682199,0.756359893019604,0.4174433702762179,0.07337145410265311,0.12367872893966525,0.14797918695443357,0.05502147687351577,0.5645635015463297,0.5476075241261789,0.11979996772702495,0.08098272375611248,0.15490726652828468,0.03342345880163933,0.41363102254755346,0.718165082827811,0.2943570481727249,0.06589624147401962,0.18442780270567383,0.15074862185448978,0.1670400522302613,0.6906528136969119,0.4733618101131729,0.06110572643454293,0.12090508491160112,0.20458752613766706,0.07438780324968053,0.403619464314932,0.6841818903219308,0.24925134480437783,0.01054021486453749,0.1306584542870548,0.11514648302947816,0.1861144627674356,0.7022305397092696,0.44834135146216414,0.07888881646341206,0.12355667739250098,0.17031380244284766,0.04726567459207964,0.5318560847908913,0.5856763038207429,0.14416318861729982,0.048764919588024425,0.13618322729975008,0.03984303886498908,0.2897396923430031,0.6727223634561821,0.3457566850204661,0.43856436157195433,0.911100037123892,0.6279587730864844,0.2653898333728717,0.22125615770574258,0.11433249527125877,0.26895928117681867,0.7825039449255076,0.8209018547886757,0.32372101769132233,0.2757172108713204,0.17901521641549833,0.20150418684446536,0.659602189100968,0.9083948523927361,0.4188927937128837,0.2788944532464217,0.15798357872277147,0.12468017000649301,0.5438549449993959,0.9693102450280267,0.5591647119886252,0.30323330661660264,0.2646514691396906,0.1238127960614821,0.33158746131877703,0.8510856285241191,0.7482922391652267,0.3235391726778267,0.2877531911071738,0.1728100754688202,0.26873764911185405,0.7610405004557179,0.8426427674378953,0.3199970135369432,0.2529279842171135,0.178069768952418,0.18635692263141612,0.6399004763398526,0.8905208354946355,0.38335121184283794,0.259381272094257,0.19120256099786093,0.16765848289683927,0.5709209827857469,0.9684655739211452,0.5432588144831538,0.30327948234819524,0.20190680603250644,0.11424925345468528,0.45829922516887245,0.9487418166182635,0.6544054752052089,0.3067014099356975,0.27201854844780615,0.15693724945591292,0.38303324479362355,0.8979068556598884,0.7585517599049261,0.33781647698236994,0.2795978367571219,0.1270338594041993,0.2742381627377426,0.7870594453552109,0.7830385566402536,0.32476717894791807,0.26123040440802536,0.16018799657061233,0.2691414298978245,0.764923981171284,0.8710885181871235,0.35691600323293415,0.28578751954565695,0.18495389309098154,0.19395969280916292,0.6394262839503997,0.9597190323981224,0.4828950060603858,0.30204907536766057,0.197147788321969,0.10647931169140401,0.4841084362627297,0.9006028704368865,0.4953733095566195,0.2552660160304645,0.19006621190245188,0.11209842057026931,0.4408469036635927,0.9032707066313492,0.5829312244938245,0.23880348600416812,0.21406483996110315,0.10923440992257971,0.28096955027072945,0.7994593068440368,0.8009195106457743,0.33247163482240105,0.25755082936872964,0.1703209737877589,0.3450659424102678,0.8501863711028357,0.7916336025411617,0.3481646877861706,0.27729139635998235,0.20281366897207298,0.3752109051970238,0.8775030050849522,PM
1.0,0.9702865278875548,0.9405789704443261,0.8286529066319832,0.7236577928050985,0.7476597074137372,0.6539932547867124,0.5436530822450527,0.725961679432019,0.7912061921440428,0.7409817570896544,0.7874053156489056,0.8079727094816376,0.7528792855247763,0.5523121562882036,0.36104498593827683,0.2794130693122172,0.3038463782489731,0.1888182271324096,0.1362420451360482,0.33641011423092226,0.38096507509912914,0.4699346258732253,0.6876253197151572,0.874297046141741,0.9155952068208804,0.8690490417587948,0.8159959362209632,0.6799058870896229,0.6729367885505553,0.7496365372816443,0.6479480827564197,0.6946487590778707,0.8080502158588037,0.7291853353657165,0.7285359937274065,0.7358218092319593,0.74685821373996,0.7105729668399816,0.6093007830863877,0.6367592959234702,0.5934443382632582,0.438271658694135,0.5489883005290888,0.6807055951665204,0.6216638536404673,0.6409933705223623,0.6376306797018843,0.663451697860306,0.6406450154515761,0.5942821869939479,0.6465954659629225,0.563449867844573,0.5042663378717445,0.6870231518980738,0.6799386021512801,0.6661193599960182,0.7235651334399569,0.7135835698128923,0.7101517655257255,0.633098308402491,0.5858264680053493,0.6018167718892982,0.4709160150675389,0.4466397898730231,0.5589295301543526,0.6707930545374841,0.6851117820658661,0.6824519203124921,0.6590289238892015,0.598745438311814,0.6036992521658642,0.40479177079927786,0.3848653731693158,0.570333411120731,0.5966315732918839,0.5501635724123628,0.6272687377543618,0.6206372314231181,0.6087968110370781,0.5838366181769659,0.5902965107816323,0.5210269285859286,0.3013805576067514,0.35823460104927596,0.5623020004126367,0.5955400152820349,0.568347790714711,0.6871622796455452,0.7133322667158306,0.7108296778387369,0.69146044203927,0.6975626819997105,0.7040653892580793,0.48564321922733367,0.4324713125736438,0.6421941656847578,0.6976698053461925,0.6156297443868173,0.6748993671376482,0.8049044859448677,0.8501977153177322,0.8750132333393494,0.7483921296087641,0.5272991349467064,0.35273790796968474,0.31068187650346357,0.12492794377305116,0.0,0.17735928696176428,0.27167545978640795,0.2461546243433207,0.3539572276602455,0.5417858487047351,0.7329603128289994,0.779671807899837,0.7492638347974883,0.6921245147292066,0.7278995682810929,0.581914052324773,0.38230133580504544,0.4996162928139678,0.6916137491499523,0.6982245082261882,0.7140199532633205,0.8541144269534284,0.9294301687424178,0.9369655957395193,0.9225514719406274,0.7382261420925413,0.6333525201645882,0.7063419126960999,0.607695352970157,0.41512238055024564,0.3999310316675143,0.3396972176247509,0.3534888253884739,0.46430065322107494,0.5118371624751827,0.5604348417461114,0.56420262118741,0.5932067688549854,0.4227228150488894,0.2663380825325725,0.43082134791046056,0.5782803656139515,0.5294664802004048,0.5292778169200909,0.631058957787584,0.6445649252847796,0.6517115930305926,0.6122080852925955,0.6346805960412796,0.48761446721491075,0.29876339742404523,0.42792149304850813,0.6018251388279134,0.5915632718689439,0.5879860259911638,0.6740557600751012,0.6716714435777595,0.6686370073704939,0.6298684275841393,0.6459809530659062,0.4805179889735032,0.31615412983646085,0.4695434096789597,0.5959171504955498,0.5421792159662566,0.5589555622837372,0.6260246787485848,0.6356110142898488,0.629153769514933,0.6181967858348203,0.6031679957157516,0.37801357497925003,0.33801665621879096,0.5444057247721739,0.6034052377173751,0.5272136155743135,0.5929053506441171,0.6483159755906047,0.64612065627581,0.6426890369623213,0.6446958080479095,0.6545259596775301,0.4408151520673069,0.34938307298994375,0.5493304201697877,0.6543588115151471,0.5846020164224732,0.6161504882352409,0.6982883661445698,0.6835078641370045,0.6151412064836226,0.6802381036065108,0.6477822605587693,0.4734951896129702,0.5469237880232865,0.7372282831796539,0.6988454717540844,0.6754294813092789,0.6746445809671096,0.6760263132637077,0.6364166401637887,0.5697184896841687,0.6371158230086968,0.5850626168015232,0.470107973691972,0.6392119541218739,0.7076987159471366,0.6501149029792677,0.6722638935410001,0.6603555692557646,0.6424166974000209,0.5651917737211445,0.6078390949901624,0.608401662748274,0.48103685234563787,0.6034356887123626,0.7193717815945528,0.6723924046202374,0.6975512411052018,0.6994730869503321,0.704538364433503,0.6260241358779859,0.6318589831646182,0.6266555480348264,0.4735551513668188,0.5356483942239503,0.7072876413076248,0.667263586637227,0.6761339990283128,0.6780102814687718,0.6700326164454924,0.6274236081759013,0.5456203984890311,0.606755241177559,0.5653763738769029,0.42319221197868095,0.5481649308898564,0.6703308212330001,0.6096848717596339,0.6038331500596439,0.5521938084733105,0.5096704067944908,0.41969655829908326,0.36832282986168297,0.431997215285701,0.482132768704852,0.6669453667469483,0.8042507725733694,0.7069785197954859,0.723943373834681,0.9109488331660349,PM
0.9566703000540356,0.6425345526999794,0.32433484612729846,0.25599766060236095,0.2631037960350767,0.2769875625233754,0.2630071348338715,0.1400869553817583,0.18414450165184315,0.3355022911029618,0.6230540281580629,0.9308881526887381,0.9545417474203101,0.6455338301991281,0.3342769595300231,0.2625471256127213,0.2699415771006729,0.27529025182647093,0.2739010957169429,0.16018495435651603,0.17265406596130373,0.3062683788987485,0.5794070639227692,0.9047763956465512,0.9724511193500357,0.6764636231874318,0.34875116123509253,0.2543782936729214,0.26308617279075774,0.2666788213544983,0.23897316117388423,0.10851756397079182,0.1660325269849402,0.3193800811624138,0.6171903244463336,0.9241505837655398,0.9064259909831288,0.5965597109392219,0.28200426501567677,0.20374047635944492,0.18530191563567466,0.18186664455428458,0.17676913873583733,0.0767334577272889,0.08289053444764483,0.21848516967685538,0.48339082951547996,0.8186404637269001,0.9796052336661626,0.7327599279303191,0.4053122194761628,0.32343466261830434,0.3921628960090343,0.3526005544804002,0.3339623564783073,0.24861131839241712,0.13526163793570722,0.2330730572947809,0.4324966164661165,0.7594167595498732,0.9999999999999999,0.8325621392025321,0.5015930707432131,0.2581330394912763,0.25464546469286586,0.2650067215227344,0.29398776210900046,0.24809587357201324,0.12780098314667288,0.21983820617161476,0.4083917765184727,0.7296338306956461,0.9989218413984761,0.8796356554605355,0.5413831911664692,0.27632653925243933,0.2659203970578995,0.2662319277809101,0.2711285194184886,0.24868601911543753,0.23142169876087892,0.22623047223358428,0.18047628167763474,0.29867614352599536,0.6150368588774061,0.8996000551485336,0.7924474355418004,0.4661889009945098,0.23299492568341773,0.09705723461578974,0.13309577062131073,0.24951162340011634,0.24619491329861887,0.21918570079175026,0.18459650830060792,0.2410546411161808,0.559951089507792,0.8597970466665023,0.7838699097811118,0.46171532353675404,0.2320173268623208,0.10515798414231614,0.14217175692570239,0.27816745201026893,0.3042239766931726,0.3394088659274953,0.2979612642792976,0.23357294294471231,0.493277950734475,0.8175386955143206,0.8308950515110244,0.5177262591864459,0.22479422591476428,0.06935033155408499,0.0,0.11906471460345258,0.14441508672031333,0.14400502490081268,0.16023988982610493,0.15349075017428426,0.41251628956881026,0.7532843050794563,0.8753124074672046,0.5992647250445463,0.29773195219495985,0.14131315203112738,0.047152380085596524,0.17523710774839285,0.22973613472956889,0.22240296500542434,0.22443098248295945,0.19230715211001337,0.40139689886530594,0.7438926621598686,0.9147882219724185,0.6661702441450473,0.3546809083624024,0.17703128289441283,0.08715057813212157,0.20411568321010465,0.24090278904881213,0.22739227944693707,0.21501355089942475,0.19974381987234102,0.4773590539073266,0.8114031470263551,0.884069772528192,0.5888577294940368,0.30255251845756514,0.15826913252181163,0.076034705658235,0.20279334740114108,0.23859851970794088,0.22012684968949336,0.20968364911870097,0.18035954481069905,0.4370684439786384,0.7765151372781743,0.8806460251341756,0.5964413793234778,0.3041313939488387,0.14401239693198475,0.06950585126109765,0.2024650722503999,0.237369288951638,0.22565952692709945,0.21365369608312934,0.1995905817867315,0.4746332356807771,0.8087057406043666,0.8743651598029692,0.583357712345716,0.30072380518585995,0.15167825706514082,0.0785746246077963,0.2065032636591434,0.2366966253395809,0.22917778954805235,0.21889624327585155,0.19566564355756733,0.46333900077375867,0.7990977031923144,0.8806631841781342,0.5943475882144863,0.3135176454256178,0.15017495510677958,0.06622683324303513,0.19066628956818976,0.22336152213381,0.2106174638926338,0.20938904077027598,0.1720479785829615,0.39997794571643197,0.7261733019653905,0.9100790478126298,0.683191871584398,0.36564287317317434,0.17941774233595897,0.058972133513482405,0.16114761539949252,0.23177016019828567,0.2161920795316864,0.21928115278819915,0.1843496617108621,0.382029568836907,0.7263333765940486,0.9619370775034434,0.7868273817758439,0.4521239122837014,0.25580230465109677,0.26135094404982107,0.26476797283771936,0.27126998120489876,0.19146971351740494,0.1106923207889603,0.22596707920179016,0.3956963710709359,0.7108263458934779,0.9864150247119602,0.8783327191639924,0.5424352954006447,0.2715799267250455,0.2548303423860988,0.2513772236157149,0.2613816920438944,0.22232735694712524,0.10874283629123405,0.20711844218696818,0.36652366025392913,0.6665245492898236,0.9652134898838894,0.915428795629163,0.597373864309782,0.3063017387966144,0.2683185180774458,0.2664974277316955,0.2740826049909336,0.25400470850870305,0.13372071797215845,0.19123197785913415,0.3298228116899343,0.619513534343013,0.935489364868724,0.9480521037757238,0.6343126959098156,0.3249826160331112,0.26510659303764805,0.2642070545439833,0.27372472392927605,0.24943636874097896,0.12445743607143178,0.1843933704092796,0.3417911416168494,0.6407223012471698,0.951910725518713,PM
