0,1,2,3,4,5,6,7,8,9,10,11,12,13,14,15,16,17,18,19,20,21,22,23,24,25,26,27,28,29,30,31,32,33,34,35,36,37,38,39,40,41,42,43,44,45,46,47,48,49,50,51,52,53,54,55,56,57,58,59,60,61,62,63,64,65,66,67,68,69,70,71,72,73,74,75,76,77,78,79,80,81,82,83,84,85,86,87,88,89,90,91,92,93,94,95,96,97,98,99,100,101,102,103,104,105,106,107,108,109,110,111,112,113,114,115,116,117,118,119,120,121,122,123,124,125,126,127,128,129,130,131,132,133,134,135,136,137,138,139,140,141,142,143,144,145,146,147,148,149,150,151,152,153,154,155,156,157,158,159,160,161,162,163,164,165,166,167,168,169,170,171,172,173,174,175,176,177,178,179,180,181,182,183,184,185,186,187,188,189,190,191,192,193,194,195,196,197,198,199,200,201,202,203,204,205,206,207,208,209,210,211,212,213,214,215,216,217,218,219,220,221,222,223,224,225,226,227,228,229,230,231,232,233,234,235,236,237,238,239,240,241,242,243,244,245,246,247,248,249,250,251,252,253,254,Target
0.266064026878563,0.25290097519997223,0.2558833610576783,0.26449855302091807,0.2997774200117038,0.35565787752330946,0.4312456461594465,0.499471747133994,0.5598473341445955,0.5470433965364054,0.4896733865568903,0.4191955490007815,0.3502879266281824,0.32743868011849475,0.30629880883386296,0.287490404060216,0.2406701961338058,0.19037781569279755,0.22710893900892026,0.32355823683467033,0.4217561307345994,0.5203194012513559,0.623879604859654,0.7238131538667654,0.8241517063968642,0.9210556622898975,1.0,0.9736616366608986,0.8806172553764045,0.7832500249867826,0.6810011764311339,0.5819651895771218,0.48138445062045543,0.3886534162884092,0.3704492958224006,0.3862746101486674,0.3939421946523134,0.3803748334074628,0.37978852394172735,0.40564623781006315,0.4132279828446883,0.41826758792789764,0.41201942448939377,0.39377579226867443,0.3977200358331241,0.39563424761521837,0.41719634980758835,0.4073526989934413,0.43970263477960714,0.4908160608026675,0.5527254315881747,0.5984753037129957,0.5718139139012517,0.5052278668191019,0.44609120935886404,0.38832110906037576,0.3546606643525796,0.33126150996728265,0.3003545267728689,0.24746103316564705,0.2317119968065553,0.3089615208023484,0.4027584071381156,0.501347256412199,0.6015175750261159,0.698692703910758,0.794756868872506,0.8929450920036421,0.9760872895454087,0.9439647770145285,0.8506372493474399,0.753336157119747,0.652451775821032,0.5532788914346822,0.44880815691855336,0.3629552704614416,0.34782729009103663,0.361300221921081,0.3464208454203179,0.3353380170882634,0.36128503614194685,0.3563852347344074,0.359973309952633,0.3600653252309747,0.3415302840851111,0.34026816411928085,0.3469299674435127,0.3490769338918347,0.3491557586148808,0.36641681506573276,0.3769589146713539,0.4121497030867225,0.4748327459595818,0.5441712517370876,0.5907188378156714,0.577264780024703,0.5131818940478179,0.4465942958641782,0.3892710027950961,0.3474187037136396,0.34980044707654834,0.31155894519110605,0.27867682510007175,0.21805520258323874,0.16892393870859124,0.22239638036357068,0.319106606949362,0.4177402104341814,0.51972677949116,0.6208085660135931,0.7203546138025283,0.8262523887500879,0.9269737800838285,0.9950286353440752,0.9498580351629999,0.8544479257392541,0.7572577738966872,0.6577742185925941,0.552833640618752,0.45281756936858475,0.3583058034632445,0.3436432009301802,0.35410766498922497,0.3386154810887452,0.34848219039241135,0.33258224779133005,0.3365324944028347,0.30363646980197156,0.2724914867235486,0.2464341336444993,0.17979800055381423,0.07424118636215549,0.0,0.006923075604334805,0.08826330273767002,0.19273326780771205,0.26088406597161384,0.28764394681077254,0.2758546120538061,0.2773735204415555,0.27719868784772084,0.2413023876028464,0.2891989717577319,0.38323125299431826,0.482229606761722,0.5876466460602825,0.6882114901466609,0.770296579367594,0.7241053620135469,0.6250192763429068,0.5217363717102965,0.4224507545125591,0.3155281168808113,0.21458676038069013,0.12827333081861925,0.09008912206967468,0.12878329910598119,0.19963194922271033,0.23841988794730273,0.27060374664896925,0.26583781022054387,0.31159662701963997,0.36427673225550494,0.42688835552530024,0.49393143423996655,0.5329834578914272,0.48642008355977673,0.4131642315331798,0.3571548578746637,0.31930327419097315,0.3051467891339148,0.2951778190619301,0.28534511609573476,0.2925710078767767,0.2758894683814286,0.28947636355505546,0.282948110969405,0.28545568928111686,0.2853523060257257,0.26964984576129947,0.27781939993375593,0.2837704982553184,0.2995390227948551,0.29266613149083254,0.26544966052282737,0.3085816126902321,0.40397777833802184,0.5053757509112771,0.6051713497207842,0.7026828502538707,0.7003685285642924,0.6010188740886329,0.4952718129944773,0.3989041425639561,0.3047096127704525,0.21312795803125129,0.1561985765151852,0.18358990242420337,0.23736001630641734,0.27490702315135174,0.301766953625068,0.32723614850457805,0.3778335076950743,0.43466709192974795,0.50529586812796,0.5322724648826811,0.4819102743211108,0.42287524277428234,0.3723223978731469,0.3363393555408365,0.35177710253127037,0.34164788972574733,0.339736500700599,0.3358065486987649,0.3456916800163641,0.36914192433156323,0.36632943301119925,0.35655369757235933,0.3569404572886432,0.33042484744017964,0.32611387328730457,0.33392052783845294,0.3281920673545331,0.3093060231011031,0.27893211452758804,0.3357519570845846,0.4330262859645342,0.5344002749689887,0.634818535829262,0.7303713137543184,0.7193507796268288,0.6201493771036133,0.520251161857892,0.4210101812257294,0.3196947838891928,0.2224965791914859,0.13752020233905515,0.11973739204152123,0.16794526359511952,0.22329353974376476,0.2352511966789561,0.25513464388352425,0.2563102825938519,0.3014598192291835,0.3806836197761121,0.4500243268987125,0.4797920912082816,0.42661556936517187,0.345166267852417,0.28929592553109584,0.2378059019858889,0.1968169097044723,0.18021157061655213,0.20025051244311642,0.20907940243254552,PM
0.8988784252447948,0.9021187056056164,0.8556248719122985,0.7839216598517265,0.6954703567788929,0.5848317297063872,0.4714035461342143,0.4399804397940268,0.5291260854979831,0.6359189078760479,0.7450416170884502,0.8390011878182926,0.9028789576333054,0.9327774829314821,0.9520334789504039,0.9552866739580166,0.9666149016877732,0.9695033480345043,1.0,0.8899580607798017,0.7533284209315343,0.6034870327061896,0.454078057850146,0.31986425487117875,0.26718382604171387,0.3805847930905881,0.5275649956468818,0.6749045850755815,0.8052308531102748,0.8970802340196933,0.9110886680502714,0.8620654820925293,0.8338154445973323,0.8656781206332891,0.8953390681817552,0.8744976516262479,0.860804910288111,0.8438534159393605,0.868548247896042,0.8749506953464246,0.8772289767067236,0.9011082490448521,0.8896665677092477,0.8419646607868745,0.7673695150526809,0.6778348270299839,0.5785453418572106,0.46710498050035154,0.42832406078949026,0.5104288971755664,0.6123369096095255,0.7213299466953296,0.8147482283354543,0.892391820455865,0.9531786038169998,0.9772872521775717,0.9859124288665209,0.9738773435613046,0.942388420129805,0.9194759704975146,0.8011895821452923,0.6568395827766333,0.5126351796500179,0.37404157326193754,0.24714467465905976,0.2908215798907019,0.43128603584796066,0.567186624504108,0.7045663925969423,0.8311201970952804,0.8752311578979328,0.8369118522553189,0.7778780362094047,0.7745731729009915,0.818109662766211,0.857206480911938,0.8752636557025255,0.863369820720504,0.8479509879714646,0.8536529841504978,0.8558093227002628,0.8843870873200181,0.876223191172615,0.8296675826130198,0.7726643222719618,0.6883541720269926,0.576056533784282,0.4641101254785456,0.3698813177117848,0.3966197760163319,0.501146496727976,0.610483173237991,0.710829536805365,0.7900685421417584,0.8608224354608054,0.8861724528066062,0.9207504907139712,0.9508490530669786,0.9101404681605216,0.9033758085685157,0.8520172191151918,0.7101175897049541,0.5591025654437765,0.4098919651754276,0.27827449663033343,0.23744966892534025,0.3433235173489195,0.48571377626275813,0.622801618242725,0.754819340702638,0.8526339806924077,0.8756823008262957,0.8378320996930695,0.8167814480037991,0.8650092341993716,0.9144604693115808,0.9570896298240004,0.951476519453109,0.9507231751662322,0.947728401621641,0.9384604969016208,0.948945770474376,0.9613232953116402,0.9366841548790346,0.9112533255356188,0.8421744454092739,0.7596549105226518,0.7659022939988076,0.8357280784303733,0.8623848170499429,0.8907410710873749,0.8738235293210579,0.8625046343184399,0.8643665247555452,0.8722676157429969,0.8571601641157716,0.8582188822196328,0.8137273434412564,0.7599478101711772,0.7200360195390405,0.752270680762344,0.8027641567146908,0.7450127131407513,0.6172918481112659,0.4705837522424323,0.333848415186603,0.18976917314344188,0.06578795467628273,0.0,0.08780702295045906,0.23127519536943142,0.3691269729938145,0.5191564410073348,0.6591839761188063,0.7590227016963373,0.8370575725451581,0.858286190461957,0.8219525427770433,0.7975204269256997,0.7377087855463209,0.646777627512956,0.5473765632243994,0.44216068184245927,0.34386604490423966,0.2600344891031301,0.29172620722221554,0.38849281216693043,0.5122550272335071,0.6178382607430701,0.7108532192954518,0.7704142601157065,0.8033940126465096,0.7845251789009335,0.7729968603314847,0.7693510231925349,0.7758563950886237,0.7933965266005862,0.7898938857991156,0.7712775216879488,0.7234500582250134,0.6851305678120556,0.7013301197303985,0.7725074631046347,0.7904607612356234,0.6865168518206675,0.5496161673744102,0.4083045692461331,0.27850825408225477,0.15819891454613222,0.05090877960659457,0.06955348570006015,0.19654449922471384,0.3449563720264859,0.48131236245527775,0.628815604812885,0.7604001703069816,0.8472740528292455,0.910846963356521,0.9161125317432144,0.8844289678061679,0.8198551513526153,0.7413244433575303,0.6486874963908691,0.5283133974420213,0.4288981486865504,0.34945200319554903,0.35123967437112213,0.44126193044604056,0.5561725315985266,0.6548985835186754,0.7452251727465704,0.8011502002629176,0.8188460775213979,0.8137238112146705,0.8047985043293626,0.7873555611986944,0.7581616269747711,0.7712809084780594,0.7965777611449205,0.8156532092152156,0.8224547832818789,0.7783411526861008,0.7515182046662292,0.7778008491333201,0.8357037883621725,0.8058371871347951,0.6828959653814892,0.5441995168558482,0.4074234503839733,0.26695190867883367,0.13626450264835732,0.06565013799202113,0.14119195766588888,0.27903463755378866,0.41760693096398516,0.5680205788956973,0.7090876107169879,0.7965546993252319,0.8767214062244038,0.8675165898117325,0.8492097309664963,0.8462288516129917,0.7870579341031156,0.7052779191505953,0.6153625351618244,0.5015941126806509,0.39887431940735674,0.3397665839975197,0.3776553186814877,0.47489158498578643,0.5857295042432527,0.6886420500034616,0.7671792019266563,0.8177179112251975,0.8252394927953612,PM
0.37685314384321056,0.36449401939237425,0.3494200863429333,0.31785291156023887,0.2647943965926258,0.20608060345286972,0.23515523431853214,0.3228634631770475,0.4118189435648014,0.4923119495514314,0.57720680244266,0.666541459087499,0.7559149987279843,0.8441878805783001,0.9230867917004224,0.988414542465412,0.9539938321369632,0.8741141906153473,0.7910187155471256,0.7090542426227555,0.6263063873029073,0.5459032806061981,0.4638365601924337,0.39069303029120017,0.3645984574409209,0.38015201976631086,0.39968530891383014,0.3757403346911363,0.3611304020211994,0.3549623575314669,0.3543348428701425,0.36408707006717145,0.3576510030472788,0.35906761781230556,0.36329880161840333,0.36143127260471997,0.36335112901819877,0.3657628931080972,0.36708400112548234,0.36554896393164493,0.35344273616270194,0.35002150028468093,0.3575409357394863,0.3666376578387782,0.3697456321167627,0.3837264737153834,0.4062976841367225,0.42114742961774776,0.41404807611109384,0.3941905273235349,0.3775745088672007,0.3652835248511639,0.3525145091897961,0.3254291382924872,0.2688094815286608,0.22847127900660547,0.2900259665021665,0.36959973700473614,0.45830785296085064,0.5476776184790142,0.6350787935081856,0.7140441131734379,0.8019803190658192,0.8887256151251754,0.9464167615983479,0.91467951315232,0.8389725250615718,0.7521206239132778,0.6727282567999342,0.5864213225457757,0.5021734687228914,0.4244120849234283,0.37816508813988636,0.37363121976185565,0.39801744725435273,0.40014098735846937,0.37760042478143174,0.3743170162817375,0.38077169246549114,0.38091085110543976,0.3809114836259535,0.381808635635313,0.38744112404545406,0.3787259893974906,0.3852386146042124,0.3835099629598624,0.37313291575334806,0.37547579413273735,0.3878297823715189,0.3904082930979349,0.3943924868523514,0.40932504023655114,0.4377319003860378,0.4591173798445156,0.45601536304728785,0.44002598293815187,0.4235330708034446,0.41052145375190485,0.38899254460536814,0.3648872643654857,0.31400451472807744,0.25670468403031577,0.2876991719131199,0.3702221147809348,0.45125040739508715,0.5403111908675291,0.629685896767233,0.7190529278052133,0.805990558559728,0.8851053778023041,0.9698372368827946,1.0000000000000002,0.9311996447196205,0.8507530608709268,0.7675491514638619,0.6888960131379294,0.6091510813289218,0.5265648125853308,0.44943556068776647,0.400113122493851,0.40611268380877585,0.43162697226330127,0.4161447647321148,0.3992105389391363,0.40038679560911317,0.4021168377763338,0.40587510015593353,0.40694740334723867,0.39657078559730485,0.39999490816621575,0.40280385440396915,0.4069274264214371,0.40802898410846233,0.3987430341624154,0.3867320956031228,0.35740003916823837,0.3569512756163695,0.36609522853609033,0.36187393814252977,0.361109902762091,0.35491361920616193,0.3607033206366752,0.3615606990790956,0.3606790627347498,0.35308393131950644,0.35438170245482614,0.3613600962310166,0.37911844415809814,0.3678694931078679,0.35211378488473355,0.342325520507998,0.38929615932085215,0.4620064685496412,0.4973916992165568,0.4337292311318721,0.3630115985246418,0.2843173212390615,0.19845870294387447,0.10999623777759493,0.032873841327599296,0.0,0.05510009316377218,0.13111807647397566,0.20616901599495807,0.27989786788185245,0.32866813340801726,0.3537390459820158,0.3768496732461044,0.3837186482782766,0.39501687645423833,0.4128710051847848,0.4082541285724799,0.3794605582089925,0.35387152395676114,0.34780256872369963,0.3473443170497592,0.33856749630612737,0.3339649645468532,0.33512437581289745,0.3377369555592733,0.333996297852609,0.3339274503429277,0.336277388883232,0.34344248291740365,0.33936701121948887,0.3419197027820562,0.33507372555243475,0.33409082466841444,0.3442464845609188,0.3478957268482026,0.3325658995743932,0.31469599923260394,0.3430600903484249,0.4150450019386154,0.49337574868780165,0.571486952551153,0.5645121933239154,0.4885301177179915,0.42729127374176845,0.3553434657023671,0.2704861123086342,0.1905259872943239,0.10200147121027059,0.025577820942936924,0.007176032906432095,0.06783935532815732,0.1508565264257029,0.22291184102218442,0.28072129385593425,0.3096814159888239,0.3245517690141091,0.33468287231640503,0.3489805012935767,0.36847205310045505,0.38261516253993766,0.3653126828989184,0.34682416037337993,0.329269509156229,0.3252356090741373,0.32408545896575336,0.31185906188005075,0.3071015103922059,0.31709850975191256,0.32593592054551457,0.32139782066560163,0.32010129691104017,0.32009917327700177,0.32009917327700177,0.32009917327700177,0.32009917327700177,0.31981704945280476,0.3126047659030544,0.3112019072064276,0.3173076407145501,0.3302900652884404,0.33595898383577816,0.31758631824416317,0.28944278340384577,0.31168295452705563,0.381934413340385,0.4580931279973359,0.5156178996010963,0.46510645578398235,0.3763039058154052,0.2869291671887606,0.1975931580604413,0.11307413795599186,0.04899095879814519,0.0577659204385641,0.1247039787857187,0.1967233442999683,0.26249876605908207,0.3078127864456428,0.32235435421748915,0.3369890664538182,PM
0.6467586158992091,0.7044207846139265,0.762275636453909,0.7898279140361337,0.820166273396489,0.7799840247881802,0.698921695868683,0.5714508688111337,0.4584134548730523,0.38965565953641423,0.4857941703573463,0.6277748342676164,0.7816380716843545,0.885304547356605,0.9597212911389104,0.9867344635189808,0.973103492645456,0.9372960483671671,0.955645151771451,0.9031199828659613,0.8271017617974019,0.7968328624033996,0.8337937212455397,0.8589929249985193,0.8595934989351202,0.8578189975450305,0.8373878634863692,0.8311515490760266,0.8231537460933529,0.8476567637849364,0.8188787476735193,0.8028077573146843,0.800865929740894,0.814459848022687,0.8143355345680927,0.8471178000823905,0.8710428558112122,0.9223694773111877,0.9335382422705321,0.9272232122038879,0.9197549266713567,0.9131413302157982,0.853787907165902,0.7659237145534759,0.6532721211902102,0.6571339075362452,0.7792449293518757,0.8930702232404508,0.8879208004685024,0.9204098514853003,0.932589227779351,0.939818475280906,0.9902416043271467,1.0,0.9141043668553532,0.8266807096820887,0.82583204365414,0.8656824715090092,0.8667166796755765,0.8422302670216917,0.849847973194704,0.8161858385484129,0.822013319980818,0.8285794278100118,0.8300175467665518,0.806801521905439,0.7793591903714558,0.7711503322960782,0.7561077868721293,0.7755342504289109,0.8055010568316119,0.8317574357068347,0.8505921084944656,0.8529026263519359,0.881920013741742,0.8593930675264856,0.8008902429885039,0.7271139775929933,0.6239915059785561,0.527562754784821,0.5833996505727574,0.7281659124662907,0.846582936009832,0.8488238303865359,0.8150864734979653,0.8767039846007991,0.889477045433491,0.9238302334100297,0.9159686276325836,0.8339521552064815,0.7885361808489479,0.8107882212887167,0.834922901603937,0.8525449395631819,0.8470840318606188,0.8402803240859358,0.8441731069729475,0.8579802289575511,0.8488817226386178,0.8424942551969501,0.829644733692831,0.8010965804136942,0.7633113453953335,0.7737095675869448,0.7766272327080168,0.8018315145393355,0.830214514374652,0.8346515892983035,0.8493276993223606,0.8211642143796345,0.7511078047048318,0.6425096568707369,0.572337727057687,0.6517102821215612,0.7838345898796089,0.8514494407159781,0.8229689546321293,0.8420518374074124,0.7758047524648175,0.71933066547974,0.6339083598880553,0.5714772913861932,0.479984696670118,0.3462748737188601,0.1841761934087307,0.045453049244296384,0.0,0.025225704620909006,0.13804888830138307,0.2873406465446955,0.35063915498014175,0.24187268812055773,0.086387448980636,0.007591456297940891,0.007501705334374442,0.06441810894355582,0.21363871441995474,0.3763597098341185,0.5029889571330921,0.5855211188811369,0.6975932053202163,0.757727416050197,0.7532267347504833,0.7477141022607032,0.7280922502132467,0.6845879943430013,0.6807125535537555,0.6809479745069149,0.695666427226354,0.7374143557083546,0.7447896826861289,0.7428722544195088,0.7437929088759416,0.75046928525457,0.737166097566198,0.7488820590800618,0.7529204526002244,0.7574764530359754,0.7310810234420142,0.6842268081320073,0.6750584679765375,0.7262682140242189,0.7904099130673767,0.788153902961449,0.7819016327897499,0.7493138528904124,0.6455907248470316,0.5992665375279715,0.5182913370647944,0.3830088898673356,0.28536431194079626,0.301757113449705,0.3953514107209717,0.5179544284646678,0.6363573112981928,0.7159597240863231,0.7745396039756196,0.7704161909379259,0.7618148235864943,0.7400362600925598,0.704660009933173,0.6646590624307489,0.6627979995105537,0.6666067438589662,0.6830931411850276,0.7080519388261299,0.7116965227165153,0.7312262203778657,0.7225366360020136,0.7223107370520374,0.7252115048117149,0.7429685271022572,0.7403383689037817,0.7498708704853696,0.7597422108486453,0.710774012617283,0.7072514179855665,0.7920825603089794,0.8525598801588066,0.8257395855681482,0.8266934253967078,0.7933840989597387,0.6874445521535293,0.64838790733317,0.5339217166275017,0.3955321594728023,0.3098370057134323,0.3576903690087567,0.450562578809258,0.5752831734448742,0.697630242574804,0.7885348053997943,0.8074355331865206,0.8096681647540196,0.8268920707895715,0.8094488062408942,0.7681577649192128,0.7109964625555119,0.6813882540313267,0.6936143312014824,0.7106885761822426,0.7318983800853172,0.7238828057804128,0.7278106681415961,0.7292172490811684,0.7273154327093474,0.7412783442140611,0.7624002217973187,0.7625364202750333,0.7223308971881579,0.6616606459377063,0.6667453247596002,0.7272750569738973,0.8097172770909458,0.8311964936361989,0.85833588876174,0.8567466314294094,0.7690305328708815,0.6704979203213437,0.5354964078502462,0.38557317426919724,0.23988788769550062,0.09697888512199082,0.02739070514551223,0.11463060234480071,0.2559879987280924,0.3629177502220715,0.472917726402005,0.597964106184202,0.693123176664936,0.7198636012777779,0.6682508737742401,0.6536083856316477,0.5927576176486955,0.5354202908750354,PM
0.5265130994973761,0.6295343195281644,0.7314096482668693,0.7347496692699873,0.7869694363214932,0.8236787244054438,0.7449077054586022,0.6362682807268447,0.5345250061522973,0.47026690174056807,0.45721291488996796,0.43820975492534675,0.3869958942523053,0.3976919507478627,0.44516285915183484,0.46455742691290736,0.4745784936507196,0.46547139188976283,0.4500301373141564,0.4857529725340095,0.484618881211091,0.5087856264842072,0.5098003978315861,0.506630233677015,0.5395774856709772,0.5796933179278132,0.5963359594837718,0.6015809452854235,0.6013189698309471,0.587336575583596,0.5910333078863226,0.6634835604730229,0.7235716857343166,0.7251125737496595,0.8303366747100829,0.9497879710664003,1.0,0.9267394287235393,0.820367295825092,0.7149623462525736,0.6598028681759351,0.6492688494310919,0.6380207612235682,0.5615531980986557,0.4825716285800561,0.4537272405192003,0.4772732489432574,0.4610317088243243,0.4541153516666765,0.4615795686005,0.4555598841718016,0.4289728666852053,0.44546840217620476,0.43559548335699994,0.42472858611058406,0.4555332267678276,0.5115552460068655,0.5444424567539476,0.5702144630242372,0.5964049966983027,0.5980134923935636,0.5997171434612985,0.5663702629858514,0.6256911945204431,0.7294866101265649,0.7503798383106406,0.830209048345981,0.929150015380154,0.9239160915361082,0.8158557406427862,0.7047685561428496,0.626928930944564,0.6040987842657537,0.6287876772099015,0.5890231520801801,0.5269917077415807,0.49400064393701415,0.5322699581641395,0.5192025445824413,0.5061052571178819,0.5030015725977077,0.5121454112465629,0.5316999861363221,0.5105525371492705,0.5116408735260896,0.5009372446708253,0.5176149207045033,0.5612048360701807,0.5896567627734681,0.5873873619098333,0.5847059724149943,0.5684336434710806,0.5507309732672367,0.49644138199936316,0.47452483887575525,0.5692624084774507,0.6240408398097204,0.7019522961361697,0.8209608813884568,0.8656157164479339,0.7926494058286302,0.6827711857618448,0.5745400745369946,0.49523595609821003,0.48391041998496,0.4723070835959464,0.4248448860964973,0.4117596210499066,0.4566960174011272,0.4799014567952069,0.46284342639381393,0.41456334914809734,0.412457477928188,0.39881696127295774,0.38256964938437976,0.40209459500790423,0.38859877513547314,0.40504475356862724,0.45281252030746044,0.49737221781794627,0.49858537359328503,0.5000685090936359,0.5125662657832426,0.4858506101947082,0.4595827351184969,0.5107974074143118,0.5164742395606541,0.42356072442410087,0.3135342956287097,0.224995300289331,0.10380129427379359,0.007454314660803707,0.0,0.07557438297880159,0.2006249879192601,0.3176674194202991,0.38054834872608145,0.39130292162488667,0.40526928127288864,0.4113680968953224,0.4083506335799538,0.3991136409271627,0.35693043550284687,0.30876967772508834,0.2971680392648586,0.31285675788636347,0.30119077382307946,0.30987649431080033,0.33005751266008776,0.31662604479623946,0.3537427263674795,0.3550559774922242,0.36387170828300786,0.33146676755392335,0.3192997378765505,0.36626243619581755,0.3926492154745316,0.40656527478999216,0.4451111899046696,0.5236215334719074,0.579789892928849,0.48871279791613187,0.37652527647457656,0.257851031366517,0.2077310024075225,0.25896311966995533,0.3241869677083522,0.41706208814148393,0.4774417155709796,0.500080046763955,0.497885245331414,0.48728209045204185,0.47380889701517814,0.4408044840401599,0.41206141816234165,0.42221159577339495,0.4344022811666042,0.4434725767417458,0.4296458509794525,0.4285799285572378,0.4309999466373906,0.42621987061449307,0.42295714363402714,0.39622514810467546,0.4377747258686653,0.4907702465614401,0.5167580399626819,0.5263163212825686,0.5590693406839948,0.6208392373704776,0.6242617575336955,0.5081478886392539,0.396357398351717,0.3062767232791077,0.3326233863347219,0.3979166139116139,0.4756138086303858,0.5172260219053508,0.5232606882824298,0.5179632470146895,0.49209055930623435,0.44776098474555504,0.3993163129243862,0.355035247820489,0.35979263824380814,0.36970799103478447,0.3588150347713386,0.35498099291642715,0.35709092856118385,0.376228109764269,0.3805706649083067,0.37216761894978445,0.40001166579685243,0.46895400159512146,0.5382249229466352,0.5498010068674728,0.5658610233279933,0.5974828326677062,0.6943013958549358,0.69553438803106,0.5900991272743119,0.46885641158193136,0.35757555425601684,0.33035532209251306,0.37604765122537875,0.3956855661792673,0.4747064693013372,0.5105353895052636,0.5272527101041815,0.5135893079379077,0.5160759907423973,0.48458423225638336,0.45195626479838014,0.415835081340425,0.4163170029553567,0.4064591546514893,0.390993354967073,0.3836338191214268,0.3852976820703016,0.3761009128197337,0.3746986562719541,0.32582842468884765,0.29844849715937993,0.32505245887071155,0.376988312923356,0.3897108502211517,0.4017377824144597,0.46388206223542117,0.5661274906719571,0.5792415699890698,0.47591387811649755,0.35536148897952247,0.26151669738032934,0.27514134544476354,0.31338992228182816,PM
0.08589763368839631,0.146435147534411,0.2061161423323561,0.2531339969777513,0.2952647448588024,0.3204307860160369,0.339950833943665,0.33485241984769165,0.3585852874198865,0.45506156693524535,0.5533306377973124,0.6567981067490309,0.7552871174337723,0.8574571021038684,0.9440995452665215,0.9402516192852406,0.8424157163256802,0.7349500891987566,0.6340417390727164,0.5329893143670581,0.4359593650330884,0.4202287481704061,0.4527473280868264,0.4218311751654158,0.3672380405781308,0.34437746510677436,0.3922469411829954,0.44279203881075824,0.45235578192264225,0.45742645557047124,0.45012004643477765,0.43369321678564376,0.4440820439956987,0.4559635626418441,0.4578937264689944,0.4600516402959147,0.4241739708657464,0.3662619034425372,0.29354905376773677,0.21005663569318078,0.13427699028085605,0.12920160302789196,0.18877296756601614,0.25232311860719947,0.2989015480104402,0.3390904791876428,0.3562772194786208,0.37589591242877973,0.3725825987406626,0.36041999958769,0.43722444484429546,0.5347475914981399,0.6382756607677214,0.7425212089099846,0.8407614107201182,0.9407416042237806,0.9808369915791173,0.9134740014562548,0.8081505518947119,0.7007198272203483,0.6005620573182038,0.49912417717097024,0.4323192957914903,0.4643866049224734,0.4474541884265697,0.39155535409793507,0.3524054014132034,0.39080594451698736,0.4348941714245498,0.4521249418930331,0.46180512002181895,0.44728431573409444,0.4406305849020653,0.4468986087390172,0.45405811759815173,0.46060384126616927,0.45912928289165067,0.4351638953235335,0.3856337096542026,0.31827806087486255,0.2418742593871872,0.1630346627807826,0.14023234047361277,0.1909110208380993,0.25441510510700227,0.29986601173386673,0.3414930021528735,0.3632212244489337,0.3761973232545588,0.363089622701976,0.3512443064046795,0.43102530558333085,0.5312195132893425,0.632757099902628,0.7361902752808598,0.8348304161363294,0.9345481489166227,0.9999999999999998,0.9467608997645722,0.8408573558348678,0.73336991794357,0.6326287961605177,0.5319058280284426,0.4377802839240077,0.4233196122567533,0.4706437163576618,0.4569126346074375,0.4014702714715297,0.36481306077866127,0.40363421505689234,0.44008673776469487,0.443204850559771,0.43045509850746133,0.4278645097864324,0.4289412274405151,0.44067046216641015,0.44423636488118556,0.44074664383343687,0.40144545553820943,0.34671891221817375,0.2765708692287292,0.24405021633826007,0.16720528436455484,0.08582985105397567,0.12369857760260783,0.21860782895109465,0.2518475006545604,0.21159083051330252,0.1957384244151379,0.2534183243747965,0.29469438899719,0.2698049896033494,0.19865829646649202,0.09571236831475427,0.018107451136482045,0.02466433705635418,0.1040231682469075,0.12117999679972491,0.05616306831284601,0.005602119919430271,0.0,0.0013832980008636753,0.032805245182004894,0.11023331535742908,0.19811693729607005,0.28364984541672356,0.34598391523986627,0.3855269468955924,0.39474952811496045,0.39066210401566637,0.3780240780958979,0.3791346303697931,0.38398404874985936,0.3986088707465585,0.4005098193489418,0.3696307734349824,0.3202525001659262,0.3151881205151412,0.3705054368017857,0.4115987208098921,0.3529575458925527,0.28425001278058715,0.3124876847567257,0.4108266376708005,0.5082234724428958,0.6028338375029152,0.6246805778333513,0.5295280492525991,0.430921622586377,0.33364495634232294,0.2757125283923114,0.30455635442592954,0.3245085375106649,0.3175357605949498,0.29876569589406476,0.26476974157113475,0.21851216742407975,0.15767791082600735,0.09907933377026201,0.0717100745331487,0.11991669522071491,0.19440642323582247,0.27067572079742486,0.3413378594916334,0.3923150915898781,0.40749666605617896,0.4041563917538429,0.392753708734489,0.39184088600876943,0.38240136899699784,0.39159344609109437,0.40047708244599645,0.3953116127406531,0.39391440098983455,0.3544305060500943,0.30727991437139024,0.309006710325457,0.3637412181730657,0.40880360876114197,0.35672004407646285,0.27354518115831605,0.2650397591525391,0.3518132858799812,0.4501315360959748,0.5360404248545529,0.5060878870225569,0.4116907703073138,0.31938602277393424,0.26541396530265593,0.2993597769392997,0.32649968267347584,0.30704745209397966,0.2780828466374212,0.2372610231886758,0.18253919972193056,0.11870200792044261,0.0701821685810502,0.083410697539676,0.1491563234563953,0.22673456833293293,0.3017894313129028,0.36903949102362543,0.4023897756628141,0.40637407833985395,0.40463186580559474,0.39253134400973777,0.392051702778651,0.39455836518610377,0.4068363217259645,0.40477135175797696,0.401234415894667,0.35215722904616986,0.29594806422158704,0.26964388366758807,0.3107627241226558,0.369122380150942,0.37511826939277726,0.2942822411539392,0.23698476689927728,0.28841132891233223,0.38805420324838047,0.4873075696782172,0.5593732188722724,0.5115491324559998,0.4231080817960986,0.32975124566770764,0.25983585410457644,0.26649539157292534,0.28744605478686425,0.2672424033416203,0.2327231875179423,0.18992470047189047,0.13732873263013778,0.07578285747292623,0.016751339712973712,PM
0.8664739258743639,0.8735808339739624,0.8590303886457376,0.8320339180197345,0.7870762817650925,0.727690282085864,0.718501082812584,0.7797431413108364,0.8436033425678824,0.8801674509752808,0.8906837758366719,0.8532796892310928,0.782652712035385,0.6986299598753114,0.606811802787697,0.5132014068677215,0.41855942686559566,0.3910238894878506,0.47658035027938617,0.5749399198131062,0.6681639352076902,0.7589693494303216,0.8481787428652019,0.9370388221815917,0.9841151443036162,0.9331197664872863,0.8753580063970148,0.8309494811418292,0.8312875923649319,0.860925531388316,0.879435742272755,0.8883521436694233,0.8720647327479645,0.8551500708188293,0.8115216895642627,0.7552279645623872,0.7616183931229539,0.8211115135981353,0.8766925208408731,0.9046420939822069,0.9168556398047276,0.8872465596191685,0.816831201868943,0.7322433259255654,0.6418478501392291,0.5471519499555382,0.514315280523373,0.596095522372857,0.6895359778563461,0.7844665116613583,0.8771060992719566,0.9656843680347258,1.0,0.9364612696790593,0.879618312723514,0.8301320552302791,0.8269912930067107,0.8644899320630401,0.8762693650774287,0.8931422177176414,0.878111958891284,0.8628617035125217,0.8318828790744952,0.7742780609173128,0.7361441976196785,0.7834973001915211,0.8431174077248764,0.8857847172567073,0.9020100796782204,0.8811714226016547,0.8149432499943714,0.7252452199973434,0.6338261273149264,0.5406170677133331,0.44586860549195406,0.41175807397608266,0.4904114887372004,0.5869877841701516,0.682984021505316,0.7772520262590485,0.869322472449878,0.957132350002863,0.990015946402826,0.9270742215028445,0.8744745227375856,0.8287439690510159,0.8368913435974403,0.8567685913549903,0.869508047142433,0.8815229090777268,0.8831611745509549,0.8703581131560236,0.8390158570267066,0.7861143223670894,0.730027859263275,0.7444832903772185,0.8080017316539987,0.8683824261137412,0.8991065667116827,0.9100247799347678,0.8807123899908216,0.8113212047740299,0.7257178308475758,0.6332083423940558,0.5394124415544854,0.4499438892127505,0.4523313326793723,0.5398145165814892,0.6386117017393746,0.7320084851071711,0.8261468555327589,0.9209012998022725,0.9983469700884058,0.9751813956065909,0.904932784218526,0.8559017621564153,0.8246306449722873,0.8092886274071864,0.783496178058465,0.8012236079787034,0.8486691908177812,0.877803307042941,0.817433038627474,0.7414004193462356,0.6913352405111028,0.6024047260142351,0.5411023138325921,0.4649583056010247,0.3653580352628454,0.26517519456482797,0.16932065679259412,0.07456452582532758,0.0,0.02873366027411306,0.11851783759577894,0.2140944349029168,0.31409065902084676,0.40946234162155926,0.5051095031679247,0.5996146158641629,0.6914769878648672,0.7803477666697844,0.8531803751556888,0.8695153867775218,0.8537579610636754,0.8051065119677254,0.7380540065670771,0.6866787675021577,0.7104765568771061,0.7690984167230113,0.8194851269385905,0.8393000024422204,0.8413794999422803,0.830828718197512,0.8194599590904639,0.7999934373853872,0.7780979878575933,0.8172211509529312,0.8622241844893992,0.8510427964688945,0.7663340794473181,0.6696260233821247,0.5763127832990078,0.47817783609456543,0.38482209475333584,0.286422651464858,0.19183053183830112,0.09809835989053661,0.06498909781709283,0.13922506499174048,0.2361025079278647,0.33084270504497315,0.4273885051321611,0.5275841681964317,0.6249279842329714,0.7162608904400543,0.801865492824104,0.8577033236256433,0.8602725549226828,0.8351997085504275,0.779772018354179,0.7180349871313922,0.6903594493613285,0.7335554739484289,0.7961857346901724,0.8260732123919223,0.8466347737441111,0.849846929214223,0.8314434030959015,0.8061597304105579,0.7721941669288084,0.7986737467480292,0.8506598025199368,0.8694424686880897,0.798031057361722,0.6988694837312817,0.6052571028379303,0.5074370432953561,0.4128081468668021,0.31616211044830256,0.21957835272534987,0.14432529805301464,0.16966340909189914,0.24806759342252294,0.3382772424079694,0.4318091789206202,0.53108770868214,0.6253143365312932,0.718812170294914,0.8070245939224117,0.8669814910773426,0.8708609815850745,0.836122995596539,0.779301889360605,0.721759769854535,0.7075797480984016,0.7600873784204278,0.8130589762030538,0.8410692260707326,0.8513743297233938,0.8358671504372024,0.8149100822738296,0.7925212110719513,0.7861964814229903,0.8294154579359958,0.865496245314703,0.8166788314476261,0.7235476898892874,0.6275390125182463,0.5332555090430273,0.4362913428655766,0.33983813693519727,0.24502158167959864,0.1450175504078356,0.0554374514073428,0.06216052280698481,0.1489679727473342,0.24651522390752922,0.33998792992869453,0.4384796156577506,0.5317857052046042,0.6255286261319077,0.7046847093075181,0.7845578701282692,0.842992453561983,0.8406789934946193,0.8055552759882929,0.7379613988030256,0.6765864114757576,0.6654657324395787,0.7203750923691565,0.7801907595359696,0.8132205568367663,0.8324384244991563,0.8311570394661902,PM
0.8651775211465853,0.8664358724878338,0.8658530379217828,0.8637607409556407,0.8612049397528263,0.8622744787310042,0.8402688208353764,0.7871685007942759,0.7302529735284675,0.6781707999068882,0.6970983519863594,0.7488359130533757,0.7984036214578152,0.8413308034374831,0.873680902204734,0.8864023789187134,0.8987514569370496,0.8925193526352355,0.8610936451966926,0.7948052483628787,0.71351634446874,0.6340303363726687,0.5607736313559486,0.4765871541590365,0.3845570138437422,0.3239371040525232,0.37777438483082015,0.46384624783943385,0.5523762431240378,0.6388322498916625,0.7267674257424224,0.8153914371176081,0.9006045743617059,0.9794138326684874,0.9957530911520782,0.9312351114552955,0.9032817422417552,0.9058586370073567,0.8775894565596103,0.86837564251695,0.8682134546142988,0.8874937910630514,0.881914815686516,0.8859607034800077,0.884685859945004,0.8772056625631397,0.873393327644642,0.866415482085489,0.8641550664684614,0.8683715306168345,0.8673370089072392,0.8568109725687909,0.8644297525519853,0.8578524568938894,0.8354522236339716,0.7798003482312408,0.7136965661128023,0.6745904782637786,0.7086846472054589,0.761782256761913,0.8098661917414691,0.848850631665192,0.8747067785767417,0.8888148876720445,0.9054450427297576,0.8845495590702914,0.8464198595760715,0.7795016285917893,0.6964303400046785,0.6042343307405478,0.5183470105005052,0.429742524446743,0.3816448076355681,0.44565114781471715,0.5315146100147503,0.6232826052647598,0.7097472613922688,0.7922944523202731,0.86268079016135,0.9435131427016377,1.0000000000000002,0.9613734730409809,0.914767660807194,0.8902727139763382,0.8703570553893603,0.8508678278383568,0.8532995282230236,0.8669355258874705,0.8649615759644076,0.8670131326247834,0.8662132456956855,0.8685087304004757,0.8649960321074743,0.8585070912172166,0.8570416978195536,0.8556140076948127,0.8622999442072843,0.86232141387583,0.845176104351218,0.811213311675991,0.7561583998628625,0.69071171314497,0.6716881177745355,0.7115991264961194,0.7624925157757432,0.8082132856694908,0.8471785253668436,0.8742071702609968,0.874303680138506,0.8787932099014524,0.8658022253365381,0.8148059695536809,0.7498430502746432,0.70448549683145,0.6377793005984274,0.555431335007115,0.5128153992327062,0.4378275283900497,0.3464908069369521,0.2603713806913417,0.16652342087478678,0.07811906227458665,0.002260204797870813,0.0,0.07847309777961331,0.16871761591792533,0.2618548028609917,0.34394355985752645,0.41887919220185,0.5023923533998449,0.5929759000634693,0.6696070056978993,0.652131364604623,0.5610795071957098,0.4927861315124764,0.4811471647563861,0.5212769813017568,0.6106022506997411,0.6905084965813795,0.7278628925786719,0.7892126663422763,0.8318520659073212,0.8312466019777729,0.8265243191251772,0.8011827280274681,0.7635978878548384,0.7156118159335607,0.6636596646356152,0.6233580327740234,0.6283238197620136,0.6872583905220384,0.74649157877209,0.7961472800058222,0.8161310860199495,0.8204496588401435,0.8158441779966983,0.8156877840162962,0.8138411593865611,0.8201620385792971,0.8247657710160559,0.8179209761202053,0.8233164106469311,0.8196863674438932,0.8213992169155395,0.8017295487622886,0.8006386938051595,0.8255977921164781,0.8439324736270126,0.8569537934025371,0.8420833160034353,0.76559444451366,0.6759863406358879,0.589857022023067,0.4987352895947008,0.41242891055737263,0.32425440854427245,0.23507152337338555,0.14437363831086647,0.060948717842645106,0.020021264647926307,0.07943950890554485,0.173368356607432,0.2679737414201304,0.3551191369212898,0.4461926600406734,0.5364001167466901,0.6220870678466688,0.7036261111786593,0.7818019629176425,0.8360625311538417,0.8450342693885482,0.8390513257350365,0.8206944445976021,0.7888237444053601,0.7416416279152866,0.6908962725438885,0.6430857590105212,0.6284280052344777,0.6703551052281425,0.73667640659166,0.7932793326163339,0.8159107456894896,0.8182930115194933,0.8199477976126766,0.8202671993540098,0.8162002605586285,0.8191015403759521,0.8245340607825684,0.83238732999883,0.8358832809620409,0.8358685823875585,0.8420891692166486,0.8402474739978165,0.8121763560404911,0.8199631779726644,0.8343045807577656,0.8478852099266272,0.8642793023883943,0.8714080280269878,0.8023048337141614,0.7092724668781938,0.614712333442077,0.5276660388314787,0.4370262554870745,0.3504876289294989,0.2594474614825264,0.17330937468986596,0.08797171326433562,0.044754463205489925,0.09792832852826505,0.18675683937715304,0.27839955221958723,0.36507662000821184,0.4595332169602573,0.5542821167297753,0.6420368935894121,0.7254160394260929,0.7971940865062603,0.8457891733529099,0.8508899177443345,0.8335109456737084,0.8095492678800074,0.76798989048437,0.7191110639526912,0.66837214960318,0.6298508928285032,0.6412883569333983,0.6972721511546556,0.7594623812775745,0.8038437331988024,0.8123359431587176,0.8166104788686688,0.8161685364222049,0.8101772620277072,0.8174856922000304,PM
0.38228204441385016,0.32797561800074226,0.30290718893050905,0.3302385887829351,0.369733986050395,0.3973368595081437,0.40929779600082683,0.4208909094403601,0.4011677034236947,0.4116855923091316,0.4920221899167416,0.5827845218483312,0.6754636016590496,0.7771288526633222,0.8716739999389447,0.9633725141702929,0.9832031049811876,0.9078894430340025,0.8159547553871753,0.7225656461969503,0.6294308566887719,0.5294112039116936,0.44733848232896123,0.4041459457744947,0.39057854226747435,0.3973331806255491,0.3909025215469686,0.34250813463537333,0.3608814034547503,0.36389694891451163,0.3577712063502305,0.34622623928651897,0.3574399868904521,0.35375024588509585,0.34812038566196946,0.3176486602590243,0.27979448491955217,0.23957708301723257,0.246745429665004,0.288679505965723,0.3128364611008039,0.3211763726446042,0.33260201832110803,0.34352444488815936,0.35653674205999564,0.4178988344508878,0.5030154966725153,0.591060869812458,0.6724927691452536,0.7632914966547897,0.8613427871335848,0.9212046356927395,0.8646848250545374,0.7794478041461941,0.7021610975106134,0.6130610804042582,0.5188544713487369,0.4308491036452027,0.365716121085385,0.3508136836647442,0.34292929787510373,0.33663135412352774,0.287361903691967,0.2956530661476331,0.32371253434658676,0.3210935680515863,0.3438033767461748,0.3509760100224375,0.34170839418867094,0.35012173104177724,0.343101821383631,0.37174414374263054,0.34828047097871084,0.3305062692273062,0.35787044216104325,0.3946679477185542,0.4266318537048137,0.4142894204337362,0.4107030810758385,0.40578401386459384,0.4293653294304083,0.5044991297673145,0.5959826819553224,0.6902053440738085,0.7887049945630549,0.8890715304208581,0.9600718227667173,0.9293701786168527,0.8327556273011381,0.7340003558805275,0.6410520828071584,0.5505367132486032,0.4655742460936285,0.4101282238958184,0.4072619048543642,0.41650622037296725,0.38717571743628976,0.3806714473895314,0.4142124559138314,0.42145417781741545,0.4223840733131452,0.4130046469292059,0.4314572941339778,0.4163217365177758,0.4045769066178624,0.3710664792368419,0.3511822905365485,0.3036072707797348,0.2732471979809914,0.2899462725494393,0.3192380176405465,0.3453567143528462,0.3540866886164393,0.3697644156581623,0.3813530409700372,0.44491454427257593,0.536713229300964,0.6385209628551849,0.7320921597648076,0.832213198629858,0.9322462605337585,1.0000000000000002,0.9657557001241763,0.872800396250965,0.7798413767045627,0.6863674344116342,0.5907624412695818,0.4988295977881927,0.4155574746352648,0.37621047158255405,0.3710101776905159,0.39040417486120416,0.35313588793044404,0.33293007604424196,0.2989167207971224,0.24227831060699567,0.16263519343078348,0.06163071777637463,0.0,0.017372054682669447,0.1052784126588866,0.20405222653280464,0.27422378467861797,0.2963463964395163,0.28251965186704386,0.29688407346533796,0.30298257764737957,0.36889036737408465,0.4503868084701492,0.5395245757181011,0.6010845192228846,0.5339062813395088,0.4477382963571046,0.36044710050987905,0.29890875534096906,0.3091651955813879,0.2910200810234691,0.28834203125945224,0.26682972850793374,0.2497377555644682,0.21249138973853676,0.18940926507116118,0.19952862284595319,0.24845843138960055,0.3065759533644601,0.3261825746306404,0.3396791564140915,0.33816383985498555,0.34626748573987265,0.35641883103962235,0.3521712607208054,0.31588250804845086,0.2975231637819997,0.3116370666762285,0.33785997698149495,0.34351689370923055,0.36421043721572244,0.43305550516479063,0.5251039887339053,0.6101691802638312,0.6031051935772893,0.5135530719508188,0.4287293834201924,0.35252760213037804,0.3417905981506528,0.3594269527906271,0.34961559120724206,0.35471578656768243,0.34271846229779723,0.3043887915469268,0.2703878534551307,0.2765040498920339,0.28375189963074443,0.28209103685623815,0.2937308341927076,0.29339284886890504,0.29245887875812016,0.2756475640458602,0.25333109152990896,0.26636290390505324,0.23120895091449722,0.23320159616154812,0.27119071820714447,0.27628822830136746,0.2844934904252956,0.2845429021688475,0.34496672882272184,0.42496402031451663,0.5136181605870538,0.6032414818133491,0.6073706089039812,0.5266181938742676,0.4481586795453676,0.3563283799592336,0.29978368596137295,0.2833773377668709,0.2646310503508402,0.2620592548372873,0.2609510334562428,0.2348843303997803,0.18466786030874993,0.17046748505447762,0.21112628448138815,0.25396307459407574,0.2871950283376139,0.28625445255602,0.29180482029712995,0.29930879273187716,0.28903528761910846,0.2973876282789647,0.27788212577317517,0.24969951291164239,0.26207925020416956,0.31828914660436225,0.3240753207580662,0.33244140739975747,0.3370380057865019,0.38902150591910645,0.47001912164301296,0.5546249450579885,0.6137975155470083,0.5530453364540413,0.4643225854859969,0.3771096534516103,0.33319495059317794,0.3508961143054188,0.3346840702572147,0.3381882431491532,0.3281352263832804,0.31790530045215193,0.2925825421361885,0.2389888889562004,0.23145459619828634,0.26909511394155294,0.31859459646318933,PM
0.4660201273879414,0.4660359437907413,0.437007132102214,0.4100731726471496,0.36550119269333337,0.32246759257618063,0.2532665081731489,0.18501499353569084,0.23331375462549264,0.329555476309066,0.4128544226006605,0.46572286392153206,0.4971791380405497,0.5316475214669962,0.5876152620918331,0.6551840428992044,0.7661443124460723,0.8466287561713557,0.7295548196543464,0.5623026406804641,0.5072495685511269,0.6766329683805052,0.8559034339421485,1.0,0.9586836583837162,0.781813658555996,0.6251651111498413,0.56214109982362,0.5304369995837579,0.491252949637496,0.40691209511735327,0.28956975868169454,0.22873407331455375,0.26903714905096443,0.3675524293881711,0.485225759924262,0.5421707535530267,0.5737129642205048,0.541702718903375,0.4999869263953878,0.5112234959421773,0.4659340309608657,0.3875065732998433,0.3084692784698069,0.3816472172932084,0.49345766877207353,0.5822542410350477,0.6432912706699616,0.6513908402581832,0.6763430036218407,0.7196750223669017,0.7662538310532394,0.8566752017107699,0.9476204433902593,0.864555367065913,0.7135389924384672,0.7566972162303136,0.9145393521543994,0.9271008269348489,0.7808207037576613,0.6841893171387907,0.6618461284730275,0.6290625930494702,0.5917883509455706,0.4869227795853366,0.4640835669699266,0.537266298301633,0.609997358027556,0.6905281324031698,0.6748888909492505,0.6279078237718076,0.6214784355879654,0.5806153168756305,0.5108139226365704,0.412924360431866,0.29698606601736177,0.28005369080465226,0.3759836115872517,0.4867480140102032,0.557846021400576,0.5634156535065751,0.547563503163814,0.561371984081247,0.5610260584284585,0.6506917943350814,0.7447365559611407,0.8165967022170202,0.9101378745744944,0.8877933753459688,0.7659196854257386,0.5912903943135648,0.5019918973729922,0.49831054413842235,0.4782305846592214,0.3951957969994524,0.32832861719451145,0.27586619153019054,0.29580109717565595,0.3891045240434572,0.47323164697296694,0.4429344006050382,0.39363558919492814,0.3671601717303634,0.33411795679252876,0.30387268860948957,0.22786216466715814,0.14704754877712567,0.17908102372008905,0.2821453537641103,0.3638120882385758,0.4095034003737865,0.4189520355765417,0.4540305736888177,0.49266709279660237,0.5611467506614334,0.6905356751729768,0.7182748319891719,0.6714329430778614,0.7671688936324523,0.8257874380110231,0.7457095580013489,0.6102801380955105,0.5024924985170847,0.4583413452861196,0.44562182997675315,0.3685664839895413,0.28830131112097224,0.31193680945938596,0.32882688672876714,0.3701435630994778,0.48564575041534663,0.5934841558970181,0.46948483934881224,0.3271840890257973,0.21819368284409357,0.2843929331563988,0.4227905951927369,0.4159692551948364,0.37075422290015947,0.3188955960300106,0.2923279956626885,0.2816929556958705,0.25742356081752416,0.17655690323910722,0.07366318491861357,0.0,0.0063050824615284995,0.09430670572794853,0.16978024027938776,0.2031199980291385,0.21789790388792696,0.2631498685938185,0.3084090295461559,0.311488723741963,0.21810937791768392,0.12921448185127726,0.12307636052255777,0.17170461338999043,0.2366446671753133,0.32322202350699225,0.3771891955539237,0.364313515450827,0.39605779533134733,0.465182802694434,0.6225981156002387,0.5791378668885221,0.4485525789898466,0.41975831713483647,0.5180128073968406,0.4837475776744178,0.4249105082613118,0.42887965951685647,0.43971849822260545,0.43812392598984307,0.3879186086357391,0.27744511946127215,0.1867039345550472,0.12454674640618624,0.14915848464863224,0.252618625650066,0.3804044068274335,0.45185496375263856,0.5103436545437798,0.5240499416389897,0.544115564920288,0.5083320168032621,0.4298870501888086,0.3427450927265827,0.3181149011135451,0.35643601792542245,0.44409993441876505,0.5165643058122917,0.5267812660626205,0.5461817983434303,0.5527376545556795,0.6362704470656215,0.5176290556902972,0.3141877435424645,0.20855914415228494,0.3315403065452429,0.4969708495494647,0.6387167430694598,0.6939380706715657,0.6204715436881578,0.5796278049671972,0.5699397974595044,0.5336598754792439,0.5052100048531534,0.4326702266545004,0.335528522512476,0.2224077296464939,0.1535627245073803,0.19372316034210613,0.290297638045268,0.3666858768546284,0.3586728639216039,0.38297148905938805,0.4285619917279657,0.40134424047189743,0.3247303284436134,0.21649251404726932,0.11778079261369356,0.047074186915834204,0.0856581085095387,0.16114691730110842,0.2772207243944642,0.3811118529539099,0.4031044099719949,0.4426639700858388,0.4944165638449629,0.613257180690832,0.5853463474784615,0.3669172089344581,0.16188541238112464,0.08539553438537872,0.1949227368567037,0.33173883216796973,0.5040409707416647,0.5541399924395822,0.47780925715007605,0.42784220468494905,0.39429490717860105,0.3487354709794044,0.30587448923942606,0.2415985566045391,0.15113331394073182,0.06485497614185043,0.03662409033225611,0.10934516133957395,0.20250262670684194,0.24142886004234843,0.272383727872735,0.30479112566314104,0.3407860522685988,0.315586856745508,PM
0.434225815751879,0.43023606188543484,0.4622216491967732,0.5298883629629274,0.622703311050683,0.7126877405559786,0.8036031470759246,0.8951090686171534,0.9720831534936938,0.9753609839004107,0.8965604648600367,0.7997453595868009,0.7103855433668111,0.6113609147809624,0.5139360256730483,0.42532184917530325,0.36332736889472583,0.3523159885741225,0.37531515378477076,0.37804777780726173,0.3813765389955477,0.3850777210841616,0.34257230251787973,0.34436251086296377,0.3734278469983261,0.3821770700000253,0.3814677891960674,0.3821311713015527,0.39224564718026267,0.39791833290715184,0.40349547107263417,0.38858209433293345,0.3784308539680725,0.37338276290743844,0.351511191623358,0.3326270155587432,0.3655050764523944,0.41547767881029385,0.46175362590432334,0.49106659868750846,0.4873388033087087,0.46396094949326416,0.4495684809350746,0.4576591996149739,0.5027148132299053,0.582835875128564,0.6751368804410949,0.7649592139602324,0.854167655605667,0.9416161250872928,0.9864655382494285,0.9359716271981999,0.8420203275622526,0.7506307368725564,0.6557516689232346,0.5555387713948949,0.4612456359954846,0.38796764440829534,0.36656866099966967,0.3890694667003136,0.4069025539150659,0.40364225544737,0.39271516096124914,0.37389772122116494,0.3766189852363042,0.41152059912064676,0.434414583848985,0.44142384455606276,0.4453503905299794,0.45153512338957613,0.46286010299959646,0.4666763264935936,0.4578579402524734,0.4326918374722122,0.4072687740023184,0.3859319742693832,0.3604122458661596,0.34696677683524957,0.3814305122288766,0.43480217562654344,0.47881389104688266,0.4953251159882628,0.4808707110269914,0.45573345388009967,0.4400588845892215,0.459293299922618,0.5188814314631629,0.6087646856769773,0.7037684767426393,0.7858325266818458,0.8562764530557332,0.9421156813502942,1.0,0.9584110627208093,0.8722749958374889,0.7742702211536954,0.6768397650117262,0.5872934976418551,0.4880742591293483,0.3958145551344896,0.3570287376603267,0.36225820207512216,0.3934254222828093,0.3973256216840282,0.39604922150558997,0.3875846875873199,0.3670346456108957,0.33156144556953526,0.3583112528543455,0.3871019535415141,0.3794332300490386,0.37336819758627104,0.378636094217605,0.3864932852748222,0.3818842512495766,0.38324491284928186,0.37920789303122104,0.3584599968990658,0.3474998620091281,0.32933288442221054,0.3044503649248931,0.3158713649555658,0.30077583080964887,0.24856825867987942,0.1580615112378898,0.060041888197255755,0.001824482356274082,0.009306118567085964,0.07685272286935962,0.17560272760364848,0.25013818683001965,0.2331497185473621,0.13972684707919703,0.04478487387799568,0.0,0.010643267330916917,0.08023060511252478,0.17948105446701001,0.26027070017334974,0.30132062859102016,0.30641264215097275,0.3214026202823441,0.33583873952236853,0.3404319245106686,0.3342625146895237,0.3321254344463478,0.3277616920217499,0.3286389207662008,0.3252339399846913,0.29205281619961143,0.2777727773049965,0.3150466695920602,0.3371026804296493,0.3439274290165746,0.34431671310700507,0.33106681157645834,0.2810122170758098,0.23533037314376104,0.15815395599147042,0.12663324337652693,0.19502578384738412,0.2915996314813105,0.3809922566215085,0.4800578129185027,0.5774042245964717,0.6616192031380854,0.6663275329680935,0.5818996900295925,0.49944200273249084,0.43253824519125983,0.39446578948402955,0.3914024937182252,0.41306686509356805,0.4351114539004888,0.4428465923684568,0.4100521964820407,0.3532697326288128,0.30531297986671113,0.28776963032228364,0.3124258050612374,0.34068085142308746,0.36224007847580264,0.38428733170989204,0.41054659861456555,0.42110110515416643,0.41611525248772363,0.40648376492745975,0.4017413597818247,0.39814067261856545,0.38072354566205613,0.3472512780380481,0.3114147233636273,0.3235467343640619,0.35443906055178775,0.35729970240665576,0.35245242870900917,0.30962180454253785,0.2711212725038532,0.20147204394505192,0.15045109090258757,0.20187350526470071,0.29649682522899656,0.38519054389813734,0.4634606869759863,0.546348172576903,0.6245163236983862,0.701784083149442,0.6802665560093994,0.5947858111552429,0.5122755867626423,0.44858016837768266,0.41071800530955427,0.3971905766970525,0.4124985741647671,0.4342761969145825,0.4411929251312814,0.4097090428040131,0.35885662222482084,0.3109040405244907,0.27720181048630055,0.29105883158157786,0.3199242707245613,0.33104428187330504,0.336854993881746,0.3492826456321363,0.3526975346070813,0.34991776378466577,0.34726000671225243,0.33464385057933654,0.3419923824093023,0.34195697173046335,0.3259838141523237,0.29031570640494486,0.2801153973327173,0.32063402722250434,0.3300767802013769,0.32877953683722216,0.33224445718026363,0.2892557144771657,0.25038841664140454,0.1746726456792871,0.1228935807045195,0.1758423134521876,0.2650184108177296,0.36449518381359436,0.4561860022377684,0.5507719751833942,0.6497420647922945,0.6987091142327748,0.6263582131489431,0.5399894666373752,0.46561740983074484,0.4103808869184342,0.38809419961879765,0.3935154111633561,PM
0.307997859176222,0.30921579783762665,0.2910141712824559,0.2911238480314875,0.31907189566478866,0.37729940157857955,0.47022471821033696,0.5706857157561198,0.6712745173382322,0.7749214497130335,0.8789370050373129,0.9689765045168195,0.9744738520091079,0.8866687400328206,0.7774906072601064,0.6694631322919262,0.5646264045986502,0.4492828393753281,0.3338943603158069,0.24728353599428043,0.23124594392557585,0.25198821536697213,0.2936621915567321,0.30141492821443183,0.2889045188610089,0.27622335452319957,0.24988663364575459,0.20277214124697363,0.228256684408362,0.2736372002681611,0.2915146640766908,0.2832582377159363,0.28298472314095946,0.2824811830924907,0.2700224418907111,0.25145371353868695,0.24380379547505004,0.2282168007458405,0.22411752753632186,0.2710812840451098,0.33181082853717747,0.3535983891980661,0.3542860733320823,0.35058224812611893,0.3366262541057994,0.31797393311519473,0.3243973918280414,0.36189844979819874,0.4236768316322941,0.5191222740107984,0.626054816303208,0.7268116134180658,0.826858040299248,0.9220629636003488,0.9558808990942964,0.8755798104522179,0.774926811751024,0.6631290917219133,0.5526843204598255,0.44988696690692365,0.3367901050065014,0.2783574905871413,0.2565426573156584,0.2675556841860769,0.2918484206483325,0.29628691318942746,0.2754428281189223,0.2561367886867085,0.21240830962629786,0.21690713365667103,0.27246605826894044,0.31208795735505834,0.31399499733202596,0.3171600849190037,0.32129958502644484,0.3320130782535955,0.32889195693167794,0.3225716095393323,0.3191696677493634,0.3051687508363501,0.3025096612816114,0.3266482912595374,0.3834229339352353,0.4284105222308652,0.4493940428241041,0.44220500027666265,0.4260509958799652,0.4152204901247396,0.4239417138033339,0.4698244178010529,0.553488615905525,0.6551866323067363,0.7586630329000092,0.85862412326698,0.9546023967841175,1.0,0.9258039821719248,0.8202281534734794,0.7073261043760279,0.6058891400090265,0.4925743536315115,0.38827976285387455,0.3216903273722611,0.2980932625425945,0.29238628625101715,0.3026392236453961,0.3112519492628154,0.2949279928286863,0.2710745018998182,0.2193155971753975,0.205664278225429,0.24608888230957282,0.292044229666351,0.2847666292518096,0.27303950422454815,0.27354055805314026,0.25993618032026156,0.2449322389204096,0.23076320965931973,0.2194617988084424,0.19800145137902403,0.18621435047037016,0.2164566426083918,0.2763460550868371,0.32625121745574903,0.3704177955794612,0.3937658080241797,0.3832407845112753,0.3722237678252416,0.35532197902259366,0.3208627887612323,0.3069079788020179,0.31702984491462693,0.33064525946931056,0.3205313860329566,0.2760395832921203,0.22481543959252326,0.16735753480315863,0.1301062479044104,0.1396847345975174,0.15712434382543838,0.17737734999571853,0.18416426202139702,0.19891986765524816,0.20387720373740192,0.20383867740288997,0.21972576996949034,0.222725514759476,0.18280966669441545,0.1408935767198618,0.14048800760391478,0.1842713996963039,0.22249079991118403,0.2508397082505964,0.252984959313026,0.22131785497811718,0.16464189429952603,0.16298666531693362,0.09549363096319485,0.04447124279883541,0.10252090711288941,0.2096005232678011,0.32519632352654027,0.4408609340409124,0.5549012207948434,0.6555479805227149,0.7084689705129317,0.6206171052007527,0.5238276022027852,0.43891489483452295,0.3894154385232329,0.3585879195148891,0.3511962770185697,0.36233354595914946,0.3784391545340675,0.3823395220282295,0.3537840729231725,0.2985846424648466,0.24612664396706707,0.2315625548584741,0.25489757943286717,0.2567521804296895,0.26062227722049247,0.26683354076343413,0.27522652956833893,0.26884784416381,0.25708886766395267,0.25633948079111546,0.24005769066523053,0.19264447680552088,0.13703283322421678,0.1366140675721197,0.18765877795109587,0.21888016599985205,0.23625962094222341,0.2302757406299416,0.17611683474941575,0.1394683271979451,0.1258328859345652,0.042734048205550934,0.03490189476713157,0.12601011701234022,0.2270461771547656,0.34004274530271905,0.45319639697593317,0.5455534019997832,0.527442171857301,0.4289318755277387,0.3501095353346444,0.2997378782713125,0.26834719651678407,0.26132436382216495,0.2815752382367096,0.29388864770717005,0.2936432097438648,0.27082244459126237,0.21355629394013986,0.169129397519729,0.1725697497558185,0.19010829473737045,0.1901320072449626,0.20767682147699817,0.21951969263130122,0.23307530333528792,0.23775930913630594,0.2373444761742216,0.21785955839065396,0.1701320735441434,0.1355907601715729,0.15888684557961774,0.20817772856029837,0.229010588930751,0.24880762497645614,0.2356212227134944,0.18357472135510067,0.12861544522120472,0.07776414333951331,0.0,0.0167916699184949,0.11525664173958639,0.21864656006567618,0.3281283846647458,0.4436275941144179,0.5512055226209327,0.6505290919410163,0.6483649289155777,0.5511147526654829,0.44923966659316816,0.3559726282438911,0.2947154174663815,0.25640833823005726,0.23604156374556906,0.2307232690515657,0.2518115696274088,0.24536699139621598,PM
0.5885134364369824,0.574552850058224,0.5655311716802212,0.5435612651417849,0.544453229353314,0.5576891514247544,0.5569750981239614,0.5741943278360213,0.5724958148763575,0.5564758272575814,0.514121138003711,0.47324066901042405,0.44035856188865186,0.43804851508598963,0.4662503043970907,0.48682321566540443,0.480549479704115,0.5162247626600194,0.5474939855469709,0.5610805404102011,0.6305505047440887,0.7189063811407364,0.8002328960751806,0.8804888343268429,0.9745615995356318,0.9906632919301672,0.8955843584458023,0.7915642397917444,0.6857083907836632,0.591404306793299,0.5731599124077409,0.5639531392650623,0.5248080452620507,0.5262822963444651,0.5650142011504742,0.5733078464057892,0.5611390951418347,0.5571909963466837,0.5762297835173573,0.5609712950515351,0.5598300093241404,0.564876437382225,0.5667708494558501,0.5881846607130123,0.548087783713286,0.505245386587279,0.45228301439188767,0.42558067375984043,0.42036989018607995,0.42971404825738313,0.46343481821737376,0.5081194145887471,0.5382358058520182,0.5520669835553376,0.6029527349712782,0.6791193599914576,0.7697635523599775,0.868759080626845,0.9446032133632256,1.0,0.9465743649768625,0.8452635469489613,0.7372287861922224,0.6329484745234679,0.5759052850140223,0.5608428385736164,0.5624922415543376,0.5024987556382601,0.4582465437837966,0.5064052360769216,0.5523649394612291,0.5362278796546311,0.5341179442372752,0.5498801401505009,0.5345107562138889,0.5244588373697257,0.5330428900843653,0.541810914071271,0.5531289124013421,0.5627982312149218,0.5644369945799625,0.5492428971522658,0.5088822266911257,0.4633122683658355,0.43559133666791006,0.43857349014171154,0.4539310579100717,0.4922142497059472,0.5163238636815963,0.532002810585098,0.540300439173909,0.5766318046539536,0.6481266938416086,0.7336054045830975,0.8231284512128991,0.908411361170137,0.9792592250519632,0.9484235692889631,0.8503813604073405,0.7447934972032084,0.6451883459809831,0.5830888428739671,0.5550352915271985,0.5179976627906306,0.5211476450650419,0.5680309032389683,0.5567623726009341,0.5489492463125796,0.5622825305286137,0.5544805804194497,0.5385200350306403,0.5365856509071283,0.5604703031017673,0.5758948603776606,0.58677914970465,0.5660116509677757,0.5399159601469137,0.5270439755177061,0.4816184597945168,0.45607452321180997,0.4579178406508775,0.46999383335377987,0.4979801851863379,0.5291792170220773,0.4822757371993407,0.43479296000984835,0.40925304702049203,0.37555081046941075,0.32884836092227676,0.22105182357694897,0.10266814142779745,0.016828425886891818,0.0,0.03552851943402002,0.13922331861023762,0.25786058237670906,0.3438197130601872,0.3010316948822487,0.18563624097372955,0.0698876940053541,0.005831854689701821,0.003481856047380827,0.04589431531391508,0.15504582069847483,0.2732876606504582,0.3671420054204839,0.43324799669022696,0.4692111475113201,0.4918442298918615,0.500033582390643,0.4929613514360476,0.46657446820188,0.44775468790383677,0.4605327093039646,0.4683563976546603,0.4657194195557883,0.47460759059270696,0.4757030428640143,0.42940943764717554,0.3815581258294132,0.39532080705567685,0.46115087525324316,0.48759468879140266,0.5116403837593704,0.5871626187206216,0.6871483362339665,0.7781928600502042,0.7492237442128449,0.6642666301532869,0.5756466237755204,0.5078547974652499,0.4745128524920448,0.45382620519704986,0.42675684666142866,0.40889810667651805,0.3816766295349585,0.3506247263697162,0.3494849385971124,0.37484613411136136,0.4174792883851204,0.455163855647553,0.47864975098315377,0.47099748095019267,0.4672319869863881,0.45306507243524097,0.43754098966281063,0.45096645850255124,0.4482860660599055,0.45740687831758553,0.4660908319549524,0.41301772451994934,0.37966358733337113,0.40781647564676327,0.4652819734589313,0.4869590515954463,0.4929464582078831,0.5722648971421456,0.6713576240626584,0.7770409380999252,0.8220793176999126,0.7444979028992766,0.6510604483389173,0.5592105829402074,0.4955990654471605,0.46441383079192944,0.4631502829410832,0.419552833855644,0.38145354251670227,0.3572071616125845,0.3389744720272483,0.3458073416205254,0.37111214726476804,0.410651764599097,0.46256056766932074,0.49604317149743293,0.4955272696858719,0.4863195042237751,0.46182803265048467,0.4670869094841583,0.48055097208726316,0.4752835938327751,0.4777363577871645,0.47748648579887654,0.41967873747116835,0.40456207049988624,0.4485789832250706,0.4894829632351114,0.48263317388958216,0.5252729004562218,0.6301317869453196,0.73261689047408,0.7466293770360894,0.6822519029613043,0.6011611260758518,0.5270344160669258,0.46903753546636606,0.4429047574360121,0.42986534125319453,0.3857359118897774,0.3834281410473346,0.37330738012514475,0.35404188228134315,0.36262962842717084,0.3960297550998253,0.44387921503901895,0.4842087116552949,0.4896707811771326,0.48163084267017586,0.4728527322078402,0.4667124885359737,0.46495252413045973,0.46382796852840125,0.4859253518763329,0.4879989738538697,0.512700964655556,PM
0.7149990492282159,0.6684681065232505,0.6381219743357862,0.7019638433748261,0.7544614530308058,0.7703608510613407,0.7400482497195577,0.7119251595696987,0.7208339123683674,0.7255655602376807,0.6765952636203378,0.6644896543404384,0.7069028690927484,0.7818686595314563,0.8083029825101358,0.8348218996217982,0.8412583899852679,0.8156187242049651,0.7335466229852319,0.6133446673153422,0.541804270630343,0.6679332597393222,0.8087539036345595,0.9262211641879592,1.0,0.9172206653377906,0.8355976282356616,0.7780534502554657,0.722932169925774,0.6295452679069875,0.6404396823583536,0.7125178620539554,0.7605479419068697,0.7832793457762586,0.7722781266010674,0.7420011698892042,0.7474967057922406,0.7541904485263986,0.7156458587942272,0.6813695700141684,0.6850995660519885,0.7348653414042303,0.8034035681662859,0.8385685976030919,0.8544393001579262,0.8691557835740387,0.8683394322291891,0.828040789916515,0.7438752157567228,0.6345631655637067,0.5072136845083968,0.4660853663889819,0.6123064815509656,0.7615799462523523,0.9009423480039098,0.9536411432832086,0.89770813653434,0.81761809208259,0.7544943817574978,0.6892263867610149,0.6931167376449654,0.7344173017609981,0.7731073194748737,0.7722490008102127,0.735511551764783,0.7026616013457003,0.699918226265682,0.6888932301308666,0.6528482814382297,0.6461469495614613,0.6804381098642809,0.7329506510016177,0.7882112104961942,0.8251145210160802,0.8386743625277218,0.8413903196919836,0.8174997731964302,0.7086623950185249,0.5949511974692738,0.4579573404186732,0.45258261658772003,0.5945760306131556,0.7551754920555824,0.8841591665287067,0.9468140716862505,0.8878547765397888,0.8086814102938691,0.7366474372539562,0.6663833916037225,0.6301982056352298,0.6818306121714341,0.7404907121925639,0.7674563181170706,0.7471494709383268,0.732744027543923,0.7485747287129749,0.738948418864763,0.7029982241392663,0.6572417806521607,0.6692750506805165,0.7217235491540546,0.780815820904559,0.8360879372701877,0.8609563299392082,0.8426755523191662,0.8154483882432135,0.7564415722072306,0.6474619387796965,0.5296442814297837,0.3944757026554955,0.41581130870851357,0.5689493986984404,0.7251429970411358,0.8867045146532817,0.9773908873962522,0.955085995962988,0.8706560727665913,0.8118089095364303,0.7660352731870246,0.6899967611144708,0.5977244302645737,0.5404249111635844,0.6069691059955407,0.648140458593339,0.7272842820643044,0.7922208898412428,0.7997743721833617,0.6639532608892464,0.5145758133744627,0.43430610017291027,0.2849651545633729,0.11640285272731221,0.00663466250839706,0.0,0.08533794242035553,0.250713335055063,0.3827096616957464,0.2957981708582875,0.15671894718981694,0.13802101902230657,0.2543076962146409,0.396201811391963,0.5361708749261567,0.6301237812152038,0.6623828594296173,0.6950546804246152,0.7040977333585801,0.6805985596585327,0.6252578934342115,0.5482356917524296,0.5230976901755469,0.510115499057946,0.5413831351963134,0.5784367174439389,0.5796304944181276,0.5579155444087593,0.593633545208637,0.6077047390918997,0.555369151656322,0.46828563835700354,0.4340132679666864,0.504675542476333,0.5740608625271229,0.6384020436731266,0.7049690642993722,0.77983575685169,0.706227438718166,0.5432088600642535,0.3854902400737297,0.23150608142041085,0.1402581206691198,0.2020115756066172,0.33705408797599024,0.48273222523487114,0.6050884056024382,0.660735233971657,0.6790291661919072,0.6182377754931716,0.6229984268579143,0.6075280005176538,0.5480996258456274,0.498606332647471,0.47337121597280607,0.5050565677347478,0.5384096319778067,0.534212824197315,0.5616868099962895,0.6022017010641312,0.6064336362977825,0.576469272785924,0.515130937916072,0.4927666849117456,0.5672600170914395,0.6306596509195987,0.7039629897293365,0.7724508429799624,0.8106457460240479,0.6851665928218882,0.534145456449175,0.3731255434727858,0.22788740470260738,0.12879837056767807,0.18626320561650278,0.33250050684665844,0.4794843013626586,0.5970443878688387,0.6882038402856043,0.7144480078483069,0.7016586614840508,0.6722923497544535,0.6271371699639161,0.5773494810460171,0.5228962460363693,0.5285901629611605,0.572609527532264,0.5877059603498456,0.5989498971754355,0.5973221720222828,0.5975949162482648,0.6013589171263032,0.5580476683124971,0.49055147686649914,0.5066403465684637,0.5886206300693777,0.6436771963527406,0.7025660970497105,0.7638783469093093,0.7064978557106647,0.5536823359212129,0.38853913999655987,0.24288787533510448,0.17331588004035092,0.2642961090953806,0.4026804672476816,0.5304888125862952,0.634809117035342,0.6631700747975016,0.6435277906168579,0.6591842447983778,0.6555197999918487,0.5983256280829599,0.5429951413940115,0.4856785682637055,0.4973113589670408,0.5505334580161012,0.5686837736833059,0.5650037973835795,0.5671061429046294,0.5614432170014707,0.6145330064617927,0.6152789736443651,0.5632547020924621,0.5039133952507324,0.5109154287078095,0.5735250666159439,PM
0.24985549214477443,0.2634979239978219,0.24209756434200846,0.22577716062675268,0.20339768439239325,0.20162017858733616,0.22914100543178462,0.2903935577441259,0.352850003517029,0.3975462591038843,0.3741032207365298,0.3134455045711837,0.24985629563598843,0.19374539494208998,0.16452811286383628,0.14803219454324745,0.1428803936925256,0.13980262624595952,0.1214881882287071,0.10481083803017155,0.1592114587530662,0.24520700376441384,0.3418600163750525,0.43557041073322633,0.5370312042391725,0.6295377729365517,0.7300562892198466,0.833219120058228,0.9352688115134162,1.0,0.9564066562648441,0.8651304637986406,0.769302056113712,0.6748570161076191,0.5834707557809202,0.4932675177744583,0.40277143414160266,0.3101095334752122,0.25928659141205257,0.248761471881076,0.24696173523296805,0.24129992392561617,0.2298116774974175,0.20114166811915712,0.22557609475698648,0.2371981484435457,0.23071079394264604,0.2394582641858194,0.2547361174531053,0.2838095850054705,0.3379678468718832,0.3900593603807998,0.40701396960411573,0.3604889619077434,0.29671961776916156,0.2293191736380149,0.1742700288088832,0.15393340569941483,0.13399092770769183,0.1403440902752835,0.13433633998100714,0.12237099309251276,0.1132982482636673,0.17428660943645902,0.26528553396759813,0.3634855183353283,0.45678173464249383,0.5557742280732976,0.6517754461739411,0.7478721799577208,0.8507946149597343,0.9404164924896516,0.9367449583005905,0.8503132541398024,0.7583045648449405,0.665005516697585,0.5763096463150057,0.4862109543915727,0.40560164667705445,0.330286048986574,0.2707824851984171,0.25738835355701717,0.25232856515728663,0.2616558727351701,0.24517267308864543,0.2291909880795533,0.25312992570259407,0.26263342146066915,0.25893808176049893,0.2419749061984695,0.2323456896135525,0.2572730349570058,0.315278508280437,0.3768290297092385,0.42677787931446876,0.4232700885712646,0.3680710898468851,0.3023264533233099,0.2417573617989226,0.19141907687491733,0.1712412315511278,0.16483480948135387,0.16104597319657588,0.15730554303380062,0.12504334998017974,0.08038086237152564,0.08736894546182494,0.16644408194977656,0.2641309465692747,0.35649073455443014,0.4572992647046137,0.560028771058513,0.6539315608637248,0.7523177420073219,0.853078709872173,0.9096392734229397,0.8533089041008051,0.7669611857032765,0.676588941863733,0.5829447374226135,0.4909978894193654,0.39876805666362714,0.310525830285584,0.2624384108233948,0.2641657628182852,0.2443904560292478,0.24464533033514924,0.23834962894110623,0.226237855031318,0.2491671037667862,0.24352783144171575,0.24575432734291391,0.22644089621586083,0.21296483002316258,0.23553055643246745,0.27937111734859865,0.2855987031274849,0.23667110305897143,0.18644707091135748,0.1577829578984984,0.1662976975118422,0.1822856169342395,0.19023612154423297,0.19738479506571593,0.17095049885812585,0.17699957043596148,0.19142144955907003,0.19495520235841157,0.2110072827003635,0.20993272770083227,0.226506850776111,0.30409430564995876,0.3942961278068151,0.4844146871212205,0.5451865818801735,0.48441481592386726,0.38204921211431575,0.2788761216706579,0.1764012636707588,0.08477690168086127,0.012599349428586759,0.0,0.046966513680078315,0.09100830746126531,0.10778373650611384,0.1169903556004952,0.12596765384091402,0.13307526214155097,0.17360676126038266,0.22634146860726023,0.28682770129520074,0.35071531845731174,0.35464695551961656,0.29704356296122425,0.24154507167254868,0.19534952145917872,0.1815533141288066,0.19246853993959023,0.2107073896669669,0.21556624754688025,0.2064583594373839,0.17291392295558206,0.19083167738154083,0.20914845598644716,0.2097039916737744,0.2099328299078489,0.22754018895727945,0.30231597146721256,0.3931213290995199,0.48428880051382484,0.5703801874289902,0.5708856253363921,0.476162010922212,0.3817626960773044,0.31340505411833375,0.23653041104473482,0.14060550142053074,0.07171743881178161,0.03498828677227195,0.0611431476705131,0.08108006044859462,0.09153869772157464,0.08307886949970023,0.0958060410984154,0.11515547436098972,0.152385798610565,0.20975723576112637,0.2772432339532007,0.33484619115838754,0.3210216839808182,0.2703806259867787,0.22843543370042152,0.20900351659889083,0.1868695910003133,0.18275865932344004,0.19147531014390307,0.16513095597818772,0.1484899064010845,0.1738911640782197,0.19478791323099465,0.20480375338609047,0.2064008419321084,0.21231145453122835,0.27454985246370844,0.36595459554253384,0.45929671280223117,0.5500524922058405,0.6314915208075651,0.6106984828854101,0.5156694686781989,0.42155709017779586,0.3225406367977097,0.2294939520895909,0.1343936924039797,0.06264901628441999,0.04585178367127796,0.08030351941633729,0.09324578839897635,0.09731450888433679,0.10771017819343198,0.11873515763784415,0.14847122785867306,0.19981555168543164,0.259775167723324,0.32020789917943304,0.32383065821358814,0.2637441230513211,0.20521652653804878,0.16224419910016996,0.14492933573313715,0.15807399036612502,0.18005411813775618,0.20126279770323663,0.21202565531840367,0.19171830348311492,PM
0.9266384868835251,0.922510205519099,0.8841814845302989,0.7943188080095855,0.6841018529829408,0.5915729833530872,0.6497140518528086,0.7734803542993669,0.9046382917094515,0.9726192905489199,0.9738246031427629,0.9450498737794772,0.9249132522543406,0.8763432627931569,0.8389469520385977,0.8886767989039224,0.9251561358089266,0.9112076327317111,0.9015864435108938,0.9011609341218678,0.9038286371509927,0.8887675828455057,0.8684805589272413,0.8487951822088573,0.8505164229400353,0.8721702202305197,0.8778664094960758,0.8793955054752707,0.8751074724464418,0.8270523236169591,0.7625257098091089,0.691990221299382,0.666849793544634,0.7149719562506496,0.7739128052108946,0.8289733964227688,0.8707508210980333,0.9052123698997367,0.924847162196051,0.911365001644886,0.8424014396789508,0.7527147345116321,0.6378757497118919,0.5877304237773413,0.7064389198021734,0.8178457701079962,0.9192458861114345,0.9940480168016097,1.0,0.9788223890976862,0.9337297723801306,0.8824346654155217,0.8646657282371288,0.9272383282038463,0.9395737565791342,0.9326100307709546,0.9323718914262731,0.9217812875025064,0.9053234601826432,0.8968716821312048,0.8957866764009648,0.9137364939861103,0.9248788434524942,0.9265720461948086,0.9181675709066326,0.8785829197859258,0.813963017251945,0.7451568257307195,0.6871989695405358,0.6878234185702841,0.7466875264567063,0.8086966559434927,0.8580685972519606,0.8947702192995135,0.9304207855546931,0.9465586960911021,0.9444042000243136,0.8841876037728191,0.7842081717905498,0.6827945824019004,0.5821525398804628,0.5855290994954827,0.7148485200111718,0.8419740297380218,0.9311977122543844,0.9752140919750549,0.9626654518667097,0.9067303393477046,0.8593577792400713,0.8318445244989423,0.87909489118399,0.9208155952230919,0.9247469555117034,0.9115791158748552,0.9048389817247044,0.8852031230103594,0.8666144892935357,0.8544775483383056,0.8483517379713628,0.865912168763165,0.88519532668677,0.894903470523599,0.8723356882679774,0.8279711495589455,0.7540759111150224,0.6938373626082828,0.6844343423507482,0.7239748963594135,0.7747940551009922,0.8239056095115727,0.8607062695582735,0.8969044064100484,0.9269607783316904,0.9041010911183687,0.836569002136037,0.7339222298201085,0.6280206074319934,0.5389285380764504,0.4914145216346011,0.3665720720136254,0.24610519781002527,0.2133902978916855,0.2534349854375222,0.3748609242173191,0.5152166202366555,0.6197978466192455,0.6589273031252931,0.7447438463538174,0.8257451625716246,0.8356250397209561,0.8074047823223247,0.7698890979834694,0.7306583272558096,0.6805341104719802,0.6358824679937629,0.6098986499752392,0.6269579930916569,0.6911207015701999,0.7440932661320265,0.7965441222623015,0.8093804934225806,0.795475655309418,0.7757101879557551,0.7691389752268152,0.7863711222804355,0.8027485632168294,0.8225325030687407,0.83254226582816,0.8325286758377919,0.8169760588691082,0.7566672475062908,0.7348283274573366,0.7832115570888623,0.8213199737538397,0.8813814970396394,0.8782340339310251,0.8039473323708446,0.6762851176198477,0.5393784257225449,0.41499425736032425,0.2755592462512717,0.13522182417838913,0.01742748709497688,0.0,0.10494019049129033,0.2395932758464654,0.363267649939663,0.48709855124749923,0.597698794759217,0.7053741181706168,0.8164679726473429,0.8736536933792971,0.8653479283756691,0.8309583691491547,0.7921954470760486,0.7276992804740514,0.6652980740481396,0.6114626628855198,0.601778474502161,0.6344888729138578,0.7008766136547413,0.7699086526976973,0.8313537691416566,0.849476433032748,0.8277765877362242,0.8014664571031833,0.8000954949118011,0.8152826711169112,0.8290482759762732,0.8565665932830151,0.8566953128945429,0.8632367137890582,0.8555745537392898,0.829802706731253,0.7752523980128854,0.7926601283650361,0.8328754631093265,0.8897293996561753,0.911782650127611,0.8561675860413946,0.7633258851821245,0.637950731662841,0.49745069876526316,0.35839732943034575,0.23514613809407647,0.14372144759619898,0.2019826445719377,0.3392540052551407,0.46630461315062677,0.5701862507139426,0.6803345828097238,0.7792416393540647,0.8448700823401154,0.838414981458635,0.8164259102432188,0.7669385462921166,0.7109260267134232,0.6490667518891482,0.6053949252534503,0.590839763157704,0.6359052929026654,0.7031075055326768,0.7649176688329211,0.8068615330376261,0.803916810401728,0.7798151626616447,0.7866347853865565,0.787330360582426,0.7934589093100906,0.8090637752821404,0.8102127286470786,0.8214646130365004,0.8359046087853343,0.8470581495602012,0.8057791702047679,0.7679061562182228,0.7857558114868448,0.8036806198528752,0.860682922577158,0.8905363209751882,0.844755237111857,0.7338047454800738,0.5961690890936318,0.4722451314591414,0.33349956183286045,0.1938854340176306,0.10292023503517189,0.1574281856957902,0.2769613946406282,0.4010708359677828,0.5174734556552529,0.6272888805063701,0.7391098330140871,0.8278200633894595,0.83593269355854,PM
0.4326511225529659,0.46425885469920436,0.48892645299550797,0.49682150955560056,0.4844945405699175,0.4350272819912284,0.3950604793620349,0.41056759312655,0.4171235118648946,0.4303498189501167,0.44511873649146816,0.469172392001735,0.4890757217455808,0.45941656812330844,0.46343796182617325,0.5217785728276598,0.609563282237533,0.7054742312447373,0.7958541475164811,0.8837432678105199,0.9374860159508827,0.9054571811269616,0.8309534970018455,0.7297923002209217,0.6304952965659885,0.5582627974410581,0.5100329451074739,0.483206726385057,0.46329843563826145,0.49860444888018396,0.5346587812313004,0.5355386162646654,0.4959345435807383,0.4623112686401929,0.4879505711285579,0.5415641493146999,0.5546712910960898,0.5216475594834264,0.4857164539440131,0.43781852461140236,0.44974850886929163,0.5104256148239381,0.5410660827029665,0.5212670243707267,0.49322418584244154,0.46544274133786523,0.46437557894824,0.48171170998177937,0.4904166328627637,0.47152526431493724,0.4373884075960084,0.38176530472790837,0.3520248184802637,0.383641952405283,0.41281485686376085,0.44252777380842323,0.4595106013167287,0.4490475062247712,0.43948771071697657,0.4984570278238234,0.5973051755403351,0.68763261034209,0.7870875789801146,0.8777693093388397,0.9651451178769275,1.0,0.9406219219418088,0.840608922837494,0.7376910746126737,0.6390318867251468,0.5484923947855198,0.47075509370466806,0.4614677562275755,0.4577767380198803,0.45722382868078926,0.4395287511520136,0.45212769858205615,0.4711797114330394,0.456098220723844,0.46534546293651147,0.4752980164584697,0.4623962913283344,0.44121006631795723,0.4144550936901883,0.4053998999062336,0.40930100191283714,0.43863930519153405,0.4720839467896458,0.4488346935826817,0.4430556649381381,0.4868268091218275,0.5078721410725708,0.5143310535944612,0.5772527365203399,0.6660148918381217,0.757682246693201,0.8450314268151216,0.8647465435618238,0.7819625341711518,0.6865093214215174,0.5935430116213878,0.5066950301170707,0.4800634056296671,0.5229703996336816,0.541684268477395,0.5100871499587765,0.48053196555529,0.48151252019135615,0.520011885491265,0.5322125165998703,0.5392396874241636,0.5047638405735615,0.46161733083396506,0.48054630399211806,0.5221015356542953,0.5353690277514485,0.5454784396623138,0.5261525244110787,0.5076020289672325,0.5345850575016011,0.5199476295913064,0.46275364145224085,0.41914668668664534,0.39292916774135156,0.42837299435546994,0.4739465900134605,0.4951240568058686,0.49504741859542145,0.47152117392151105,0.4365572081008877,0.3988546916574278,0.41909589878502995,0.4358624124603674,0.418776498353556,0.37469062749368165,0.32352930725286955,0.3032402453884302,0.2339738572201031,0.13198203229551897,0.038067182150281376,0.0,0.008080715378733672,0.06368848624811152,0.1640663092241783,0.26255370906262243,0.31067934336180025,0.3483755191323272,0.38401733886933975,0.4389746196214279,0.45865396397383273,0.44430205643852405,0.46863966709429805,0.4885532745190102,0.48404658056240013,0.4545102589782468,0.400039125209136,0.39597522209147495,0.4409859492829775,0.4649494919155277,0.46750667652817457,0.44788741540573795,0.42440906030360726,0.4272002055818178,0.46130876148216204,0.4763545748538278,0.42907806018212025,0.3870023205312778,0.40034075653156576,0.4878490770635433,0.5685385698156016,0.5502821456208018,0.46766571212492325,0.4413781117204114,0.4468984469755144,0.41493220688608723,0.377614031057417,0.36489740390052505,0.3942416406305389,0.37553549729703795,0.3566721047035841,0.3479945517090304,0.363727549585541,0.3928933764597602,0.41184792625266464,0.4221145894967191,0.40778295161409694,0.3999371328848347,0.4092552704472654,0.3917098983597067,0.40232952961195156,0.4075054460781451,0.4138834553511819,0.3967822236707179,0.4353481323015007,0.5205522792642454,0.59140370720664,0.5521345201457182,0.46105538965389714,0.39391160426599514,0.3647971127470737,0.3885772357956352,0.40957883038118403,0.38944695866398016,0.3615824266358638,0.3339189963953859,0.29560304939848914,0.29531375199533727,0.33985011579865443,0.3842092328338764,0.4217619994786035,0.42775956083121525,0.41340261288049396,0.38546874746061777,0.4042926725711933,0.4448245840350751,0.46674916316531956,0.4732824195847325,0.4172298781068351,0.3693178254250933,0.37711880854296975,0.3956120429254639,0.4430776140798507,0.47974541455447417,0.48164135548757336,0.42566201232449874,0.3999942080762766,0.40425023224681755,0.4545268797400377,0.47738677088079173,0.4491810637225928,0.4138700450531978,0.41219303539225427,0.43590038583278456,0.4830852238117851,0.5436926416506007,0.6171436473423557,0.6093425435454622,0.5136848340960465,0.43820616288517744,0.39977543115971814,0.39283256616017237,0.4205833120377398,0.4166001775810182,0.3960683683418744,0.3807541400723289,0.366945073216991,0.3615579347645861,0.34939895380549046,0.330565345371423,0.3746812251744447,0.4241747490651857,0.43859288213122216,0.42203610612959475,0.38691840755881124,0.3816891282727428,PM
0.6136403554729775,0.7242841482252427,0.8135849465069374,0.884701976187861,0.8712366037567429,0.8419994110176301,0.8257755732493601,0.7868528319099601,0.819658448642981,0.8714075681179567,0.8779156519803912,0.8953947996633014,0.8844290020492975,0.8981079252885715,0.8884339465711895,0.8826380305933315,0.878414788645987,0.8749666334428889,0.8734021122576197,0.8498367192020577,0.8235934909374061,0.7984661105955189,0.7613769419731433,0.7139671718640308,0.7353790828856299,0.8004194229880275,0.8657569350173286,0.8990005832803485,0.9001543074569485,0.9001547501778271,0.9001498462043296,0.8966524749100424,0.8508542107262134,0.7659232857085163,0.6604825609017952,0.5589765494603443,0.47571350899705545,0.5346772484187272,0.6540901580688301,0.7644730526173191,0.8538513541320141,0.8501583772286772,0.8120835887198901,0.7799871420915956,0.7252048242929137,0.7408846738856738,0.7991772374401274,0.8325079975429643,0.8490923059695179,0.8497612537288033,0.8497613583662593,0.8497613583662593,0.8499751324983258,0.8623320458982704,0.8746338661566719,0.8660980409155075,0.8498546117673795,0.8338123108045359,0.8053413951477459,0.7520488569764154,0.7142268512334917,0.7802833165001806,0.8523858733888119,0.9254990298896475,0.9675192207432683,0.9883511998723158,1.0,0.9841075345719572,0.9756130694454619,0.9581728859078167,0.881187223168526,0.7790489116599177,0.676757748977102,0.565935035472215,0.55701290761289,0.6731958618157394,0.7860117764487438,0.8959385122364791,0.9383363241770786,0.9057459027200911,0.8553201718715187,0.8142656953129217,0.783877793521782,0.8363893007462018,0.8776251782975972,0.8927320664610532,0.8873294817156419,0.8642212937449756,0.8675330616204686,0.8818667536472065,0.8793120311579177,0.8904844493652275,0.8999959229378636,0.8911993926766977,0.856712815601326,0.8351648077203455,0.7874145443007468,0.7435880096143723,0.6956912874321208,0.7485807303765393,0.83121890084238,0.8954395261010353,0.9552357934892086,0.9936647104210783,0.9780459605576066,0.9573735821801943,0.9246545088733678,0.9001485371942382,0.8701298498757835,0.7826103038361722,0.6652469864695751,0.5836201980643088,0.4841613682971917,0.43627147768820773,0.5534755411431327,0.6744089567829592,0.7664232605122328,0.8658544997073552,0.8607185035710652,0.7971039059843728,0.6901697953494965,0.5839772366099005,0.4582713634815341,0.3116461984501271,0.17770609961614703,0.11194228524750915,0.04808110553192968,0.09395209628247825,0.1254563173463521,0.16633658638467752,0.29070520498753893,0.4374295325394426,0.5652305856986954,0.65467261938407,0.7611654910875982,0.8150222562261025,0.8440108149238634,0.8748458163214963,0.8904370550212102,0.8981834327407299,0.8597293972880298,0.7935415157309729,0.716200873746371,0.6393581515248394,0.6010007789548917,0.6337238481578868,0.6987176394912726,0.7440554817134863,0.785727415169851,0.8042187845525781,0.8143626053506443,0.8119379040460171,0.797947314193701,0.7983945491947848,0.7894074109135358,0.7896355718411394,0.803584071316858,0.808067223135648,0.7562353501156718,0.7160311091150025,0.7237674081124501,0.7628103036159555,0.8154385825138979,0.8422518169129614,0.7423599446214402,0.6446518594321047,0.5292313266548159,0.39327669349166205,0.2518104230836422,0.13343046847783224,0.1221126447003984,0.24144391667979548,0.36497583201547235,0.48061686497848877,0.5997898070176224,0.7028959296697055,0.8119998638592367,0.9014508041847762,0.9152449179204751,0.9218959694370792,0.9227296199240884,0.9101269404266592,0.8743638380546654,0.8071689259292594,0.7296357798089019,0.6541440806349543,0.6258685637819923,0.6684647714803047,0.7269848171719593,0.7623723825529938,0.7835589574349315,0.7966015194794354,0.8106195517306576,0.7922851619762907,0.7868885194746085,0.7730712664684898,0.7877858307791783,0.783257456565126,0.7652935015266937,0.7587856766937744,0.7258789605350433,0.6701742999271882,0.6418110931289416,0.6755140094000662,0.7203209992469253,0.7552502347936407,0.6991615417282828,0.5964910956755425,0.4867193390069633,0.34093614716989507,0.19397014020638892,0.05751792400636635,0.0,0.09266693293892203,0.22050162343888813,0.3563877574092591,0.46030271561143765,0.5717464829842713,0.6744223097870021,0.7802294699671997,0.8219875217008656,0.8383370877417935,0.8226335038268706,0.8246740054815351,0.8339147406014531,0.7888038683370047,0.7161665238362547,0.6463915148946704,0.6183878999222063,0.6505993721348151,0.6966836836221422,0.7188078345824289,0.7546695337944476,0.7778385744276219,0.8104249542575737,0.8060740016650154,0.803362095304557,0.8030602423029807,0.7979204728203273,0.8138404971066207,0.814485912454499,0.8144707866531613,0.8082128433225693,0.7558277077420774,0.7012941594972277,0.6990994630143739,0.7496479473485751,0.7780046955673061,0.7989851913798107,0.7119398650849469,0.6032811672621579,0.4712009929579528,0.3419254494242101,0.19743226264495384,0.08730079416607417,PM
0.5898121163583765,0.6017366232972092,0.5983350513799364,0.5902996691014755,0.5725001783836428,0.5188149636862218,0.4456648091546831,0.36457560399558275,0.2944679107343573,0.31913249952959655,0.38594973142450995,0.4561906329240202,0.5132138880032788,0.5548574808749325,0.574681181317005,0.6056836067755964,0.6531835498395724,0.7410551823200398,0.8418817530263158,0.9201884980115032,0.9342344836542535,0.8632407392648913,0.7589866150054156,0.6528593935616382,0.6350272971076332,0.6776768835900895,0.6730753972146699,0.6506695219839167,0.6209001040285207,0.5846152495955743,0.5528589213437813,0.562323555530222,0.5584712975251978,0.5458693546845588,0.5648911689781482,0.5733456928578806,0.5663236134990535,0.5379506804732639,0.4995521689195632,0.44959208055312594,0.3660048116677106,0.2907534570628365,0.21975294375264287,0.23800709864503444,0.3023700275839385,0.36240790040338666,0.41488650140184546,0.46890583381108764,0.5085501695104728,0.5300804619346589,0.5790159742829482,0.6503380262019669,0.7466137197170077,0.8421727562311694,0.8420222574027227,0.7552439416055692,0.6704823285095811,0.5898376335701214,0.5778819156383399,0.626805867194375,0.6316100941160809,0.6184130922244941,0.5848978215743279,0.5556847748290465,0.5666470879568895,0.5946813499911343,0.5834054604492778,0.5706379353144593,0.6004164530874072,0.6397300242649662,0.6873898319447691,0.7093744658720795,0.7071694910659172,0.6748357221496599,0.6164911632179009,0.543219437884833,0.46179356157499374,0.3741897225462316,0.32783218499496947,0.3706185857650035,0.4318858473436311,0.49117929864389387,0.5425809841205282,0.5661527347437829,0.5887115614679463,0.6286669861031902,0.7108799585356009,0.8202384889521332,0.9269586237775571,1.0,0.969705255957098,0.8656661672441426,0.7606852844288778,0.6745229657200644,0.6275544468820584,0.6758268779963039,0.6892643379415113,0.6642172791420271,0.6328276687218368,0.6066743337732823,0.5915397471471091,0.6106410563145435,0.6011577592150465,0.5939840856521785,0.5937052366370419,0.6163486215104692,0.6359319322851738,0.6424487992952437,0.6369266688448842,0.6098751155910596,0.5526002580727445,0.4927908902030267,0.41447741992985465,0.32666387637296435,0.27070181940705274,0.31006424258774556,0.3725891120612337,0.4472467890457925,0.4993472421371532,0.5231023086952762,0.5478631699048555,0.5532977746980969,0.571177861494732,0.5274336758442382,0.4855701901267828,0.4813983390406946,0.4547342484991219,0.44531125593557475,0.40094940008450886,0.3603907274001359,0.28774509401929826,0.16460646444728289,0.04878750168454804,0.0,0.010347214629990553,0.08271749154705521,0.20577499447845193,0.316724821589891,0.30324020303555654,0.24750681714360878,0.20692483571771403,0.23378182947910542,0.31134949982253257,0.39728903376577085,0.4716265423541306,0.533214145493587,0.5607322865971116,0.5729484501344113,0.5568144019807306,0.536574305502389,0.5238864633335987,0.5392905458189197,0.5417556166651898,0.5144721359012241,0.4872030159249512,0.5316976031926637,0.5725563150782369,0.6052131207725209,0.62311319243799,0.5618246104510116,0.5011501084056076,0.4401008271871185,0.47655930752902664,0.5876254415171926,0.6948932772814209,0.7333906860915818,0.6535487303725169,0.5736833132435608,0.5327707189598883,0.5083100433838896,0.49933275294423307,0.45339135630408345,0.39285548516359725,0.33253139008440735,0.28218167935204885,0.25136555910411484,0.296526413691216,0.3770022519389604,0.4656859192556504,0.5497338089488633,0.6110559215387386,0.6437157123154078,0.6381670838206328,0.5984207469580638,0.5609106215772317,0.5255735624376459,0.5052423215399306,0.5157187575860829,0.5099957927435068,0.4763022021628931,0.47254902855221825,0.5137772667560396,0.5456894268788024,0.5579422922871657,0.5203711116843341,0.44855967235739547,0.3795366211054967,0.3175933104953943,0.3800464411471336,0.4948555665438339,0.6107037686688974,0.6825172999200269,0.6167476570224295,0.5397229646555641,0.4799697351513026,0.456288104933118,0.4282351657003032,0.3768130247550814,0.32271014228646244,0.256016715668657,0.19442387345154177,0.14059080992671635,0.15061008985491053,0.22013068838417027,0.3009788601592316,0.38265993072926285,0.4392212973509757,0.47639776908294706,0.5075936910199279,0.50833911694636,0.48541430529438,0.49354638667486306,0.4960636884879337,0.49060230956129924,0.48899494426723367,0.5370951061917193,0.5691834773014852,0.6034282582107684,0.6202337663511264,0.5542470551937884,0.4894060622576335,0.42021431594600633,0.4505218246611937,0.5606546244817538,0.6809216675954137,0.7697397920181639,0.7284286318410444,0.6422062233897945,0.5765677308230486,0.5304480683530821,0.5130313322777109,0.4858368071180581,0.43633275413021266,0.36589114782842724,0.2982900561241322,0.23928462925598337,0.2164641085072283,0.26701617653027876,0.3473683649514294,0.4276168546513439,0.49853444413854797,0.5340491564884933,0.5473244979974501,0.5394165103322099,0.5308583830759614,PM
0.5952406989088179,0.579455479242418,0.5756041912177663,0.5706155247878297,0.5721930734372074,0.577055638529365,0.5741098313834692,0.5668919330986868,0.5570572632997615,0.521213662935847,0.47058216201131087,0.4225033753826395,0.38176582344915877,0.40545222655101787,0.4607519712916912,0.5174266388962474,0.5749340598802921,0.6113088120891796,0.6366940557822409,0.6514344131341621,0.6535823501485547,0.6644283033200704,0.7133441379727352,0.8005731280542481,0.9023392305202638,0.961638216568578,0.9177236590372582,0.8628061847508164,0.9400732647066743,0.9936611395361643,0.9267866757993222,0.823565800064451,0.7076564717155014,0.619165660725074,0.5979031855469739,0.5872480492552636,0.5616008036949767,0.5134500275775009,0.5173329787007894,0.5577551340905078,0.595056979970586,0.5978975831417865,0.5951579617719269,0.579373187220694,0.5769408281417796,0.5672310650173933,0.5567257178128187,0.566636075165071,0.5618256468536988,0.5506255631645733,0.5169445421090169,0.47731698210994766,0.42105523380123655,0.3815742203871215,0.4110493614526507,0.46558128893054285,0.5236244559370369,0.5725185608498653,0.6122660406074552,0.6375941686659843,0.6476761370771991,0.6417519856614944,0.6648594345036085,0.7277952842372062,0.8148796865276382,0.9087257288284021,0.96357796188747,0.9116159186219281,0.8234600301945241,0.8913565379621051,0.9835763106539139,0.9865970665792547,0.8979786872017552,0.7842362897965014,0.6745925499926311,0.6047767968892175,0.5927859313842125,0.5662143143364968,0.5308872352093927,0.5063091497075112,0.5326192460836352,0.5763734445509083,0.595771056541996,0.5806621784113406,0.5771131622724108,0.5758130799820722,0.5606586817514918,0.5563162626489451,0.5563017910410122,0.556270948037259,0.5503798723618734,0.5260615838358684,0.4876324099474454,0.4368620102909282,0.3909085051649752,0.3888527239186925,0.440569375622307,0.4926231431394519,0.5480044943318054,0.5972094083238004,0.624633220608235,0.6389602144480282,0.6398926598243935,0.6567213721477017,0.716698077874788,0.8019651169019917,0.8958503678515983,0.9420595984697511,0.8787980048632451,0.8512203110404348,0.9496654139855973,1.0,0.9226885886197636,0.8169043651813692,0.6981706403075387,0.61169130110087,0.5891896744038272,0.5690546345127228,0.5500069124614875,0.5153666706889215,0.5186242365471876,0.5554057142340985,0.5860438735562963,0.5488094864411504,0.5032469241399209,0.46628375355773466,0.43544625037991835,0.3935587693434335,0.3470864219359311,0.23456455063151926,0.11280011870418294,0.02125075132787213,0.0,0.029759831286030547,0.12960572112203206,0.2516293935570051,0.35949236316320743,0.42319318122965255,0.48797516404543506,0.5126352931389904,0.5218214905001073,0.4703648433759078,0.47597981150064506,0.572748438890009,0.6087299636560006,0.542226880728848,0.5691814693893935,0.6701403755234594,0.7633014651870602,0.724071087360735,0.6424692229650142,0.5954161990305988,0.5879706532983793,0.5403356350614401,0.4790828073282358,0.534255239457647,0.5695328282564036,0.5389364582252361,0.4900703382809253,0.42799775777000626,0.374621226838904,0.32785252404366716,0.3065435001421042,0.33699220831518906,0.3846989780126435,0.43643676198514436,0.47229180727040054,0.48694225020018767,0.5028177681538537,0.5063659098462003,0.5063938850734901,0.5108380361498273,0.5259719584073039,0.5271865819841133,0.5293935998805575,0.5235787672796124,0.4863426782014222,0.45361302937862513,0.42916924878750784,0.4599903720576499,0.4996651283425755,0.5348021068810982,0.5162637492701743,0.4584201121666114,0.5019955767027069,0.6010590097714337,0.6298253598832257,0.5646166470443816,0.6065431615571906,0.7127656635350177,0.8118117646289851,0.7887012412799423,0.7055017237360746,0.6321735655271405,0.5927141087488059,0.589549498281591,0.5830051589130409,0.5564043849210201,0.5258945792506347,0.47826569866030777,0.42098010065899816,0.364491727471405,0.3227475800793642,0.31430962308237964,0.3552894903262258,0.4057716358214445,0.4486261795932238,0.49530647864335675,0.5062984978481344,0.5037923218339535,0.4934273621325769,0.5057429687914721,0.5174292633435953,0.5275364394719513,0.5372736456251097,0.5309365641328601,0.5385221065729877,0.49845040612524816,0.463738758660841,0.4482191698725808,0.47729014622848487,0.5112552372503689,0.5415254231994608,0.5143381364954176,0.4562167542360287,0.5029940056577713,0.6068127035038389,0.6160912657925781,0.5585628853340641,0.6091004758175287,0.7116995298753608,0.7694583812544455,0.7005531193533683,0.625833746984136,0.5994029612005942,0.5895604956665124,0.5791945898465802,0.5600346136842509,0.5255094346444746,0.47451317443533547,0.41531763938703437,0.3588753162701881,0.31536139463359225,0.31137016748480706,0.356944555484346,0.40905767042252617,0.45801810159937917,0.49821892385450717,0.5063735119284831,0.5114602447811984,0.5093898085480348,0.5063855698292858,0.5071072218719839,0.5211225267242399,0.5271399102274832,PM
0.5812144358422162,0.5874824231219891,0.6444757243057522,0.6963640965354476,0.7281679999946173,0.7198986951608815,0.6765285963165857,0.6045644145769495,0.520206704280255,0.45104237899783506,0.4984753629535148,0.5809026694739474,0.6577705678789791,0.7272401744924997,0.7600423450408602,0.7672108893791254,0.7512167209316898,0.6855821453342488,0.5919529625358528,0.47274610110412674,0.44206557849837624,0.5851029451689218,0.7370829272260537,0.8902652227683703,0.9741680009480316,0.8752200624963944,0.7270193601710035,0.6480510475958616,0.7317981767160635,0.7627689473781407,0.7112742447507641,0.6533203558841811,0.5969797066247375,0.541238394752237,0.5547666379470146,0.6160668045292672,0.6478653618287065,0.6529324718679175,0.6198008119788447,0.5632741905537317,0.48446228260436985,0.442409685811334,0.4932512461371199,0.5739469899440466,0.6514763434289299,0.7149295830629305,0.7535986385409328,0.7510005184078232,0.7328107717620829,0.6680365512697732,0.5546838348522503,0.47271521172949216,0.567153697850618,0.7264591629092565,0.8903660719626938,1.0,0.9268723854385046,0.7844095600856922,0.6920188047161648,0.7764238539539594,0.8117923870468076,0.7607845513622129,0.7008464149367364,0.6355385499059345,0.5823264712316241,0.6038555980495284,0.6655502778450715,0.7001485124559346,0.6903425375291401,0.6646230293231286,0.614172132687687,0.5392702744059732,0.4927462426369593,0.5463968425173373,0.6201637993756668,0.6932403208973361,0.7417029941278637,0.783387306249836,0.7870138108004676,0.7676825238641443,0.7162734541258171,0.6062199984638252,0.47607564081386844,0.4433413962284489,0.5879334237289018,0.7520939704185374,0.8769887252709552,0.8404687275659901,0.7073409180509085,0.6944185077310077,0.7982704662888582,0.8078239494171884,0.7557379171001037,0.6841521890770346,0.6105769584664182,0.5800994974555076,0.6240388385921563,0.6846061957147382,0.702646076042968,0.7080760526909877,0.684443522742737,0.6309080681958448,0.5512851642073375,0.4880636720244209,0.5251985981256952,0.6085834845979705,0.690826771074394,0.7613029504281266,0.7838550679010865,0.7868225383523626,0.789308340305432,0.7572569379679401,0.674799563590124,0.5537390018735335,0.46909551706883423,0.5868299354644018,0.7343010121933671,0.7918550460122655,0.6879942428780028,0.6373455372013024,0.7336811829832821,0.7657977460961121,0.6801769312104184,0.5630750170233321,0.44813028649801945,0.3448996069018304,0.1857561529377869,0.041414711314584185,0.0013645174136467375,0.06450941571076596,0.21716322318177683,0.3521975506551236,0.3583177021130992,0.24378554015137244,0.08752853835161822,0.0037860271869645246,0.018608241714341833,0.1127290629876243,0.2336879833737977,0.32367526072311836,0.21510485394185075,0.06310259116323635,0.0,0.022753036835912344,0.14246008856254333,0.30465213289147286,0.41440061361349256,0.48177002210041264,0.6019869447599437,0.6925546016923998,0.7146635128056205,0.7018764507347508,0.6676800981094195,0.593447132731475,0.507293099258908,0.42486460270764237,0.4135312511694256,0.47813916272544876,0.5592195875778763,0.6170397077893077,0.6331262981667916,0.6209424156756804,0.5727321429348602,0.5135181068691983,0.4733728517536666,0.5141981612610063,0.5917505707825561,0.6723419949839817,0.6975403254766883,0.6174519727486216,0.5041644685294959,0.44009857752742665,0.48140465114179865,0.37313928869394974,0.24295163644817475,0.2393718601161834,0.35142008254335,0.4831491345961565,0.6127162954087457,0.6885463642127347,0.7082652488774861,0.687410943255303,0.6468153067122024,0.5723988290074713,0.49651125552692177,0.42347932999429316,0.40755737773790734,0.4648621550290555,0.5488960676267904,0.5924648511817661,0.615706903032069,0.608979769656329,0.5432747459740761,0.49746686707616883,0.5016542294515598,0.5619984150756396,0.638928533490636,0.6893749436368015,0.6543049621556016,0.549445629535469,0.46360559783916777,0.46383183579141907,0.3532637506295644,0.2162685695559774,0.2169347552633245,0.33297387579156057,0.4652522668646659,0.587430237757582,0.6627499662992649,0.6748070065281806,0.6615962029879152,0.6129895849076861,0.5288423577979673,0.44947777683409695,0.3802312202732283,0.3606038213142053,0.4151879947438566,0.4958645938501305,0.5476646809058545,0.5635842312616237,0.5648759563843231,0.5217793796875143,0.4750319971399941,0.4541343219468619,0.5032411251866633,0.562143129523792,0.6292210458449223,0.6424534881980071,0.547599988451767,0.4372694553792029,0.43219511469255734,0.5016798268048035,0.38442522930943435,0.24134662421225572,0.1912488054267234,0.29586315612340375,0.4307557167328704,0.5532150339414263,0.6453467232773993,0.6882412577913413,0.6748185166704022,0.6349240620366436,0.5648691037417293,0.4839873832884476,0.40360061791431345,0.36810287342115355,0.4195843191066704,0.5086929045734605,0.5866707959631059,0.6369559792411525,0.6504867764671549,0.6150295689459471,0.5715229167746019,0.5130934473449562,0.48822796944743985,PM
0.634514119007564,0.7405992692713601,0.8551223359578528,0.9551421460584701,0.9363554929645574,0.8256673342111189,0.7063338197164648,0.5869603339233991,0.4687654762041351,0.3504768379258598,0.2449882840484734,0.26429504994493813,0.33110399640025534,0.30256255390320486,0.27660676167209575,0.28354045566152664,0.23366323581140347,0.1501715827140786,0.07184251558454413,0.09701206378533733,0.1910726954502291,0.28243646227988517,0.35948657570113185,0.4190012344233318,0.5121329208054464,0.6290685621239076,0.7451354390018756,0.853147733862806,0.9421029187142897,0.9966493832556971,0.9187037680588905,0.7963484007083408,0.6765588365006143,0.5566647429821803,0.4383565863473735,0.31949651422854686,0.24133014465445668,0.29650179855625325,0.3222311746947033,0.28523539728827263,0.29135917571489256,0.2662818007559906,0.1920555272204132,0.11091493549196474,0.11009532904176966,0.19520061850512493,0.28691164541703684,0.36818537556242315,0.43089655936270765,0.516646382882372,0.6277086087068675,0.7429088804676287,0.8573714533011478,0.9667566197511279,0.9952951488520054,0.8988260444223668,0.7802774124770879,0.6620081215157976,0.5411946440532713,0.423360684011606,0.30923428789932217,0.2763056746938055,0.34474762393833536,0.32752631435533575,0.28127495036553873,0.27448970574974907,0.2252879235650902,0.14292884922400106,0.05684506858214111,0.05409548232834127,0.14348804801635962,0.23953077601805473,0.3209001665204716,0.3851243757371381,0.4611851104882443,0.5742390656120786,0.6897511427234377,0.7942503151584379,0.903150906079397,0.9779482822185952,0.9185955433287809,0.799261515974409,0.6755579935030194,0.557422940532375,0.43922522794180874,0.3193194941794222,0.21770743932158543,0.2424342940233586,0.3186091882660884,0.30435977294851146,0.274536428590501,0.2899027922390873,0.24938899132773495,0.17358113190680435,0.09166105612928588,0.09404243219733455,0.1811234329865583,0.27345445634511134,0.3542036116445515,0.417574144197868,0.5038037560229081,0.6158393641547213,0.7312700108560994,0.8456725859685394,0.956854877819747,1.0,0.9105160408905695,0.7983150252939768,0.6896090765368825,0.5724991357065494,0.4515665192403846,0.3341321885448125,0.2529895421195174,0.3102342210413309,0.3498831942420222,0.30659792656080187,0.2970556386401624,0.2819945619737616,0.21702521871708735,0.12790621973457328,0.05208859815617095,0.083285170926654,0.1760778149262967,0.2540910599871351,0.33001290683369877,0.39521130827928763,0.48181464946928654,0.5940731386795912,0.6135738406900983,0.513586587747507,0.411843538444979,0.3407895729187078,0.2686803769812405,0.17616665958401767,0.07293529754352646,0.02428079067675859,0.006061071736348733,0.07432971389445697,0.16466069645796644,0.2401741549370746,0.25950832102789034,0.27169838973098104,0.31142175973320385,0.2508045829322929,0.156014473853886,0.1690250669511839,0.27744667894960884,0.395351789372955,0.513893745242723,0.6319560671181406,0.7465476218395879,0.8333687956951241,0.7931574343073389,0.6731460381435959,0.5578154567765579,0.45265702355054405,0.37980653629218475,0.3126602358989823,0.2290515625138958,0.13296995995111782,0.04685574290040195,0.0347438855066482,0.10831286994976685,0.19436241177174907,0.2516454276129365,0.24064805058263228,0.25581412236988266,0.2716483888893664,0.18661013218273248,0.10597451262545521,0.1527048229637813,0.27204020531552087,0.3926021232891328,0.5126639300624956,0.6312481511016879,0.7479143781620532,0.800483289931849,0.719642229402363,0.6118708902644288,0.49857747427402566,0.4025797279113279,0.3372802207246006,0.2644908630075664,0.17553437770119262,0.07896760073236697,0.0,0.022041312186049433,0.10788540341936614,0.19254037783771705,0.24559996414268803,0.24087279460061928,0.27830493402819756,0.30671970831828244,0.227185506449463,0.13755906750459568,0.1749285685904156,0.28811090943086026,0.40544261747993326,0.5229103790934839,0.6424230233513466,0.7611481966331151,0.8467893423385364,0.780919822748964,0.6633435845553737,0.5494623768691749,0.4494175759970125,0.380416421470668,0.3131443165751462,0.2254477075082304,0.13061103385081174,0.05271179231672707,0.06225146564777995,0.1406547673245946,0.21692784784509134,0.25701203128730765,0.24082325943752192,0.27356462283236427,0.2793875104861212,0.18977837465953007,0.1218995666524132,0.18675680511127934,0.3058758142085598,0.4276224838599061,0.5467517486183893,0.6657047909162677,0.7840767789436209,0.8362797574067562,0.7469416317256485,0.6319410808815606,0.5196775418073802,0.41887400231391614,0.35523089525478846,0.2823565909363934,0.19258810199638465,0.09849624995615591,0.026522186336575437,0.05517837717275653,0.141137274993536,0.22071363658468046,0.25003903623957013,0.23532545538867589,0.2785777181208302,0.2629722522766087,0.1621631701603694,0.09500688718599104,0.16628504629581164,0.28341999520000516,0.4017595426953178,0.5203179797314172,0.6393729859452353,0.7530799548255094,0.7688065140517684,0.6592199961639178,0.5438095218463883,0.4429734019192537,PM
0.9545396572016469,0.9309314295176674,0.9187678235765646,0.8443101931570305,0.8406925776231877,0.8965223725986919,0.9132686040190783,0.9141029984651294,0.9267817489319463,0.9157896505982213,0.9134524669434607,0.9134246320446757,0.9076189803186296,0.888627956304854,0.88434859698314,0.8685343589548293,0.9058588255220612,0.948338535778324,0.9715527397419508,0.9999999999999996,0.9997902013721851,0.9335322366588055,0.837018347070297,0.7262557118867279,0.6113352771029334,0.5088674894722369,0.5193325494003722,0.5889172721742031,0.6580375440707198,0.7151831839988216,0.7531644839243161,0.7755947300553676,0.7900718099903812,0.7874053775961349,0.787014704122059,0.7408882015494043,0.6556432013189757,0.5418947624474364,0.40730452100085346,0.2812241433422136,0.3531170690622978,0.49403862349246586,0.63669601807347,0.7830515527182365,0.8995155998287756,0.9151288916072375,0.8337260754385629,0.7865881915242032,0.7488776119333127,0.7017516240010475,0.6242925625848605,0.626867535914235,0.7033744726930009,0.7287223738499571,0.7229000813604247,0.7043786609516665,0.6998343739649848,0.6808522974339835,0.6872342480723854,0.6774662244089869,0.6720723051379758,0.6524748387837671,0.6602581691414273,0.6794680614095783,0.7055740611853918,0.7237437667588309,0.6835308029574212,0.6091272279410851,0.5213019159537802,0.43211286608874255,0.4095393981303723,0.47086582717855885,0.5385347680521515,0.6028579571364889,0.6478971219696974,0.6833907989843664,0.7206146738895254,0.7476489880350061,0.7310385839234157,0.6849492085350763,0.5967929818662694,0.4773683806282363,0.34429125558511897,0.3827968502902057,0.5156576549822618,0.6653820351996003,0.8039412851938432,0.9326500744556312,0.9811052177952866,0.9403883263627235,0.9259736830309566,0.9001026163136028,0.8558705401671403,0.7984114939101263,0.8428011406537288,0.9040424475053812,0.9300519795518318,0.9211568788132465,0.9225585397164742,0.9206253604784371,0.924229641181229,0.9136566647282058,0.912868635627794,0.9008390768737953,0.9107931306035719,0.903864135524389,0.9123369841161533,0.9134490939594229,0.9130980130649147,0.8942359573543972,0.8316149534827626,0.7566175062703295,0.6577930975526445,0.5517591616795046,0.5396061692554794,0.5969477804465471,0.6609930414468042,0.7095135131483574,0.7488617245501881,0.7258205412239085,0.6742759022940734,0.6295516404318291,0.5779026134088485,0.507199338869103,0.4408073344986616,0.29872367448218284,0.14408579592752746,0.02730575023962345,0.000133846314894992,0.03810457601514017,0.16524752034614743,0.3201541218009418,0.44681201565297757,0.4236076246763445,0.293462591694968,0.1393285493543832,0.02548513992424839,0.0,0.028751064390145853,0.14428522390349885,0.29846516261850153,0.423592995606215,0.5077506374128506,0.6092016337185426,0.7018639454774287,0.7834190210267056,0.8238100304348914,0.8444471594077618,0.848376617998825,0.8286512044299594,0.8239957361375807,0.8170113130976699,0.8353150367731765,0.850190846048593,0.850352691819404,0.850352691819404,0.850352691819404,0.8502095571713819,0.8367298092090762,0.7784645812472184,0.7103194088725941,0.70722960626756,0.7697471088889212,0.8300939424615588,0.8496134436752043,0.8202335877304665,0.7050476154325112,0.5560792270254722,0.40305203663734046,0.2675124652731764,0.12159259653553312,0.05007935523813023,0.1251580626196871,0.246966377681753,0.3794544625227787,0.5086287215391461,0.6110962210409263,0.6604955312034568,0.6538888745728753,0.6160119825972941,0.5683598834060724,0.5330359573544272,0.4658386387932727,0.39899274967047704,0.33867389090502575,0.30891854488128434,0.35279307469956533,0.4410230910480446,0.527567619841292,0.6135212536965464,0.6366477032246585,0.6052882818266281,0.5988445441255101,0.5717702444297577,0.5837659072757604,0.5874503414394883,0.5915733869339186,0.6114005147365842,0.6145510340488483,0.6317086449137803,0.6406658494626432,0.65717170777843,0.6523174807644057,0.5865342327858527,0.516004413332698,0.5199222397603003,0.5948920061376959,0.6583107494811018,0.7050364885002378,0.7268205816137345,0.6775186950503458,0.5301577695572557,0.3931272256801308,0.24549889613578246,0.11065337379479923,0.028621610806901288,0.09247902234458483,0.21808207209683994,0.35182701533166894,0.48526119532558143,0.6047122453245843,0.6909234833640769,0.7171136840910557,0.6993233626011164,0.6842353509478598,0.6459058006655316,0.5945823142193496,0.5180372910606814,0.44158000211724024,0.38870103559775737,0.42098898470933976,0.5218755032475388,0.6377801426521548,0.749391247095295,0.8570242796488423,0.9173583751335852,0.9041321535669975,0.8771844748709285,0.8353660428342606,0.8029006770442675,0.7999273043708013,0.8196511694993407,0.8259528034732768,0.8454245149889688,0.8503375922696876,0.850352691819404,0.850352691819404,0.8499962135397969,0.8352370002199154,0.8015032912107363,0.7416635144662513,0.7278496752834482,0.782733977338427,0.8460370569910336,0.8752899858462073,PM
0.3906977822534321,0.46418173707041577,0.5431948725938269,0.6241006997844334,0.7036263678124475,0.7835676459988001,0.8538907522146169,0.9265831118898233,0.9758794032334304,0.944750229086021,0.8713156248650347,0.7938016137504651,0.7147981052198251,0.6333718717132188,0.5475574360658924,0.46226640182728085,0.38261424610654493,0.2994030354249011,0.2285670058333693,0.23116334289596763,0.2871001849339383,0.322075960985323,0.35245035075911746,0.3764083650108072,0.37584107374268183,0.3322966634090492,0.3073945523557635,0.31349425544975995,0.3036910404554871,0.29956408666339995,0.298216665325189,0.2959253640251167,0.3049052461895865,0.2912347976536811,0.2713916864147379,0.22888509553580838,0.16961566217036883,0.10709424329613215,0.05811596918707207,0.07073251533534797,0.12097778990329244,0.16833178737770194,0.1953910905196099,0.20919399218023949,0.23242341407057188,0.28750223319356594,0.3600172831276569,0.4372884086475217,0.5168593293429151,0.5962129211076876,0.6764774067188504,0.7588085804829217,0.8423258500876145,0.9190826592892096,0.9835819137464032,0.9819317398307412,0.9162495797649466,0.8344574605472685,0.7539976417187562,0.6735152894215783,0.5937106157698291,0.5107650303979112,0.4307644130309516,0.34673822260980325,0.2676421122547299,0.18994545878597968,0.15601190920339114,0.20026771588216552,0.23128636995948781,0.23134500317218243,0.23270351543987622,0.2122583441246706,0.20090216394614568,0.2276967425112315,0.24867577855561462,0.2602698816261009,0.25738370375689845,0.2608190699092068,0.26476783856085584,0.27045109550432156,0.2611667211629556,0.23031887916785343,0.17914487272256285,0.11775698506244003,0.05779434750444823,0.052436342871228225,0.09942189552024017,0.1519536298127877,0.1901488408642702,0.21087871739636688,0.22444925289965667,0.25238902614005254,0.3169387076718979,0.3920910075388855,0.4723196709222406,0.5575379030896503,0.6374159918540987,0.7186015384259756,0.7969216898379397,0.8744895271939874,0.9488250070680346,0.9999999999999998,0.9716575435252428,0.9083331016957239,0.837916651115236,0.7563673290951833,0.6762634223530533,0.5951964255177817,0.5134808196205387,0.43173105782825694,0.35699625145216607,0.28612637326742485,0.206244570607786,0.16292805942700483,0.2104006962827556,0.24100332796290802,0.24794081062218498,0.2440605600425072,0.22209778989222007,0.2140811050950997,0.23449274416522647,0.23841126472858343,0.23865614235889265,0.2382718087813458,0.2391454330488605,0.24386874174427464,0.22692317818749586,0.21372806408458067,0.20644858797926235,0.20587608781463662,0.20611533062591914,0.20439956407662252,0.19755351299733803,0.1787004160553083,0.18114419436471496,0.2084914458109166,0.21528243769585176,0.2110395796700788,0.18205274734621546,0.12677682956938652,0.07769847917627737,0.10044847475663143,0.17824923270783644,0.2580218442560347,0.33496284227478457,0.4059652265935363,0.4867636530831132,0.5681436934002984,0.6498601563127742,0.7356680159666091,0.8186855068956247,0.8949448615320883,0.9224394098078206,0.8586590769848874,0.7811858305259352,0.7028795050954022,0.6207893604429613,0.5414680011608972,0.46138769603200824,0.38633874977804017,0.32094652104705834,0.24949648482054987,0.20576076850289415,0.18576419238814923,0.1683405218665872,0.13453312028469044,0.08756819309552788,0.0351571823437109,0.0,0.02500709390795941,0.08398025333014614,0.14661632930286728,0.20228681323036546,0.23057888225551748,0.2300531008068467,0.22437993107513154,0.22348645438710113,0.22356118535646918,0.22557354978862199,0.2103204732959909,0.17922977396734918,0.1715006806956343,0.19235009994254848,0.19911226552863814,0.1969508122294461,0.1679795501339023,0.11122887877455123,0.0737455718618536,0.1165470615280404,0.19380690438743842,0.27430379620777745,0.35452320176326113,0.44011910320274716,0.5257885747831184,0.6063194081465633,0.6882869160262273,0.7675046889271846,0.8456601824616088,0.8924625570873836,0.8405513594671798,0.7618642392548993,0.6816474036148197,0.6023007667754887,0.52263167608861,0.441055451730747,0.35701906707429054,0.283108886648088,0.22390460414853353,0.1897499290468987,0.17877613567262451,0.1579340561057463,0.12497657552038532,0.07252551129491192,0.030029110979592266,0.010391953394322417,0.05279010383736815,0.11214442849109019,0.17657996525106556,0.23023970693802687,0.25617416274393423,0.2661590892791905,0.24985122797496362,0.257038108940276,0.26667396779107744,0.27233346381015555,0.27546890095635757,0.27448082150961395,0.3047111758949119,0.337846143700391,0.3273038156437744,0.2967412216584051,0.2674181057567071,0.22453408770404382,0.16558369993890198,0.1141196777317599,0.14023122304746805,0.2189181560139195,0.298446540584153,0.3778300481506647,0.46148179570819403,0.5428432425295213,0.6244049226276434,0.7047281821616669,0.7837166350636975,0.8602474683561849,0.8968429669301228,0.8380793870510239,0.7585589117588063,0.6785219908203675,0.5992554980554281,0.5145683169742652,0.43158894985409435,0.35822032354819733,0.2906800249806736,0.22375299359947887,PM
