0,1,2,3,4,5,6,7,8,9,10,11,12,13,14,15,16,17,18,19,20,21,22,23,24,25,26,27,28,29,30,31,32,33,34,35,36,37,38,39,40,41,42,43,44,45,46,47,48,49,50,51,52,53,54,55,56,57,58,59,60,61,62,63,64,65,66,67,68,69,70,71,72,73,74,75,76,77,78,79,80,81,82,83,84,85,86,87,88,89,90,91,92,93,94,95,96,97,98,99,100,101,102,103,104,105,106,107,108,109,110,111,112,113,114,115,116,117,118,119,120,121,122,123,124,125,126,127,128,129,130,131,132,133,134,135,136,137,138,139,140,141,142,143,144,145,146,147,148,149,150,151,152,153,154,155,156,157,158,159,160,161,162,163,164,165,166,167,168,169,170,171,172,173,174,175,176,177,178,179,180,181,182,183,184,185,186,187,188,189,190,191,192,193,194,195,196,197,198,199,200,201,202,203,204,205,206,207,208,209,210,211,212,213,214,215,216,217,218,219,220,221,222,223,224,225,226,227,228,229,230,231,232,233,234,235,236,237,238,239,240,241,242,243,244,245,246,247,248,249,250,251,252,253,254,Target
0.3473289901437986,0.34823819550923263,0.362409756524777,0.3523018262951898,0.3585378508968238,0.3451449272318112,0.3569378705588946,0.4116771070774088,0.4717350203594042,0.5268579680832595,0.5561054775338805,0.5375949118087737,0.506078101230929,0.4835925002366337,0.5059547696173543,0.5106010233095715,0.523411366943968,0.5488361864080606,0.5864044330142426,0.6591110084984897,0.7474820963791733,0.8370782211852847,0.930096549548447,1.0,0.9813488545835072,0.892900396910314,0.8312018593507804,0.7491081958368437,0.6572741867952798,0.6037789044174668,0.6105586831990082,0.5881746584339282,0.5650212222726125,0.5683899315037477,0.575464591985376,0.60818706541707,0.6291603002426709,0.6318714115204616,0.6318767357816539,0.6301615261631164,0.6073971973594037,0.5965667673115251,0.5895962396953802,0.5723957219420845,0.5538828791901715,0.5625272177995853,0.5622397535429506,0.5263605764756307,0.5163566322001549,0.5304215124932314,0.5756005066961656,0.5957537272967715,0.5799549164624436,0.5473380827678924,0.5188232932744876,0.4941698316311509,0.4760218200149917,0.46681112955819204,0.4777559282700423,0.5169947439437936,0.5538922946103444,0.6314634014877036,0.7164391957414322,0.8064083378088509,0.8864704835888979,0.8903723755053758,0.8213128102217353,0.750676613977995,0.6625122772399781,0.5662184652904951,0.48226835365521126,0.4494521038813084,0.4553717170734486,0.42308060481364906,0.3833221284652444,0.362050678198516,0.3866642575228143,0.43155573055752194,0.4496330354377669,0.44170183938932706,0.4490791455874037,0.4410410246394809,0.44992553397633017,0.4493370373019796,0.45310196459267305,0.4504288018823539,0.4508997142572735,0.4494180505449381,0.45144634972743614,0.42758873176210876,0.4183807175480103,0.4533896054351514,0.5063505333141891,0.5527549970758918,0.5647704128155238,0.5229536753894388,0.48319667899891305,0.45684776860538845,0.4248025808295144,0.43109954010820317,0.4001159304883841,0.40197702062577223,0.43102448103709357,0.44173085398341927,0.49843174947291935,0.5828306647166865,0.6709052032924419,0.7634006702100113,0.8282505539408995,0.7941005359592483,0.7157657492607452,0.6496488920866623,0.5657823256880392,0.4775878823826125,0.4398624962221862,0.4574880443707148,0.45576643025372565,0.4112638151217989,0.39460135082556036,0.39013088230485504,0.3952612694417841,0.43101936152143816,0.4216333026262835,0.3814250800673378,0.32854546411489194,0.24776599245173792,0.14244445657026672,0.041502916696573244,0.0,0.021373813803408748,0.11141268963110917,0.2173317063526503,0.29825958357423277,0.2780131975625886,0.17991811151019554,0.07471976830738702,0.006267153212810683,0.0026709360469969745,0.05897362776671056,0.16272130641175586,0.26490334096446677,0.32062233564973885,0.3536782129381888,0.3839653945329693,0.38894321239015284,0.37466143053276024,0.39870973972644697,0.4794795750770331,0.560462625296068,0.6246749185115403,0.6599204629265834,0.5832542855916008,0.4900422695866493,0.41277902406389444,0.3779311618319996,0.35517217462358364,0.3307836365543806,0.3338362783912916,0.3380998652343772,0.3701638252861197,0.3920356432677825,0.42862532938453146,0.4649304927445561,0.49345268183295143,0.4549117424660998,0.4056785380211667,0.358322116633746,0.35753420371760436,0.36712288068437937,0.38633228473109904,0.3717376696632235,0.3699128263709279,0.3725820007452185,0.379899286549497,0.38386936701301444,0.3791778561974106,0.36498404619717295,0.37713107932476797,0.3800781838528051,0.36331649398358135,0.34865358271660485,0.3249395256697487,0.292401461233728,0.2944353091135943,0.3384500570104967,0.38099236321248897,0.4038890895901255,0.39100816825966556,0.4014126105626712,0.4779802012509813,0.5705438890730736,0.662471705786158,0.7306568479149127,0.7061558001297619,0.6242597927156917,0.5420064944795429,0.47972544659173755,0.45512380969353883,0.4196389178911093,0.40762819187403787,0.4133267607729292,0.44024969906714384,0.4625808533882032,0.48942393693599806,0.5258632067150004,0.5421636921562976,0.5125178726435036,0.46625029084488867,0.4512119389781124,0.46533685642206013,0.4906730608808938,0.48803444053587697,0.505749753440718,0.5232820365990656,0.5387064296295492,0.5551508022707998,0.5639211604626073,0.5761079180062816,0.5859539560345817,0.5734951185064423,0.5587902288423372,0.5204275557574212,0.5107580603855006,0.4934296238407203,0.5104906461794791,0.5315027522618414,0.5508167420274965,0.5298608008500683,0.5483623866922316,0.6272274217820115,0.716098375877416,0.7903167086542409,0.8391121823627761,0.7738490922372696,0.6828991478528548,0.5987826863101802,0.5399064279913492,0.5017211428334667,0.47884503705048687,0.44925302280784507,0.44802224397398094,0.43834106525188377,0.42375934365648105,0.44836755031423703,0.4824472533650961,0.4892089992009425,0.44249857176196317,0.37938123976537463,0.31160525001277906,0.2898288266080318,0.28053920930441656,0.2879516050904063,0.27736139883770683,0.2843309700300227,0.2732972571439589,PM
0.9399568331691481,0.9329670243519177,0.902852447156385,0.8466834256210196,0.7780183869183523,0.7006549281709558,0.6644398608953468,0.7146769119441991,0.7875736060195593,0.8585989531925446,0.9100167901197582,0.9396474068777487,0.9556108995116863,0.9539330663857779,0.8965958015797915,0.8137179066214209,0.7262461948952326,0.634270095135764,0.5393236188366086,0.44500258656830294,0.35764661739897363,0.3834898342176851,0.47656425431326777,0.5729345022964292,0.6666127621279587,0.7594411967204047,0.8438477604443435,0.9269833314082898,0.9590503969304776,0.9285768566823889,0.8742391690079778,0.874791066184752,0.9159164546215723,0.9291947011698167,0.9124127206418147,0.8947677883167122,0.8917229582448591,0.8986241758784936,0.9026008069882616,0.9006477519835583,0.8822182921154025,0.8358200995036167,0.7762061320175935,0.7062746468766672,0.6449363842307807,0.6722695767918012,0.7401917529514144,0.8171999980067861,0.889512874621603,0.9403072141950668,0.9788315144048116,0.9937023947989019,0.9866959979800061,0.9411596272523071,0.8572325928824509,0.7684722534139827,0.6792580272995985,0.583358595241728,0.4889159402872467,0.38993592764584806,0.3384917994484391,0.4099650919324358,0.5074239412032855,0.60150806256642,0.6957924036921814,0.7902454012428748,0.8805035881278067,0.9455969934298594,0.9322016082703508,0.882232170788571,0.8334358007402352,0.8507034995105254,0.8880445326236794,0.9079252514024574,0.911397346700539,0.8982633161109583,0.8921841293774169,0.8977102619288972,0.9098184512280405,0.8932279237212424,0.852608901710084,0.7921974338307824,0.7179200481796271,0.6453024574120905,0.643922009424079,0.711954817377118,0.7839498439902082,0.8495397728389822,0.9063083777948655,0.9574313126216998,0.9801827257620193,1.0,0.9947784930044667,0.9340826574126562,0.8561126815659292,0.7700381203900162,0.6789882498908786,0.5835984026536669,0.49835118699959224,0.5136749580433708,0.6061003890509415,0.7006291320848932,0.7948286799623014,0.8875749700269808,0.9584033554912312,0.9625132434093766,0.9165942311684341,0.8683439734559901,0.893136684479835,0.9343347385448197,0.9468128514177554,0.9466555016049782,0.9348066924606242,0.9318184923527968,0.9293427255709643,0.9326473789608138,0.9161887306744845,0.871931110053443,0.8265812405506969,0.8588598230301172,0.8836278504556863,0.8891904455809907,0.8918756570730102,0.8931410307487708,0.9007834867484448,0.9049839579317465,0.8755666330319014,0.8310829244697275,0.8252669053300967,0.8810672182665666,0.9228681937115699,0.8738150185310802,0.7818194669065086,0.6873987613619361,0.593911397892926,0.4992591742908967,0.403592044784562,0.3059471401119418,0.2098542599363502,0.11245245215067645,0.030973195476503124,0.05463843168964644,0.14756470640229868,0.24511785002274755,0.34137745829142796,0.4408908027383205,0.5355785059049198,0.6346103804606222,0.7263950237520398,0.8146308254472536,0.8953846027996315,0.9500695366447589,0.9369576031541305,0.9347160647379875,0.8948982331154105,0.834624894145364,0.7692218268215987,0.6985781023936342,0.6299351272473055,0.5811310169571238,0.6071932282460384,0.68356030565789,0.7595497899984054,0.8205905342600206,0.8563450405312694,0.862278127571446,0.850093378939546,0.8508700901120334,0.8621714332843109,0.8698651508631194,0.8609735982561202,0.8394748850223992,0.7974085628551117,0.7751442998322198,0.8181682319952921,0.8763204923294268,0.8539105407614151,0.7664225749144982,0.668426251121033,0.5685258764706844,0.474034411215416,0.37676466215854365,0.28075944556970645,0.1822428140015797,0.09760632352405052,0.01629078059813871,0.011013645018348894,0.09476065510586396,0.19358058467133632,0.28775952757870726,0.3878313498052708,0.48220021193873386,0.5825444274449896,0.6841143286784017,0.7752920752738774,0.8601194339368412,0.9326245449629702,0.9543282911215818,0.9368590824901197,0.8929769915860004,0.8323421778318683,0.7584514377691163,0.682160257983808,0.618316871414196,0.5860545054565425,0.6284974104072767,0.7017266969203164,0.7689973902576994,0.8263590623633024,0.850412807200307,0.8610911514442012,0.8618945506874482,0.8541247244982813,0.8512954408896969,0.866192990763256,0.8834569149460529,0.8782575532276673,0.8380822594039106,0.8175298659091979,0.8602174140702106,0.9131774617774311,0.8960403870049534,0.8101862847280614,0.7157012838283912,0.623194556679852,0.528977403940539,0.42711647225874283,0.32470988441984483,0.22789783837089805,0.13084018530620223,0.0368076858152091,0.0,0.0724095136613192,0.17010696378707935,0.2657496222170419,0.36485717435255816,0.4597454647573396,0.5594678813317626,0.652274986224864,0.745314082946253,0.8382009428402606,0.9065366907648411,0.917585099334628,0.897189120198641,0.8597061060506532,0.8010081906641227,0.7293950836030065,0.6582176762691696,0.6117121518582003,0.6292952130681713,0.699585070311523,0.7724730552122543,0.8366392609858455,0.8811372881707233,0.8968212996403149,PM
0.8510143816815265,0.8695280532053173,0.9090950857420621,0.936771021313989,0.9254654138515246,0.8255181293074436,0.6876608710830148,0.5339588623268519,0.3940399264706196,0.36548021934964314,0.509937752357482,0.6521485797274025,0.7870709516278298,0.885416843662088,0.9359639741708881,0.9148733026505402,0.8607807981126587,0.7905392669491409,0.765971528644533,0.827299777058391,0.9030911058148616,0.9169384212918894,0.9170318035072622,0.9164099336762748,0.8991542808507145,0.8865961772527857,0.8794786152912311,0.876975476020661,0.8615085369123312,0.8762003865859116,0.8629949807805959,0.8301391436735042,0.807622382352859,0.8305488032922046,0.8582537929032883,0.8922273390216793,0.9041749877503635,0.8947794168060437,0.8443965387193852,0.797771934487387,0.712230779999155,0.6181493122078328,0.5608114253426013,0.6240007374296423,0.6939988407513802,0.7556260822914425,0.8118686699234221,0.8477090591763208,0.878213625887156,0.9008453822650129,0.9132306531054546,0.8859090056041516,0.7741151631906691,0.6251894313052944,0.4797381331522361,0.332046669343514,0.3345725715951682,0.4386427152868233,0.5843038905318689,0.7275135215122752,0.85436519875035,0.9339202467748864,0.9303042356419731,0.8769960910403674,0.8099499134354158,0.7420953994441755,0.7624913011716759,0.8363660491945257,0.8803958556144789,0.880792085640131,0.864163918374456,0.8713522461193817,0.8590526923581452,0.8379697026339068,0.8429116266761163,0.8354157375277023,0.8077325722419575,0.8039228741483422,0.810169429865911,0.8447057188229063,0.8769078122572891,0.8698074769612294,0.8469196814491431,0.8210937744651146,0.7624056897065001,0.6841657542513708,0.6069223508377446,0.608141962652641,0.6841352041510502,0.7563850511404624,0.838018385767457,0.8904836257604485,0.9107954045986304,0.9173405412468085,0.9335182676412019,0.9520837018078439,0.944261268947292,0.8226621106458385,0.6787216144852195,0.5277019756588581,0.3945763525391639,0.39738850792091807,0.5157696742736588,0.6651264211014691,0.81829586772702,0.9350573289415385,0.9724913804780817,0.9564678507578694,0.9163297990022814,0.844258652487893,0.8017059769157218,0.8626367576420497,0.9332644391276022,0.9724829768557344,0.994020767387398,0.9842888576326727,1.0,0.9918675759246849,0.9787928886629746,0.9993353152265714,0.9911006622877094,0.9957190495241965,0.9797419893682955,0.958762324008056,0.9350413729089597,0.8655413298492958,0.8716213616749018,0.8947271396108123,0.9056058477196318,0.904179611880318,0.8877086153730813,0.9026549169793228,0.8965688780568781,0.8988303946834444,0.8970676729434892,0.889725380241357,0.8451823003335184,0.7757193674036147,0.7120247581225057,0.7081100003844822,0.7728363423321714,0.8456589785628967,0.8916490585548003,0.8656729075490466,0.7447719824077916,0.5906968975271054,0.4457818517798904,0.28652328680813266,0.14777552548488027,0.08524931729287122,0.1760977684033307,0.29422991416415556,0.4359127338324642,0.581176155991737,0.7239786111383415,0.8361717371478292,0.8334792428183695,0.8145114645881026,0.7933263277879492,0.7577143023381385,0.6700150862949483,0.5971226418328035,0.527192388341998,0.5115776975802557,0.5537042472580351,0.6312251914345293,0.715075198785522,0.7612465712283534,0.7787336564853007,0.7876710331193006,0.7511552843398643,0.7148659675064941,0.7151020240410997,0.7236856166101324,0.7377276841102862,0.7586710334445561,0.7642801473354881,0.7643532242052524,0.7727077063133692,0.7916649596371688,0.790792659504957,0.74990842125146,0.6778376279032923,0.6025582595120742,0.5985779359837551,0.686593699612911,0.7633629858680662,0.8288819186092002,0.8251543982480083,0.7214949755141884,0.5830623940104118,0.4244104364596648,0.25893812972234986,0.10891673903037491,0.0,0.03716464005489195,0.14429623192298502,0.2774263324110926,0.42385892362802124,0.5742625109633233,0.7178057234736821,0.8004594607264668,0.8103693776395753,0.7912695287157581,0.7582791316555495,0.7108529130622214,0.6570508575861806,0.5922542054651894,0.5042166229132716,0.45757477672251223,0.48496826081719124,0.5744826041373781,0.6779308337127485,0.7460486459529649,0.7815563718383762,0.7859594596701891,0.773908542548857,0.7532846348137143,0.7363026099718866,0.7337112998198938,0.7316332703972446,0.7623137516293186,0.7653909018995746,0.7849677932280734,0.792648058535244,0.8004512714379173,0.7976333478807254,0.8148248908858582,0.8221270637090239,0.8353696088216767,0.8256948057871325,0.800043428459646,0.7189044324247389,0.6609835384915286,0.6469161538152308,0.7155713230018348,0.7894537615897868,0.8358863273278887,0.7975887670622814,0.6804130537345898,0.5348501763329132,0.39026753454029883,0.23094268377774174,0.09193804408357487,0.023641471768410582,0.1173099458333362,0.2381304952126717,0.3823665196037611,0.5272070896298153,0.67371815120908,0.8061413708407148,0.8325229011824504,0.8059904726827636,0.7779297985353306,0.7395748459089431,PM
0.9545664466915609,0.9979971271002408,1.0,0.9859558715128993,0.9342703591342296,0.8924976493436225,0.8115260798007005,0.7133103943132215,0.6141177298996428,0.5059463649538709,0.4800958701265712,0.593354715443529,0.7072675188660544,0.8143616019664548,0.8905108755783884,0.9340272948260147,0.9282434595966924,0.8787781159745043,0.8278697774513799,0.7737114271066567,0.8043648359005626,0.8639768156539285,0.9053683559897236,0.9128970319119847,0.9134891585953668,0.9046001944910396,0.8952103007488379,0.904089113695175,0.9169766178994538,0.9165981178674825,0.8732202675089016,0.8558528161569017,0.8442546416912409,0.8517900988573173,0.8904233333734233,0.9258917422115971,0.957549272288106,0.9671665292698166,0.9602370488436183,0.9234651459137617,0.841568603464232,0.7393176382197417,0.625136539493448,0.5414880468552705,0.6101902113659277,0.7284158853729683,0.8298178930306932,0.8973699095591718,0.9594076302169263,0.9690646724965672,0.9274667163378076,0.8968791351968912,0.8290360817266063,0.7786912002587978,0.8305359465907718,0.8907287524091849,0.9227325709250893,0.923487265516334,0.9424509799133847,0.9257658734817511,0.9105375057793017,0.9160258974864903,0.9160527681973298,0.901312506340556,0.8810071476786954,0.8724695733167218,0.8703108546775096,0.9090682733942894,0.9309029016667751,0.959673732132162,0.9732799864115695,0.9895397489155897,0.9752857267588886,0.9238611392901057,0.8430513428933164,0.7455107295169192,0.6397741761011395,0.5497590537199639,0.6141637834879643,0.7305392925242966,0.837642017242191,0.8988690704401936,0.9570391880018669,0.9790649920231269,0.9444953900915536,0.884213988349408,0.818195881690051,0.785708438386751,0.8297195457203208,0.8961741075396605,0.9269852117660045,0.9269435419603704,0.942663097283285,0.9424402483933592,0.9544658660027503,0.9477822405175358,0.9423715289091787,0.9457585061187759,0.9192039784157497,0.8853695035097711,0.8898668512670054,0.9040711390548113,0.9116466341587364,0.945916027940024,0.9815402335920029,0.9975658548768722,0.9841482880775292,0.9278622434914103,0.8365476006296158,0.7510446654002965,0.7695521561088126,0.8658717972235812,0.9257899325524357,0.9711619764292543,0.9664857235348006,0.9226494586998948,0.8580213705097646,0.7814844551494917,0.693548507198507,0.5774669735855076,0.46404036752121813,0.37413497778366356,0.29304946119640274,0.18782380027112833,0.19595785655464493,0.30520685652771773,0.4177276839924273,0.5280515329189255,0.635718776193384,0.7411658810216704,0.8355882524435092,0.9167809833978766,0.9184662354277289,0.9088520330128911,0.8916434161998681,0.8571933307966884,0.8291308681307488,0.8131698035370976,0.8271410618920592,0.833341982995091,0.8582584641850919,0.8675228642474235,0.868990639056149,0.875641551618457,0.8696957329322221,0.8689146497532345,0.8664236776482301,0.862466500811736,0.8223627564299831,0.7547012272338063,0.7011281384077108,0.6877569354164876,0.748896657442276,0.8160976329761591,0.8813864393623825,0.9144607810374707,0.8570461495257602,0.7808734256525232,0.6977302267297221,0.5746790696912853,0.46041770404254034,0.3421240775367158,0.2256329500032912,0.1492334633202992,0.21609425874804655,0.32766484451941746,0.4428996094403552,0.5576720374453137,0.6647385715167524,0.7689447093102046,0.857552054269509,0.9092436315455421,0.9169024474735004,0.8960974917007696,0.8724268248562637,0.8585353649198564,0.8225244454872329,0.8043376564304858,0.7991466548896287,0.803201118472979,0.8360049083018337,0.8433887565823426,0.8507708760079646,0.8443446387810587,0.8432968744644489,0.8459880359299041,0.8532523743591947,0.8522030852460665,0.8397596039770079,0.7852064646080343,0.7162080216411741,0.6999860526394359,0.7718604013505646,0.8341240208716241,0.889875412059844,0.91038157061866,0.8420477695755055,0.757133320859007,0.6675782363808334,0.551777835925626,0.43224892250293356,0.3151071066787292,0.20508013387380064,0.16815494065959902,0.26263286507067285,0.3879827104187661,0.5011214661447982,0.6101601070252638,0.7129405536915487,0.8113282935154844,0.8776019238579225,0.9006076059692316,0.8874899911807193,0.8619251834482133,0.8268680289565795,0.7893017648678917,0.771008984365948,0.782386012146624,0.79152093143139,0.8110292574693179,0.8383855065386134,0.8288255959549629,0.8270943950645764,0.8152149901907393,0.8359215431179856,0.8515220129585961,0.8398519382386316,0.7974735149582912,0.7399293770374671,0.6909331988211589,0.7006207093821195,0.7710546869819259,0.8211808778468495,0.8608961587511228,0.8248682380189183,0.7486498401187673,0.6428714941039617,0.5276485811557765,0.4068192397292054,0.2899282295603145,0.16650514709964792,0.0674411286309402,0.0,0.04717152160358973,0.1642576943841032,0.27941458712161094,0.3935683613588439,0.5126703719649486,0.626515193146354,0.7313114918908967,0.8152901039066807,0.8696913724413515,0.9166296784662071,0.9219963034330307,0.882661714482468,PM
0.6799329792136908,0.6039577536874934,0.5186271637995874,0.4240873428736145,0.4404072376920827,0.5424616921489602,0.6414600738512857,0.7413323263130007,0.840043212885804,0.8975938768841527,0.8500184946621101,0.7646823557199356,0.7211539323943879,0.6842429988620238,0.6327569937283426,0.6358963166610392,0.690057151174974,0.7087972399446898,0.7134211726996587,0.7141167581830807,0.7039327810005769,0.695648591510057,0.6909767764927743,0.736988368696333,0.7800764082161658,0.8061585448453068,0.8072293391616079,0.7972067842991983,0.7904162506559038,0.7648598475433965,0.6920300844145995,0.6094867994439082,0.5298416899965526,0.5092768587965593,0.601647072272071,0.707484576367108,0.8127639331952217,0.906786096996919,0.9493166935174921,0.8877168338603008,0.8096222500342949,0.7708804704297478,0.7279629102167962,0.6813724929522318,0.6965247992922554,0.7428289793709497,0.7425061952674736,0.7403056787502378,0.7336335442206574,0.716634749162252,0.6768253252886518,0.6811208478859168,0.7303937315062463,0.78162129511796,0.827501119682778,0.8441283796730821,0.8525679065031901,0.8348571914109553,0.7827249650056693,0.6979599155808345,0.633010900926344,0.6637674509726044,0.754235349178775,0.8426417769023404,0.9364372284726634,0.9999999999999998,0.9483064227580582,0.8653197715001684,0.8186007449567818,0.7741182445138148,0.7202264259199629,0.6831841561458052,0.7151683650665295,0.7630375932660252,0.8018862023575071,0.7939505647212572,0.7733129154879264,0.7450826791936096,0.7013255275666619,0.6788333205982886,0.7142413552239517,0.748032395030519,0.7679248217989267,0.7825736812205404,0.7824644316104206,0.748349626701313,0.680591492251039,0.597215793211096,0.5179386788527451,0.44061551162483203,0.4830075601115684,0.5874309816105387,0.6930237319556449,0.7913633766778656,0.8858475247952982,0.919816532516591,0.8516683595417172,0.7650536209972458,0.7168186473501035,0.688183619968809,0.6495019862712368,0.6676266267912305,0.6973201776522744,0.700955596917747,0.7001878512761899,0.6953808905835277,0.6896050817972166,0.6626504961542288,0.673314051077819,0.6937133124998713,0.7054495347906504,0.729839420406184,0.7466035145676531,0.7327838372928406,0.6824055505206224,0.6067653990735524,0.5507071798815968,0.4688887870794527,0.3863145877812464,0.38430187193918974,0.4635562132022517,0.5637984392882907,0.6191091149401566,0.6700592650402128,0.6826750685864937,0.6719651135365969,0.6561807224717426,0.6369615734458873,0.611636268411692,0.5913194757665552,0.6240805444771984,0.6461136213715386,0.6445664435783505,0.6376444266198356,0.6397997729686458,0.6311558099028065,0.5935109357573494,0.603944728052934,0.6498837291613959,0.6674100796545177,0.6904867420474943,0.6482752428202618,0.5456937649738618,0.4426150201893344,0.3461055348485149,0.24204907341918425,0.15575162405125043,0.06907852196242747,0.0,0.04714474052270412,0.14371292577662342,0.24889993402748312,0.3466996798490769,0.4464143588316334,0.5309800372561486,0.6139966167170983,0.6923734365726191,0.7326944378183631,0.7302102656211507,0.7075494817252335,0.6835624713861159,0.6402261436078678,0.61740076547475,0.6547213904091749,0.6987088606391338,0.723474836573794,0.7500926657352796,0.7492101909533921,0.7034524054845315,0.6625318508137712,0.6300069753193622,0.6535256656910755,0.7064496253890169,0.7528660706708095,0.7941138868511832,0.8069250009074984,0.7167120312076782,0.6115481192094985,0.5145936747566509,0.4122092875877088,0.3083672629619556,0.21280704603620904,0.13910554273145626,0.17651065115896536,0.2736229034363655,0.3765112220812681,0.4730683074218063,0.5762603012528131,0.6564936326228181,0.7247794874687619,0.7835416918961629,0.7995608416420652,0.7889080205357442,0.751752828605212,0.6978194730026634,0.6650605203039903,0.6206100293467369,0.6266252567203068,0.6717236776916964,0.6937464416794927,0.6924421575835613,0.6931351377319641,0.6744410543487793,0.6331302392639884,0.6334692250918843,0.681000490488137,0.7208964726699352,0.7507005845619388,0.7815682631901921,0.7057383642337685,0.6077391476462533,0.506944129318563,0.40226941001195193,0.30595113367976223,0.20255250709634964,0.1040529042008691,0.0665030073328221,0.1417564982615973,0.24373466890691708,0.3401895212327626,0.44216933822414206,0.5325254932502423,0.6133497130781806,0.6947519568290492,0.741350158772087,0.7437483146628134,0.7521178910989594,0.7434397260781231,0.7078102864781572,0.65403761743247,0.643927639726338,0.6517680170081575,0.6651929592145465,0.6706372545232042,0.6590595603958993,0.6302043686867409,0.5811058132355849,0.579003179684743,0.6278709914964156,0.6687567798112364,0.6942140405575816,0.7134301607135536,0.629283057450883,0.5309593532440058,0.4303828681473769,0.32719186723961524,0.2307612501542744,0.12707123529748499,0.03968431696842467,0.04368482754731473,0.13849052506304949,0.23802527192214185,0.33737462035134347,0.4423956724235434,0.5285170725650012,PM
0.9281726962215711,0.9252551909970492,0.9470920767630968,0.9558249335984836,0.9752532575928066,0.9850291260693305,0.9412274675472583,0.8769839930101355,0.7938155020182411,0.701197393271884,0.6024926017243883,0.5031179119533411,0.40256644303865663,0.30848373746786883,0.30681559792291946,0.4095144509630535,0.5192265827826583,0.6248643665670204,0.7226285211870729,0.8190873437410904,0.9101129586432433,0.9511909421251059,0.932572758702531,0.8637892767671596,0.7930797004564991,0.803306739201747,0.8644573672819846,0.9184437773558805,0.9190469047735546,0.9253984635454118,0.9253792046852136,0.9162151284471354,0.9019427410447962,0.9114526908678395,0.9087270395061324,0.907787287517543,0.9151487311326187,0.9049287887587156,0.9319511667485365,0.9664503771639152,0.966402010830361,0.9482239295135391,0.9192100231821483,0.9240949191071395,0.9316846532955254,0.9495999629721221,0.9508117907565974,0.9185961689916398,0.8477637292533484,0.7604961260384768,0.6676655622812482,0.5715425027602952,0.4722953515042918,0.3728635067238637,0.31443978245595927,0.387719869395345,0.4956073999310664,0.6040653771046434,0.7027523140814007,0.7999807536147747,0.8904419328676494,0.9478864166866292,0.9432094291151945,0.8801650968995149,0.814590538656895,0.7985322431898063,0.8545883955423013,0.9040897687455818,0.9240207873015387,0.9246105479111484,0.9118047573560473,0.9063338129555185,0.8953084240385536,0.8972239696817041,0.9057385652081869,0.901817416619247,0.910871243639066,0.9421619150818561,0.9706370541779177,1.0,0.9893075048457782,0.9537861508199743,0.9518920340299846,0.9575442210985519,0.9722742928324597,0.9755562548399568,0.9810328937858936,0.9670946684305037,0.9334370344225427,0.85946839180155,0.7761279258855871,0.6809312296909265,0.5816163226073843,0.48215680295114804,0.39391117887815286,0.40955401754475673,0.5145300529071284,0.6227104125436664,0.718601517004815,0.8119065588719394,0.9040684879093339,0.9514320286274107,0.9291663426324965,0.8621906836886262,0.7975932275339104,0.7923436532363017,0.856149267287734,0.9014453742372908,0.931669045766955,0.9229423902583518,0.9113447711056151,0.9085598885993327,0.8929574580143145,0.887571256048592,0.8941214090816643,0.8912952926779343,0.9139354139067599,0.9331869993490693,0.9834005328337874,0.9874960315214767,0.9574880161812178,0.9407303463165482,0.925159491915152,0.8893026244192446,0.8630188220409503,0.8637968830829665,0.8801740089255139,0.8991780048564872,0.8792249663281728,0.8349276416236227,0.8315150093048844,0.8262027411333817,0.8223450666425363,0.8353541270108158,0.8474868461914999,0.8513349898181359,0.8607914025530512,0.8639096517791396,0.8293623299338844,0.767103123362622,0.7247042180282768,0.7480286174727593,0.8260203090449716,0.8794762999261043,0.833402398236466,0.7535763923054071,0.6688124391298822,0.5710915263991634,0.4699254268881814,0.3684415428760477,0.2694078223785501,0.1661823726815561,0.07787077770930595,0.08461350025666547,0.17817217120683115,0.26064728609600407,0.3553387846981748,0.4537460685041792,0.5522411572314709,0.6543375120518911,0.7494862832049236,0.8376008600844753,0.9022392410035462,0.9083992181472462,0.9136939534561797,0.8979097726056526,0.8884525228353581,0.8966877610697144,0.9308924718351728,0.9336767065680034,0.8923178056675645,0.857247564922551,0.8472001585512623,0.8452592652968054,0.8284501336804531,0.8282074348681046,0.8396309968692774,0.8535659299477292,0.8517979156486102,0.8660180225123519,0.8575624106773239,0.8045580412518771,0.7446813495254427,0.7105958518056368,0.7541032159026853,0.8264468059206727,0.8684252153304848,0.8071685423437094,0.7107412267227895,0.6141025027442901,0.5118393137199333,0.41173025069339086,0.3072173405171408,0.2066168048563477,0.10272472001962085,0.016863581402482675,0.03126818531747699,0.12900676049487902,0.22871416255589105,0.3358916253155275,0.43502963370072956,0.538252181310864,0.6340855828188681,0.7234852179013296,0.8154128523366295,0.8800079243856174,0.897329045474824,0.8875626640190881,0.8761421711007675,0.8617405599798333,0.860751376281057,0.8890583947040818,0.9162229606174801,0.9040408230887271,0.8706264662099001,0.8518700373263837,0.8485254750097191,0.844124880685118,0.8476437725541612,0.8469578147273644,0.8579586601220339,0.8652989028622295,0.8613213835764446,0.8666212063519487,0.8195019467053775,0.7592306446492465,0.721084248105428,0.7587847044730291,0.8330136726899853,0.8841929493132992,0.8357160729103885,0.7411263783383637,0.6407890328074366,0.5416194889686055,0.43507171207007733,0.33591401643824126,0.2314398079605111,0.13226053147913452,0.036381360158103115,0.0,0.07462310201968547,0.17866541630724164,0.28367350943436653,0.38376982326608067,0.48319342504566865,0.5809734110613305,0.6815979102537679,0.7748741276486895,0.8616203124493,0.9123089201816996,0.8996894412062422,0.8943444247026386,0.8847362840678641,0.8626627748666964,0.8757533354739979,PM
0.8682826138119968,0.8593461289826632,0.8397030907539424,0.8109700817564145,0.7542036767334466,0.6951129856007738,0.7023976549705966,0.7645790997792483,0.8252332121599948,0.863102666500182,0.8839450482922315,0.8546181116748026,0.7841003950116521,0.6998710797608265,0.6055219714235938,0.513049750269762,0.41920947302393374,0.4005585561458378,0.48829203049152325,0.5859611258176947,0.6784428296113338,0.7767809515635233,0.8736200452695313,0.9567032022149402,0.970750456834,0.9150697777213646,0.8648078925058347,0.8156405863149896,0.8383269116727579,0.8705215409901526,0.8897095026451267,0.8892133768098553,0.8744303653623722,0.845496376145864,0.7961351879612337,0.7418013142425739,0.7467836897656299,0.8035818314149934,0.8602986491242162,0.8978891328951439,0.9148486496420443,0.882183775086657,0.8097906946215081,0.7200742454946079,0.628008414609944,0.5389475157207415,0.5474027634161562,0.6387008105535195,0.731026433608134,0.8253380712199772,0.9163653657732225,0.9969343954115684,1.0,0.938125668319288,0.8867345797518342,0.8292034453531072,0.8439170852003544,0.8850100898469806,0.8946956166212756,0.8908696179004643,0.8707235201567456,0.8597669792049052,0.8127440025049026,0.7544215177263123,0.735827042287656,0.7891528628091478,0.8416575428583144,0.8833920361088883,0.9067894741282116,0.8929299425816011,0.8249814850755695,0.7377523011069098,0.6441588715394619,0.5536359988041126,0.5181813143945575,0.5975658958163512,0.6928370559409134,0.7863342894601959,0.8784089980818828,0.9641010791800388,0.9908153200617145,0.935895388600362,0.8856599984658637,0.8278877612317803,0.8381110563801368,0.8735288335989453,0.8743102300326513,0.8720237915856692,0.865355188429741,0.8463169658772915,0.8113851435585995,0.7556190585536935,0.7069606355128675,0.7344891053680545,0.7962203596277233,0.8485388914743082,0.8822367761209213,0.8926964107129023,0.847287096174056,0.7699654844058912,0.6790492221908193,0.5861973629786468,0.49251796035076145,0.47680414809032956,0.5596408024760935,0.6574545278374779,0.7498210768137985,0.8429838852313047,0.9358589672247548,0.9887612311125182,0.9432313753689714,0.889332956160755,0.8371137266741018,0.8139339511604073,0.813164361344652,0.7774291193176821,0.7979359955087717,0.854702675349247,0.8927031743963276,0.845069613153705,0.7529473800255342,0.6578929470368968,0.5637857510384392,0.4646428345305693,0.3652902153076878,0.2662027937376641,0.17240952090385042,0.07728398255198698,0.005045649224931892,0.041426121395264026,0.1341852148530185,0.22733098019462883,0.32611866963973224,0.4209355547982503,0.5154616931557274,0.610202674622015,0.7022536443221719,0.7809686180421425,0.847377757687257,0.854168564305364,0.8197834574672735,0.7659398457592992,0.7018857419823243,0.6613597718190392,0.6944966621758106,0.7554953712435533,0.8045466304021325,0.8284442526055604,0.8367346620169049,0.8375060545707564,0.8376050175126872,0.8099088657224578,0.7826131053717498,0.8263790718525865,0.882072060515831,0.883731820296102,0.8058686783497899,0.7104328290055857,0.6174221348318052,0.521238686562401,0.4281553743437989,0.3317513589359722,0.23737287176180755,0.14312588129829806,0.07947853135734384,0.12988341144741578,0.22360851649950986,0.31962109226342084,0.4130726676409773,0.5120816373938561,0.6112254868595035,0.7050749486730896,0.7930346145811744,0.8607801562567774,0.8613597860165234,0.8296076205931773,0.77661833245641,0.7187251014471518,0.6890753303471351,0.7333262943658008,0.7919382309089933,0.8250509090167679,0.8409000363355095,0.8634614776587877,0.8599766190475724,0.8485155570121505,0.8004455248652336,0.7796515570733871,0.8290851152086156,0.8891958670035123,0.8984825993708416,0.8218728182847819,0.7235039280287139,0.6307229207891605,0.5340513406708756,0.44077753307131906,0.34446627551476006,0.24771207584792587,0.16047829717823847,0.14701903263196459,0.22726811561187055,0.31545044222066254,0.3986372972702339,0.49497244193645384,0.5920519448166317,0.6846345806295757,0.7779043734999094,0.8583735299458319,0.8841682770944472,0.8581415477154963,0.8106658270413651,0.7510541435073415,0.6993210111199284,0.7024046656830834,0.7588602579656314,0.8133681547141602,0.8432773480058411,0.8582623883540461,0.8475998668996478,0.8311800174058936,0.7951397849943711,0.7687727296741242,0.8112054074328037,0.8706204499666035,0.8672527445414795,0.7838513721812195,0.6914838972220869,0.5947184753780812,0.5022414583211723,0.40440540613541986,0.31143465458552666,0.2146712893478322,0.11535960270623413,0.021569881012926895,0.0,0.06639683130082097,0.15983581512724432,0.25634955848302576,0.3494226019606752,0.4472218701039916,0.5396547856005902,0.6354944954274993,0.7254858470934096,0.8075977171804856,0.848921088496069,0.8294504118942467,0.7842520988743495,0.7163860653835459,0.6579515337315218,0.6499638634772358,0.707008524244972,0.7681084086207828,0.8051723170375342,0.8275619200123061,0.8376160183367516,PM
0.8835688457210652,0.8833660438460095,0.8853778084695428,0.8819260358304352,0.878998174596754,0.8769345612219689,0.8700098766297354,0.8780887103188592,0.902696146907665,0.9302351102393064,0.9468268270907648,0.9564414355363872,0.9605985029342986,0.966446973720612,0.9547311214330901,0.9170765627903213,0.8509904150468758,0.7802551032938904,0.7166152351755103,0.6441469943243611,0.5624120845771924,0.48642815057344946,0.4068338548350242,0.33095774227941466,0.3368411610178187,0.41473614189012,0.49255635552851784,0.5700880846584916,0.6492565363072155,0.7254915391555216,0.8072220984440487,0.8829494531195529,0.9576826669794941,1.0,0.9609983970426202,0.9315021647281824,0.9008188055721803,0.8539188086112811,0.8403111227030485,0.8650591028491116,0.8967492955606035,0.9021044714449972,0.8989231227682911,0.9000431412334803,0.8978213759593888,0.8963940434637995,0.8910631815354845,0.8919982300111083,0.8856693960316694,0.8767609537376096,0.8685287260757987,0.8643277476380814,0.8590835593594147,0.8701771204908421,0.8907706308051561,0.9177040445976877,0.9335443103816946,0.9439745439943846,0.9456561808473524,0.9536959253175222,0.944076410368594,0.9217288038962611,0.8679827085753679,0.7959067032048294,0.7199158939050442,0.6429930374543434,0.567908306838519,0.48674916574457716,0.4042293449343387,0.3260260730064669,0.29276292119321157,0.35637107888886,0.43144700139954406,0.5127193746731064,0.5932637640311532,0.6595083200371471,0.7247940601680282,0.7830489736114609,0.8479554715149106,0.9211894820334577,0.9760869144901044,0.9529669104126862,0.9170376181133767,0.8875145955567462,0.8425482347800469,0.8171410938294005,0.8362110174679486,0.8724149431614515,0.882946380356577,0.8808541058318359,0.8828823205387947,0.8847643465725658,0.8903860778707368,0.88765704738497,0.882334128014247,0.8814020804315735,0.8835962998431951,0.8755046676217221,0.8782820640242325,0.873186276153343,0.8879635334919959,0.9099811488817581,0.9289475429285704,0.9460569722734703,0.9489929934880882,0.9537615597514805,0.9523740728765947,0.9305247799852835,0.8824302031773769,0.8182325678684826,0.7693904776372481,0.70852192285311,0.6295937665649106,0.5752167387150807,0.5097753162349864,0.42881671470417715,0.34849635827992087,0.329460870699244,0.40186016589700657,0.45023872365825934,0.40815253375031013,0.3326880591657425,0.25143897893197964,0.17624112225169986,0.09727650895220885,0.02493670968317807,0.0,0.058698579694050124,0.13945196874991517,0.21557616496933962,0.295007886241451,0.37754606583924655,0.4594407435983846,0.5349156895698238,0.6143865314288094,0.689631280871548,0.7668733083302551,0.8378961206448247,0.8910687060500116,0.898580396813676,0.8843287545704525,0.8992536483864323,0.8987648074530504,0.8875738157077723,0.8678407028175589,0.8498643864468348,0.8245347116092095,0.8177747129507468,0.8229023179695013,0.8336251326824972,0.8303191766638053,0.8196350928229735,0.8391298077537778,0.8425604840280051,0.8440585388532945,0.8489631479666148,0.8408195288926937,0.8468627909374181,0.8425528232904581,0.8446732519091419,0.8396889262582022,0.8081117756483435,0.7758453730456888,0.7619969271410384,0.7965857256966843,0.8442460163571882,0.8750818715095351,0.8707897223123865,0.8169462485646769,0.7415292078729782,0.6618751645213198,0.5818164606786412,0.5061569571174337,0.42468602135961653,0.3489683525587607,0.2692059285454328,0.1923904423481867,0.11688225279952102,0.04863582844524317,0.042873461855335915,0.10929935238435173,0.19109746465502686,0.2736674350610303,0.3562383062994928,0.4387133623001508,0.5167503406434865,0.5941091314021255,0.6750107882133499,0.7476849808632721,0.816968819487654,0.8746130370023321,0.8981473441070255,0.8986105165512864,0.893371853312103,0.8944498735160614,0.8729390102934064,0.8534381426704146,0.8365462365163424,0.8209538446480423,0.8229023864288191,0.8241038250709724,0.8292429329606713,0.8363551495710405,0.8405891588524409,0.8486258389773894,0.8492763309719124,0.853775329473052,0.8552154675035059,0.8538456766993826,0.8445922137110439,0.8555334889570997,0.8496555113230472,0.8129016922314826,0.7887325601477567,0.803500255585624,0.8457785083353245,0.8870315312963174,0.9049522559484259,0.8867978222352849,0.8174426623867622,0.7384169096964232,0.6558906616003627,0.5733218552751468,0.4917892109860357,0.4165758496341342,0.33562012224331983,0.2561350368289922,0.18025463496511562,0.10492348169351573,0.06314920373614197,0.10514164747269894,0.18243939102579865,0.2578057569334117,0.33958899240084695,0.42095199490223967,0.49612281995447993,0.5773192691855048,0.6598849371701064,0.7416807129656516,0.8158572467072064,0.8801409290383165,0.9161028359122351,0.9101945532943708,0.9103251028133689,0.9049039817794792,0.8901301970102636,0.8688615179691345,0.8462415207266,0.8321938261658012,0.8179482721040506,0.823327512236301,0.8317485752747525,0.826889426670799,0.835077517661751,0.8345017819686841,PM
0.7839987508939665,0.6866989039325682,0.5903256794516731,0.5988009136266563,0.6902360516894297,0.7715103869286364,0.8426601208051481,0.9051533498502375,0.9402126915952134,0.989582694771459,0.9999999999999996,0.9505124294484442,0.8542903118198804,0.7491981072009666,0.7533931412627797,0.8354585164601951,0.938227360687192,0.9513493607670198,0.9877485406096844,0.9252529151308155,0.8488268353299433,0.7689374725915168,0.6735669979496977,0.6236177523581659,0.6913908403215276,0.7586886785506244,0.7973445483278314,0.8026038046120196,0.7998409354958933,0.8012801848125739,0.7801727896047725,0.7735725757216518,0.7323084521568552,0.6660851867995272,0.5787156376084783,0.4940361755490712,0.4435719511871441,0.504758768110817,0.6063414677989276,0.6841334363296467,0.7338945433299817,0.7578938232368801,0.7890469820460582,0.8045218958097524,0.7736764080768705,0.6995524499068808,0.6112295230022249,0.6196698512115559,0.6998019776453384,0.7749750348716709,0.8206071948497935,0.7977655204434089,0.7344001820148605,0.6321166869992871,0.5659345612918449,0.5590971072394297,0.6510263490482475,0.7169315836942709,0.743572719274201,0.7581212666710173,0.7770674602277725,0.7833235566331456,0.7564222172203219,0.6985257543343857,0.7246907432747602,0.695707346160273,0.6302488166602997,0.677416412968832,0.7733730035275284,0.8506679931345684,0.9197388161702071,0.9689579752946575,0.9622270225699174,0.9677678819713553,0.9550755864773293,0.8984941575296479,0.7789774443730164,0.7228356905921465,0.7954734785110156,0.9058146327399199,0.9501387580304619,0.9424000063006637,0.894615881690322,0.8096767978129829,0.7233380229915256,0.6840641021158089,0.7436521116556629,0.844841891421455,0.9053635231350703,0.9248913736442508,0.9309766104238997,0.9109386259238517,0.9646703366059941,0.9477094426087382,0.9247114044685367,0.8783355421322079,0.8095489989826006,0.7247177045832589,0.6286887770200731,0.5313781606953731,0.5143251348094826,0.5778962875735876,0.6458353670655339,0.7010918023367556,0.7514285324192334,0.7880201958785631,0.8208940409463126,0.8250505329543043,0.7611343005385014,0.6540520003036261,0.6487150007644975,0.7105988678892206,0.7673105281893062,0.8086582890724165,0.8228985095637982,0.7498283101573411,0.6615157933898392,0.5832633808705681,0.5783221904657672,0.5534034747523342,0.46648859424841094,0.3374295527551019,0.16643541938949769,0.02505347635798927,0.0006047075627368947,0.07974357323579584,0.24519049045423236,0.39630146737099237,0.46435538050368086,0.3771413183493997,0.20691732137731877,0.04930024221008855,0.0,0.06911492333384794,0.2325303026630947,0.40158730940745757,0.5040465012503161,0.558035922271594,0.6378644848809611,0.681795591747107,0.6289414524974091,0.532841876852991,0.4572662815400119,0.4063218157485262,0.4777697860280701,0.591187567426156,0.6717890914087534,0.653062358799612,0.6307402751069193,0.5848589591792401,0.5277739432542012,0.498680728480672,0.43945900961833084,0.3772711966101059,0.3824414655761852,0.4576682157211862,0.5691443051516605,0.6503547248163319,0.72391203827237,0.7760398530208836,0.7963298690337166,0.7766182877170764,0.7898634056622549,0.8050075046224943,0.7651240569229656,0.6629665770744304,0.5816732808500116,0.5349036333778892,0.5899013029447047,0.6937421282292147,0.7780600912524522,0.8339965538068026,0.8211693659793569,0.7232218532906916,0.6193169601925388,0.5227940960319937,0.5488224465181308,0.6522459350127057,0.7835871361429079,0.8574199744131996,0.8756394663211791,0.8617906353302689,0.8538221391624599,0.7942626178495442,0.7242164284884045,0.6393176548081709,0.5424217345178195,0.5144807000162559,0.5496522636280603,0.5833687214928163,0.6227372810425806,0.6724283417121,0.6776499992294842,0.664943294979699,0.6507551591341527,0.6369987559614452,0.6205353670835039,0.5703143640328663,0.47507780079125395,0.4218965641749546,0.4566170820909563,0.5181355409415818,0.6292932065145753,0.6924186062436646,0.684569941696838,0.6101002230064245,0.5035748352487608,0.45425380460463716,0.5186062795856601,0.6175247814879401,0.6896889519778617,0.6959708251155825,0.6456710991294421,0.6473161928213913,0.6285847002491036,0.5698227897497863,0.4917133478402591,0.3974628068350845,0.31487513224024744,0.3077387761089816,0.3766744707629077,0.45135134597049076,0.5605903838651591,0.6280767238407763,0.6569004923939556,0.6763225940409732,0.6994492278876705,0.7073591832541699,0.7000605824580837,0.6835737200529244,0.6100588260353423,0.5283873429633226,0.4535552180508975,0.509249476574039,0.5973983724031036,0.6868949828716171,0.7663764034775515,0.8103356877097405,0.7735653539823457,0.6781608641052173,0.6030562615009267,0.5704429617290914,0.6648586048802945,0.7706808234096507,0.8592466433225812,0.8395170070896474,0.8228881728600013,0.7844993296758962,0.7302301721612339,0.6611013037968223,0.575104617426986,0.4650616655938262,0.4471408377215602,0.505261085959996,0.5976151495655624,PM
0.6113809675431514,0.567744451172028,0.5240602476789533,0.5433623982202338,0.5994013841424373,0.660140709717032,0.67442278654952,0.6721295379591004,0.6688921918505919,0.6845520713286812,0.7110563278282869,0.7400654773104445,0.7183182299530868,0.6060590984893168,0.48109167352082194,0.3551869325694432,0.25365673097613195,0.31731943080998715,0.4475745682347614,0.5765884548234768,0.7071065158378613,0.8339728639176673,0.924284504666641,0.8758538649346401,0.7628653500418165,0.6754960362218054,0.6621849977498244,0.6483528516773758,0.5848809657402803,0.4874189510282392,0.42352006580793766,0.48486599182688694,0.5546868267426595,0.6057836406263144,0.6113013918162071,0.601744817471976,0.6048734759314844,0.6665367557470052,0.7181825215263289,0.6996565784039901,0.6536315403376518,0.6591862963644255,0.6789433603958352,0.7061205878147119,0.7329334299093975,0.7086262884918013,0.608876757166326,0.4842096840316681,0.3617166836481469,0.3259354139170987,0.44452996854358995,0.5705190375901403,0.7056804330679971,0.8246888507762891,0.8623302345728203,0.782165048385739,0.6774548663496791,0.630307690765846,0.6175355565057021,0.5736923575113262,0.4852605893251649,0.47520903160972905,0.5620614008771279,0.629734832396684,0.6645583320567017,0.6311382428931682,0.604479608278889,0.6328788426032643,0.7002104686923047,0.7369275896594805,0.7404857547216848,0.7652278464475075,0.7600049802067406,0.7390453636707153,0.7051939221725076,0.7248708329331306,0.7020976551385516,0.5911674881595084,0.46555284341571257,0.3532441078558892,0.37768047131708116,0.5006516823702492,0.634913437491643,0.7612046799478933,0.890512444185839,1.0,0.979608914761235,0.8712033657808571,0.7542197492034455,0.6574719240955904,0.6213878304279787,0.6048601046400384,0.542432594217316,0.4587625633899375,0.4711785055139539,0.5513345193889494,0.6153524697336175,0.6383519355900118,0.5886694485690547,0.5393588237591684,0.5527483380924649,0.6177267574240699,0.6780581298583459,0.6808225277964906,0.6511723454742198,0.6329298558552021,0.649384026781266,0.6877674344765321,0.7248961201960529,0.7468606893368692,0.6645940913029253,0.5416289116175648,0.4152850369461194,0.3830326353966145,0.49595809774317834,0.6265733173998487,0.7655766116882257,0.8982846387267172,0.9770735893260025,0.9212619019195758,0.8135461243324338,0.7037972665869092,0.6318688537336494,0.5973354274324127,0.5589273644785822,0.5225321127226414,0.5431403086842894,0.5787838029045571,0.6391719048126561,0.7155597642391838,0.6591650229586588,0.5308546229434254,0.4048412311094971,0.27344122229063217,0.14711043084476394,0.03092236904648571,0.05357533942177106,0.16929713480240816,0.2870098659582383,0.39264166690536983,0.515087120019631,0.6367726160266445,0.6592534488079567,0.6223103570876853,0.5947723415544512,0.5808471424545791,0.5980377301114976,0.6305988540917857,0.608645720435955,0.5397106586789113,0.48601894183443495,0.4714657310452841,0.5109818413710365,0.5662630713699186,0.5417625238474697,0.46231215171479256,0.39234490503160613,0.3787344269885011,0.4519138686097657,0.5376828475975493,0.5684456168578871,0.5795707264514589,0.6293576762987536,0.7315035210371645,0.7837896492162764,0.6747875034107249,0.5477033590538549,0.4137518780992435,0.27597798388538397,0.15024526312835818,0.031956213949495105,0.01345338054583678,0.12115399148432893,0.24622723491539222,0.3721149531144379,0.4981344110238557,0.616221192973692,0.6510115798087956,0.6646045702130858,0.6957538629235778,0.706670150410567,0.6641015889921364,0.6778537428804521,0.6730087870533752,0.6141811367443633,0.5504768353168732,0.5488605837524156,0.5731985148839889,0.5942922025496218,0.5415307369120588,0.4549630808665355,0.39166254393197253,0.41086342406779686,0.5024302170328352,0.5686062343408289,0.577371351691836,0.6008723143807297,0.6657201592764874,0.5948884623538921,0.45737457764351364,0.31928939344813045,0.19336159821722543,0.0715098420736826,0.0,0.07102069302056435,0.1938181691983245,0.3195873809454124,0.44499488853849156,0.5700977022238858,0.662238266183222,0.6565003871889457,0.6216965555268983,0.6057113252671118,0.5975870163851655,0.6268261669603148,0.6472771132650799,0.5942408368949308,0.5359183209663199,0.533090781300976,0.5538431188405646,0.529630916593105,0.4680723728209002,0.3870067650258404,0.33590958800563664,0.3848555369504787,0.4807974492517486,0.5793661168534068,0.6091612553698442,0.6012825629092151,0.6512269044195813,0.7316956195562003,0.6622246266038214,0.5243797372291361,0.3903335428528507,0.2634552865066082,0.1365691728713614,0.028210953740985367,0.016552395189592506,0.12426561945395109,0.25352445684165037,0.3788654747774354,0.505415586981067,0.6288830022977212,0.6678335825152772,0.6424961274155976,0.6120063662283903,0.6106196356271041,0.6180529326475379,0.6193261826336558,0.6016098060612314,0.5358441599077635,0.4812485023410198,0.4712670658115563,0.5041701200939466,0.546676688761496,PM
0.3104846971034938,0.3190644467275048,0.3729065021767326,0.4609153566925128,0.5764868792708251,0.6988415037639055,0.819173821586181,0.9286914976026508,0.9841939006499172,0.9124847877236983,0.7975497016387556,0.6675395072595478,0.5480445025282608,0.4817560166175521,0.5498226846074736,0.5123087417769927,0.4035179076661839,0.30709159099033334,0.28869895987735417,0.27430834700427287,0.23688839241019854,0.18474451794298963,0.13330087354867182,0.12659041317698838,0.19302147954788307,0.24322796682333303,0.2660491072815736,0.26748633596497706,0.26748688405235255,0.26748688405235344,0.26748688405235344,0.26747082184538495,0.263005544988947,0.24733178192978578,0.24018128381815318,0.2147034824454952,0.17624386126395475,0.19981155034504017,0.2551979450287791,0.30252219695935834,0.3424668005574927,0.34845761112012363,0.3278020328336204,0.3117874811746768,0.32963241856700565,0.3938022396984002,0.4812557261794872,0.5999952705454765,0.7224463737689097,0.8404990798874743,0.9486453088589513,0.9784171600114839,0.8882103334226383,0.7715147392065247,0.6443955830836741,0.5373556712420187,0.5522735181701788,0.5609647844956549,0.4611883841835649,0.3465171377377345,0.2917912500361295,0.288790640883815,0.2752112494599217,0.2218182889386764,0.16216099644933912,0.12544559302093417,0.17442206981595243,0.2420164430168299,0.28517560339605597,0.2879536991211258,0.2728556716069077,0.26769633194659237,0.2777924049408864,0.291526157996306,0.2983572837023063,0.2844227710872729,0.2625537024954503,0.22812543852321854,0.19002986009762912,0.14285643730664566,0.12034051881072072,0.14500118076921442,0.21479863381262776,0.2781856164410348,0.3092958539772548,0.2976409952124506,0.26144454634403047,0.29602485461498373,0.31548999248452025,0.36176809326448867,0.4476616123168933,0.5476336555640549,0.6768957029737774,0.8008192730636892,0.9152109033651699,1.0000000000000004,0.9723868548536028,0.8602313945302131,0.7416769829880798,0.6139162751396454,0.5953499473850892,0.6339022864768826,0.5466048031636905,0.4304753770220171,0.3460372188397822,0.3289022438963318,0.30010892440895587,0.25659125069994815,0.19124220305534,0.1257999302516617,0.09648455795036259,0.1606762730749156,0.24267522275659248,0.30170661765503937,0.3103729163849711,0.3046202289954443,0.2930895573163612,0.31711180482831214,0.32057644618850345,0.3102842000835011,0.29793968092716083,0.2880065191179204,0.28034858316110833,0.26559059086269343,0.23098476592168105,0.21022826171148346,0.20096242986135238,0.14606555256779696,0.14439861990613556,0.17831447252236998,0.21229630645355702,0.22115771195615608,0.23636641334630726,0.24385355524451313,0.25802437496527864,0.24916387434405207,0.238067460118494,0.24963115773903377,0.24661069732239982,0.21859714472149872,0.1455297196698364,0.06469327995182583,0.0,0.008825709824329842,0.07383944662859321,0.13866292597756935,0.20956896814590342,0.24725849968840974,0.26436860298063847,0.24848663579605423,0.29750295176706265,0.3266048553821612,0.22077620469770487,0.2033756688623809,0.30500026051904827,0.4345309255434566,0.552177890069169,0.6747498471773006,0.6694958717100263,0.5545043155511378,0.4511170206031374,0.3485816847935794,0.28193119198685235,0.25579315775437017,0.21791098081979943,0.19684520951495177,0.22570750519602223,0.2479301515321044,0.20008849505635462,0.12775910390879153,0.06185239727596237,0.033550656460275,0.043167807750788434,0.08230861749323459,0.13762441823674898,0.17373799325141048,0.2092228824415976,0.2296555788972836,0.2348409905567057,0.218419555571705,0.20835329964883487,0.21456115663756625,0.217537704255796,0.23169302308135675,0.20146036408995283,0.13363360522305978,0.06444679881324467,0.05724455283454244,0.10550917918633784,0.16712105086662588,0.22006403318699785,0.23403398712618495,0.20287722103854744,0.19778430338032926,0.27664894042940213,0.31808754065460976,0.21527698056001432,0.10478049876576678,0.1072389302887018,0.21089272293629913,0.34179539044431717,0.4634212465917895,0.5886496659054328,0.7038997149828705,0.6698658766777807,0.5539153608841167,0.4483278282007048,0.3549998163057908,0.2838800467106637,0.24371284884176259,0.2534703994266283,0.2669900644993506,0.2916975388727172,0.27359930191547344,0.2263298658992121,0.16795009113668025,0.11487124552562245,0.09840807355890568,0.13439316419555647,0.17452794805723926,0.193808139995705,0.19626032398123483,0.21231482309544436,0.21555496270492336,0.2032060905719586,0.19628173883217936,0.20708108862045238,0.19550954796435516,0.18933878901902013,0.1425168465757629,0.07620805293359201,0.02942634333463623,0.05814173546372059,0.11508418393605924,0.17339220596063676,0.20968048660125582,0.21229002448328016,0.20182065276420902,0.2688981249365856,0.3233838263199029,0.2271377091375566,0.12498035922281714,0.13689872647718326,0.2497001398562282,0.3713639109132232,0.49457518048494764,0.6176006819381166,0.7115734292071907,0.6371058686287543,0.5263043188045562,0.42420936970268963,0.32889646763267555,0.26590728678374687,0.2461758711159887,0.23899440053560417,PM
0.4603680164808224,0.46555815416777113,0.466356337381046,0.4833588867844676,0.5329503276428622,0.6183735129598866,0.7146302324436662,0.8118341479961928,0.9096441950757805,0.9796853605655942,0.9442180661499533,0.8448456107798625,0.7426519916346104,0.6615956551766455,0.7090885354074103,0.7003910877626347,0.6085068871169215,0.5161704549071326,0.5049687631710285,0.5079941799640366,0.491893553827901,0.4524823451388502,0.40092785858355473,0.3424577380509337,0.35654793224042347,0.41573111090801174,0.4668772803855292,0.48075136884075587,0.4739445720268747,0.48265934642229613,0.47360669696565116,0.46176218937127844,0.4487385327808924,0.4359761635588191,0.3936275942655296,0.36931165047534176,0.40372797164794605,0.4497206903922679,0.4836679744426773,0.5003484265599671,0.49067762926304637,0.4911986986529948,0.5352481059398788,0.5943668598389555,0.6804437466123372,0.776378440831226,0.8769059910022343,0.9695274938967202,0.9896317437220357,0.9072976626816613,0.7992034924652542,0.696130309072319,0.6095490478052983,0.6679561584968421,0.7524093879928144,0.7540813787437806,0.6663575113293523,0.5572242698974526,0.5044222465501726,0.5005396828478434,0.4813208618529874,0.4394966044299875,0.37960531372441464,0.32800154324165964,0.3460881186562563,0.4134852768699915,0.4592767090055778,0.4790990183455972,0.4750737119074788,0.4682798821000951,0.4810116341949624,0.4833702551335546,0.4859583319818368,0.4899656209887664,0.4719596456892674,0.44757817826451163,0.44618529621502967,0.47796445123372955,0.49008664153695447,0.4940912927077137,0.5107631400099564,0.5109808928127131,0.5250396764081877,0.5661848809904471,0.6393245376515924,0.730615906307682,0.8345129994448919,0.9311377357013866,1.0,0.9586918466596002,0.8589392384125154,0.7483929858782186,0.698635105122841,0.7748048603140698,0.8056622684008543,0.7320949031029675,0.6303268612208912,0.5428359056473577,0.5303865747622583,0.5324539060695281,0.5087425999560478,0.4596441233306554,0.40021372233052865,0.36162640569744475,0.40983332630594393,0.4687657901764415,0.5132731253056866,0.5095673289281359,0.4932796853457857,0.477431398916651,0.44572894157356346,0.421137456194991,0.4079553885420175,0.38757004648976023,0.3511471753834807,0.3160185307669936,0.29965166025983647,0.3351440988955008,0.3769220604273156,0.40788568210903,0.4124294750374773,0.41992483201055775,0.44797634939431363,0.4181564814713439,0.3680764934131546,0.3485368682839751,0.31457685718526074,0.23056398870521244,0.11566446314161993,0.019850452888577674,0.0,0.04487013008372198,0.15409254945007156,0.2659770209444323,0.33060750663034,0.3299926073708117,0.2885896975121338,0.24466661873591455,0.23537604724847228,0.2674226473760011,0.29774992664166433,0.32925836674970954,0.345822609528013,0.3719131197480299,0.4060801355897077,0.4289201660987656,0.43863233723169914,0.45075341283229475,0.42294567174785724,0.36611614340685783,0.3037532426168168,0.2949623161549706,0.35155080394669413,0.4081957168524779,0.46133118153316977,0.4757392006291399,0.46231330673048854,0.4569965864006087,0.5343597352334424,0.6155018457772026,0.561472532877048,0.46303108506545776,0.3923540634051652,0.4031279318250012,0.5076644481423105,0.6129870173313319,0.7211376497051747,0.781622280086113,0.7043700616889788,0.6135755332134369,0.5396244864943252,0.48424463917250327,0.4506941061812846,0.44042216606468365,0.4291732833217221,0.4300596583838847,0.423292608234759,0.3938958551585676,0.3657563712332319,0.3858715384480722,0.41588657368867565,0.42001602704561813,0.41812151363347505,0.4100447498451665,0.4123541476217607,0.41101552746357406,0.4088094587174922,0.4063099312330736,0.409658873637611,0.37893721042574846,0.3207367469837452,0.251146719736846,0.2453865065620917,0.2989380942767106,0.36336596463813065,0.4141862739530495,0.438386652048123,0.43289829482126896,0.4224216691806024,0.4913809950168391,0.5264572997262587,0.44120259234668646,0.355991857386762,0.374283529397061,0.4739903510891814,0.5763320017984266,0.6892070847025207,0.7592514012825222,0.6853304771274082,0.5997891893931668,0.5236418627804071,0.47198675738177887,0.4362656148951931,0.42727770854759717,0.42997812106470334,0.43466999404837336,0.4095093655244768,0.37009293592263637,0.3307001480973546,0.3043798186154594,0.3328232108148037,0.37334371796923405,0.39854082930813606,0.4068082554426171,0.4126486471919133,0.41772191590117824,0.4146053693461482,0.41263691256648505,0.4193178430955675,0.38666917065865203,0.32286853325183396,0.2667682195292236,0.2653776019332619,0.3200417666536466,0.37378876746299383,0.4233608034698788,0.44759165299520554,0.44507712737871463,0.4296009671715435,0.4609369153545213,0.4640151180594061,0.37457867106112586,0.34136312027236615,0.4187176665677579,0.5240610790063474,0.6303291502250761,0.7268847034180528,0.6878186028731093,0.5930612083266018,0.5134810120039948,0.4523589119811211,0.4134041345843853,0.39949954973959967,0.40508424259843334,0.40527448587591985,PM
0.7043873008645498,0.6864397767516177,0.6837768476684705,0.6667420040470251,0.6675988072392514,0.6844711084905244,0.7008787221266628,0.7354237087251558,0.7690885390989894,0.7967101831493562,0.7654818567768835,0.7001124044123888,0.6422629396167672,0.5848942589557478,0.5464571411305932,0.5667413109312514,0.5918367607403527,0.6149654143121741,0.6507781564654267,0.6693543098125536,0.7257698658416167,0.8182440599510983,0.9133820297318653,0.9664709068367845,0.9075887454816689,0.8186781215666938,0.7611676288119194,0.7089888957493269,0.677989437276656,0.6137631334005169,0.5323199523871378,0.5073396827558714,0.5798967467380045,0.6492361744475179,0.6596414529185788,0.651159526639129,0.6601004095999903,0.659994629607787,0.6481099548460074,0.6588559903705531,0.6719751761935182,0.6990815146966494,0.7249594649839182,0.7078717803448056,0.6716581566441251,0.6134356528421745,0.5530010281139424,0.5014521135690715,0.4963149461770957,0.5320866450162263,0.5825995605086871,0.6216448596967821,0.6526398612435931,0.6693566115033187,0.7257698658416176,0.8183050777306295,0.9182993633725269,1.0,0.9810738079853545,0.8750656306453832,0.788971727658093,0.7298669502585682,0.6844632917519808,0.6514413156682703,0.580959343955691,0.48872192609994025,0.46711700456286076,0.5401759432636575,0.6142935320667444,0.6360616853077508,0.6364371245567857,0.6364343051989731,0.6341525274354392,0.6310603081798991,0.6575869904962559,0.6660938800356595,0.6880896783571906,0.7207820849664266,0.7300144936304225,0.695608202292247,0.6347636120418425,0.5852741009945706,0.544962826326373,0.5422808031015207,0.5720685629399793,0.6091385523659505,0.634605793234218,0.651839884622754,0.6840404457076925,0.7540541468884134,0.8490864128396973,0.9357650070554788,0.9520012647629166,0.8591857450460552,0.7816520371581337,0.7327800286509571,0.6932893867786278,0.6537381695113806,0.5815705052397053,0.5238555843190791,0.5618866166934455,0.6305658960600646,0.6985406181695328,0.6948121112751915,0.6775347855755918,0.6779788782305758,0.6839339740004347,0.6795121589574338,0.6887439599154135,0.7104737306568927,0.7458411011299395,0.7630247280481948,0.7804131212766388,0.7695335745087837,0.7093081301735698,0.6392567734032313,0.5819130199230709,0.5563653110481503,0.5636196553911326,0.599873224501732,0.6335364562672385,0.6455498517366784,0.5968591059570056,0.5526800231686164,0.5109100859089799,0.4680068015721095,0.4163804694321396,0.30461334782073335,0.17100308975798617,0.04694063548831018,0.0,0.011468947343908464,0.10355544622790758,0.23647537423657372,0.3670236930512605,0.4460519845981348,0.49353555604183885,0.5525240114056729,0.6212726035058687,0.6784093346554361,0.7083983439255581,0.6911303733080496,0.6626478466320815,0.6261568991156872,0.6164671841530076,0.6016001600427137,0.5941853250580258,0.6024148555943949,0.6039367108682554,0.6214108223248602,0.6066649686726815,0.5332396438762625,0.46726213471857436,0.4006316108454495,0.4212579400968206,0.5027808607455957,0.5763397043997975,0.6041088999626556,0.5895262580764462,0.6140397893530252,0.6436486123510696,0.7367864522344414,0.7336924369262521,0.6496326032267015,0.5933798965552364,0.5818892219117822,0.563197219630382,0.5522550238209232,0.5184250187764268,0.48029223475876703,0.44215388343708417,0.4557378161416952,0.49423234418340156,0.5478249000369972,0.6066312950322414,0.646081035585718,0.6250989512099854,0.5981195724664685,0.5904545369393794,0.5789947539796203,0.5573395229129896,0.5680698982783845,0.5590322736314546,0.5560487069779794,0.5625583288911349,0.5437864498845557,0.47312025768629073,0.399392714121924,0.3472440632048892,0.369165013631934,0.464451584124038,0.547433982680781,0.592257420065323,0.5677835723053479,0.610839952372022,0.6556998665353362,0.752517747782389,0.7755745649001584,0.6807944329045847,0.6204183116145034,0.5923860472992106,0.5622987180754606,0.5330736841497741,0.4846905674909223,0.43717593317982706,0.4117703236237644,0.42621246890561304,0.45949639407203025,0.5189045984899665,0.5830809152967582,0.6220498810826194,0.6255060442953897,0.6077909229163603,0.5932460002724995,0.5787048761106313,0.5705788354755219,0.5660388443497513,0.5682106223790453,0.5740667895753178,0.5678448520605328,0.561772862279903,0.4948147288536502,0.42568721152630706,0.39444815748890916,0.44475365391210797,0.5363919562240067,0.6078459888950243,0.6117340138770051,0.6128488305138564,0.6340105877235174,0.7191648733624127,0.7930402006851489,0.7287433079617136,0.6427857009119751,0.5978003533292942,0.568208265975275,0.5529980886469033,0.5227407868534164,0.501074704348091,0.46396686537838594,0.46265440090269117,0.5065365747517356,0.567042628500972,0.6241520676323882,0.6873125108317,0.7033863036389292,0.6722995914668095,0.643396799915974,0.622865250459637,0.6037149980543357,0.5897608493339459,0.6002923199020223,0.6115394111114383,0.6062083533811338,0.6231592531042489,PM
0.7967372280345826,0.6699863539557587,0.5434794234870788,0.5879953889097385,0.6990348177071048,0.7983630200949552,0.8440855622038059,0.8372321267323706,0.8262153039555464,0.8155671076227655,0.7639700134673388,0.721684539664655,0.6532280708699503,0.6773742360887525,0.7294001032153927,0.815167184845289,0.8843551887104821,0.9369679266050568,0.9698489135360173,0.9887824704984931,0.9282070323471334,0.817891622597192,0.6726525592931001,0.5808224831282249,0.7118324841461909,0.8784037490948293,0.996504836754089,0.9831073893622024,0.9165243196885928,0.801758334069123,0.6669615825475024,0.5662694306990286,0.6197590972535858,0.7306346808769009,0.8100589906777396,0.8341907031485647,0.8274925768022472,0.8149537112697267,0.8031864395154811,0.7758386089822835,0.7162608387617029,0.7156420521060829,0.7762852615985372,0.8519196110875686,0.9233169697884334,0.976000138627489,0.9933233446200029,0.9972634936336817,0.9507936670102186,0.8337094467374664,0.6811430273263905,0.5584773708695216,0.6552632838430936,0.8183900948458858,0.9680667986492066,0.9948501345314558,0.9147811894321594,0.8317267680383074,0.7084258155841932,0.579010280180225,0.5517230081616269,0.6466477892334801,0.7396845587129803,0.7945864989727207,0.7926823164601648,0.7617316015033806,0.7188201297157217,0.6705899663502128,0.6152868241781162,0.5381417920421363,0.4956207430906936,0.5511543342112288,0.6320085657336882,0.7144552715699142,0.8036791134757779,0.8635076749193225,0.9254658736614818,0.9566205129443972,0.9038948832127378,0.7840564613923311,0.6542203228872516,0.49918187879702813,0.4595724451497363,0.6190730220311407,0.779706995006622,0.8830635772661664,0.8961693387399992,0.8318239784225838,0.7144033464894388,0.5701229095963907,0.4769511202117416,0.5417025490073648,0.6613945348658978,0.7627354659381593,0.8027362708268715,0.7886298419823117,0.7855406825516349,0.7707615756732862,0.7306796823024353,0.67025423543509,0.6702150367897293,0.7349449411679823,0.8258255932870489,0.896948180914749,0.9601671285621158,0.973251336750173,0.9829097257120676,0.9344933450476605,0.8301979694698582,0.6980422386243124,0.5520479239170779,0.5332571726567643,0.7068337767225294,0.876630184346511,1.0,0.9741165908263634,0.8946610932761523,0.7902963801663008,0.6621356975115482,0.5576772058319968,0.5232835156171465,0.41740985707824496,0.25195620812526,0.0716537294359254,0.0,0.0611384211511492,0.23698065179829353,0.4160349694478507,0.5315998060497797,0.660318547702003,0.7842530047700462,0.8536731960880468,0.7493212520129005,0.5831503620533027,0.4160153162846969,0.24949411532157661,0.13406902535425358,0.2185514915123914,0.3800180502310804,0.5448486316127461,0.6952627192151812,0.8142883198450859,0.8505807827611473,0.8482823484932736,0.8031390735272064,0.7327101147941955,0.6426524241235141,0.5712596785364727,0.5370633153171545,0.5745581458532145,0.6437870267738353,0.6776810852230524,0.6742591079956055,0.6700289392678114,0.6739430783357374,0.6056975357570957,0.4958522066304347,0.38434807579573604,0.3801655727596316,0.4794026911572784,0.6296125918376481,0.7360344010317741,0.7918492875994811,0.6925262917285133,0.5052595187740456,0.33060019439568666,0.1614334932425714,0.07278523553587801,0.17038350819998938,0.3281438309560514,0.4915289867300139,0.6499085223615246,0.7845212601820366,0.8393217993965694,0.794071366514304,0.7297045555886106,0.6583656679603944,0.5666055807822525,0.4793482859272151,0.4210877253505547,0.39025328927963354,0.4507821710730626,0.5237354940304577,0.5869576968700381,0.6231362467983166,0.6533230841397337,0.6894350194607695,0.660474192543953,0.5644926458024706,0.4579008967633289,0.38393243428787205,0.45209882279892266,0.5685933278892108,0.6989872554595751,0.8008956695298961,0.8048459420541567,0.6615945452169019,0.49073983455858805,0.3207423566168064,0.16329188145960316,0.16250818716085158,0.3146317265794716,0.47870299606725464,0.6393776166009264,0.7806406536415089,0.890383089936889,0.8923382719514166,0.8524447248838447,0.8146693951047919,0.7417269540671132,0.6567628838611341,0.6071342588355586,0.5755903621554257,0.6323141631027589,0.6868779647084073,0.7058064771078554,0.7165357989144088,0.7367592069092552,0.7286413394787488,0.6905057252591975,0.5918766470639651,0.47541671469442814,0.4585702494354935,0.5501372578439803,0.689217914001949,0.8072173501585898,0.8562318943475429,0.7684725220565971,0.5818884037886773,0.4082233850837973,0.25891716136838383,0.26945466301307697,0.4089120885887656,0.5680575725104475,0.725975719729683,0.8485787247274299,0.8706165906451471,0.8346933110247319,0.801186830669919,0.7441933048313985,0.6601784952985525,0.5937209887513282,0.5430488218785028,0.5584268211764458,0.6291039801085017,0.6773803377359853,0.7025045250528112,0.7093640695413148,0.7241753245716485,0.7231752877653168,0.6315777377373664,0.5131487620775905,0.43399268998138485,0.45631412891833456,0.565111196283719,PM
0.42742917560599514,0.49204269605816053,0.5018996685121526,0.49046254564322167,0.5024095281101513,0.48528475266951787,0.4830176304176166,0.4936551348198628,0.5199423063090158,0.5868792578498088,0.6476133669454276,0.6575094967432307,0.6054278858547271,0.541442246150619,0.47873282239469006,0.43692220961389605,0.43380197729130066,0.4337988917000297,0.43379096024357544,0.429958206873168,0.396534611368657,0.3559255718339851,0.3392115150790542,0.3360222058301985,0.2982676463237661,0.4002578839624076,0.5201843411042644,0.6456233613360771,0.7680021081757831,0.8763328435349012,0.8849815789149398,0.7878065789195023,0.6653785865142927,0.5478536083116907,0.44737794946823684,0.41118153818470393,0.40263644012821764,0.3672544098315531,0.31955378847610927,0.29760215397741163,0.3277661766739861,0.38872667376727854,0.4097314390194273,0.4146481654563372,0.4241680586272234,0.410753003695993,0.4214707823967383,0.42583103819341117,0.4552228559786835,0.5071380328654098,0.5253252020106487,0.4892812847902852,0.43013326720063016,0.36485591203087653,0.3162159410114871,0.3108064968676709,0.32493693344287955,0.33963679658201995,0.3572342527897665,0.3624378689744998,0.3553196782827439,0.3274631183202015,0.3319500375116351,0.320440347958717,0.3861251311378959,0.5041788231657733,0.6300494311619973,0.7497546002348869,0.8773910475828641,0.9633861879832528,0.9301415467675644,0.8178710990497811,0.6974945018855703,0.5867842684201072,0.5136829337245441,0.49081955929700527,0.45981070789349543,0.41794585594307865,0.37253745922206427,0.3260948509555939,0.33844653049214424,0.3889293197865449,0.4097485423152212,0.41003001800587136,0.41003001800587136,0.41003001800587136,0.410616676607682,0.4385381155723169,0.49998116005713156,0.5271387493073583,0.5045447311377749,0.4466044964077871,0.39273029080137034,0.3478114692672438,0.339509107701343,0.35530338437016296,0.364759861089075,0.3891142991206227,0.39809719589927584,0.36639861469676926,0.3221584180040189,0.3047777834272818,0.2663707204336263,0.276560438860034,0.401642937933989,0.5318602379918245,0.6485980456122267,0.7809165654048984,0.9005721890421539,1.0,0.988400402624106,0.8859184357961061,0.7632053853953726,0.6482459238590383,0.5471319935124823,0.520551527360694,0.5041367106399695,0.47413521887628907,0.4142329919047114,0.369904482026155,0.37155759305420233,0.4184727589657733,0.47848144698439166,0.5042662753675309,0.49425597838903856,0.4721640289307114,0.45682760712276416,0.4449964572838483,0.46686842182885746,0.511092493682983,0.5039725342405359,0.4475566483792015,0.3980293681883156,0.3616620781152826,0.36536099622813056,0.36488678984691036,0.39705739789381145,0.413531279389332,0.4213883765280966,0.3724451797589987,0.3182124050709225,0.2737559138238139,0.2792828986117768,0.30521766511774295,0.35983642563509877,0.4159897960878518,0.42970915623786743,0.4527624839637814,0.5164663403046097,0.5467477610412663,0.4474124392105936,0.3158853576764402,0.2026693345255448,0.09481664386928212,0.0,0.022102922044443307,0.12442922514119203,0.1917030083017326,0.24234912896308192,0.2891152189466215,0.31978855508155446,0.2963541612170695,0.28967686664405967,0.2759747240493162,0.26675121317253403,0.2636124338753887,0.28645250079101947,0.32658623377663254,0.3852549838905728,0.4380246788781825,0.4254269944616209,0.37605178179934917,0.34136917536258604,0.3314553734655603,0.3292427768020052,0.3339836928415769,0.34207216534845575,0.3518725010849697,0.3272039480580209,0.2709566268549608,0.24333208444422372,0.2635946043475621,0.30688891008227603,0.3563890281109723,0.39800285981024563,0.4232057173250383,0.4391096881998928,0.508330366109468,0.559291179499172,0.4564263421073651,0.3334610521761281,0.23116754503732073,0.15620274813157087,0.18807376747910576,0.21972474840751444,0.2498440407566851,0.2774151374404199,0.2726885712208582,0.27882523703260365,0.26090147655373075,0.25200764362796946,0.23588681488560725,0.2531562039796178,0.2948043251269956,0.35810224443866945,0.4221086973872872,0.4411299565142053,0.3990390472536274,0.3501187225847575,0.3393691213905101,0.3353121556881371,0.34831756014245485,0.3529734414982628,0.3525305260296734,0.3273707436676858,0.26205522271721415,0.22334319014722892,0.19930380898606614,0.2244984862199524,0.2769677471303371,0.3208968403251462,0.33901356006282857,0.34971691645703373,0.39340757970382434,0.47601736029090835,0.48101390279397505,0.37283015847189294,0.25331362380168754,0.16665152776276226,0.14060383498164786,0.2194258065462944,0.24439255843320495,0.2764498927861663,0.31211194444445356,0.36038913546391527,0.3765184834800861,0.3681637644014133,0.34528088559419645,0.3430277484765205,0.3535859189494799,0.39351835002666036,0.4510890502366318,0.5130475810532644,0.5706269425170643,0.5400376026316476,0.473897979498743,0.4271127085245041,0.4016783780250508,0.40987309121604465,0.4178717648759003,0.42424397896483024,0.42450762173184575,0.4301590752669182,0.38236414554986453,0.32836801183401,PM
0.9561508038637969,0.9504467647293544,0.8917966328925,0.7996834119454892,0.70310131783009,0.6080455833048184,0.6208036328550333,0.7267182117306303,0.823992835733903,0.920328986605857,0.9895929100970231,0.9790677971880402,0.930966814341045,0.8641166465776795,0.8192611293812981,0.8612105584496201,0.9101631172055904,0.9073683741537852,0.9131982314449543,0.9028594291029597,0.9072116963917765,0.8951856955847126,0.8901615547435822,0.8801691993083609,0.8844612303482222,0.8887338873435131,0.8931189819835708,0.8719183141165932,0.8259708708269571,0.7657418640098119,0.7118945407665551,0.7252593030692944,0.7754977892824018,0.831861583452215,0.8755725527059912,0.906491892223467,0.9284978774542596,0.9256207239554577,0.8724523284274155,0.7854542011723473,0.6829196176753745,0.6025726873659365,0.5797822863856066,0.6850483657891564,0.7870144108470507,0.8805022185569378,0.971156418762122,1.0,0.9658325274381365,0.8968820635879351,0.8394573660726148,0.8396981278114137,0.9025860171392499,0.9419736698104684,0.9341786082266408,0.9309290201147906,0.9160770250448635,0.9024107356878144,0.9101329512419585,0.9036604772607131,0.9195521135422222,0.9311828787562435,0.9095902224031494,0.8577038897719058,0.7969643590362852,0.7365771720740906,0.7284162971251518,0.7796055874645913,0.8401886273706509,0.8889278591054053,0.9240841373665787,0.9581782177794111,0.9680961355793523,0.9356903049542971,0.8599284836013807,0.7681791761420627,0.6667132501122222,0.5764620716752815,0.6266794960128581,0.7312201118126533,0.8303228514279772,0.9391547142316488,0.9941108734559507,0.9800081267268288,0.919460039477781,0.8529708759233667,0.8274867845136264,0.8751117687386087,0.9246575010358842,0.9294706720068926,0.9299686415777799,0.9359105455510828,0.9171109245608808,0.9053675159103425,0.9016948131000886,0.9025369716357945,0.9222802214511105,0.942519782311964,0.93401488108268,0.8997098301647446,0.8444211239635098,0.7825517367708401,0.7479315878295312,0.7755782617140738,0.829781114816162,0.8754437623362343,0.9147637730797751,0.9443202045882022,0.9650382924302585,0.9462932323749147,0.8783000883755085,0.7871962628749456,0.6918956560025964,0.6375379083635742,0.5582000187303691,0.43755980752835644,0.36881495768429406,0.38756153050545983,0.4905149478047637,0.6128968938239772,0.690101440171965,0.741940029037294,0.8332172523935215,0.8949089221659374,0.8924821969808874,0.8647015920399386,0.8257287470444705,0.7785197911194754,0.7290216278817727,0.6894253040577198,0.6891127581155527,0.737927252461803,0.7959516929094979,0.8476087068728511,0.8799262642652796,0.8695759173916171,0.8539596202054631,0.8424276312983947,0.85007904220247,0.8595330823316849,0.8634481188463159,0.8711718394978742,0.8710944409406376,0.8504647848843274,0.7924419849909379,0.7658620715094,0.7917404048958834,0.8606282259001583,0.9126777398976218,0.8935065785815812,0.7996174781617902,0.7017912394513397,0.5867768616015296,0.4624514631770382,0.34065451540980707,0.22974432118590293,0.10752197382594186,0.008046017897745283,0.030754157707923557,0.13824103612954897,0.25279934181693386,0.37597058133541283,0.4876139226886407,0.6032391672325526,0.7079887139523904,0.8036162559828282,0.8856788890062557,0.9118015290533683,0.8913948299604808,0.854460455914301,0.8094974716148919,0.7474712947716782,0.694929321642265,0.6607574679394093,0.6769912497712429,0.7279276609047192,0.7952861761103338,0.8492213956810004,0.870887935061103,0.863268709143068,0.8419858743876993,0.8446462964114483,0.8454714595882269,0.8624497575100665,0.8722981679661199,0.8761624626236055,0.8741668770836775,0.8322775800303162,0.7694892378607054,0.7623316943802729,0.8111915667865603,0.8732607966498964,0.9286839596436263,0.8815491037306997,0.7884425684265182,0.6881070272980061,0.5752811285408903,0.45515829209493663,0.34377195274233996,0.22069149304219327,0.10735139240035663,0.05298502903186231,0.12662514527962587,0.24817926383525624,0.372624919947123,0.4927933557061315,0.6002746387982194,0.7014208135669779,0.7926334454880886,0.8608248594842323,0.867273066360601,0.8435082591123524,0.799372247180131,0.7530734593225046,0.6960905685128203,0.6525002296684446,0.6502494374150811,0.6979451279076012,0.7595561484222157,0.816420215640115,0.8349063788452438,0.8334282370079138,0.8198674771481875,0.8195708773786095,0.8254483283735068,0.8371883735191483,0.8496513789136824,0.8456981403440635,0.8458774489120691,0.8485723771540288,0.8102871113736603,0.7589995708250084,0.7585842966440937,0.8018267533131933,0.8762867145575268,0.9238245658604614,0.867330347338882,0.7712932036079789,0.6677848300036366,0.5564564933106921,0.4374122391883848,0.3148277512513862,0.2039901191032163,0.08283050812042703,0.0,0.05707980797362833,0.17135013023933787,0.29155135209864547,0.402919330166736,0.5185649768009064,0.6267197866344194,0.7225840790317961,0.8197696227749054,0.8880009620596718,0.8969438341017977,PM
0.8343175724077083,0.8688005584964316,0.8929074097750753,0.8977187064875576,0.8827292571639975,0.8476205271205957,0.8494191279861525,0.9301141467638203,0.9789808638959303,0.9704071450420928,0.9487411468278331,0.9229997760589046,0.9142127305608456,0.899672477463334,0.877850561824864,0.8689910265966523,0.804190338785808,0.6900439662833668,0.5683108529275218,0.5001695216316344,0.5963886161334266,0.7141312982293391,0.8284207328801596,0.9212747527408691,0.916250719000836,0.8901032353526404,0.878978120114227,0.9080495146499721,0.9330187901993883,0.9207938220845895,0.875831876867585,0.8828808292913712,0.9282688422663616,0.9389432666787987,0.9147840640498766,0.8822799439281859,0.8465777551048204,0.849895806812015,0.9226487306949611,0.9425958835684614,0.9188667820437826,0.8873122687584671,0.8470703421386738,0.8691245569779027,0.903213753691829,0.9061459320476928,0.8838680591013537,0.893767696869106,0.9157293971355829,0.9270544928773976,0.9105837642870083,0.8961258627985806,0.8875344285905764,0.9168577587824189,0.8917109197865112,0.8073898048343238,0.6885035018186012,0.5699484630925071,0.5065063206570182,0.5809351835551659,0.6738828949663902,0.7800232398839295,0.8482582882968135,0.8422326186653937,0.8637311896780266,0.8612974444333732,0.8221259078316061,0.804457297185261,0.8103208447252648,0.8535419569302878,0.8937825270228177,0.8915600029170685,0.8580602291230761,0.8237657441615194,0.8230178218307,0.8928228225473798,0.9612328159441343,1.0,0.979133016227614,0.9284543064489323,0.8902721784103513,0.8739565475753888,0.9206550537535754,0.9397478797433516,0.916036033436507,0.8386129611392228,0.7237975702068531,0.6002149158332504,0.4806202162195605,0.3793139941991912,0.43675794548045266,0.5515898868673021,0.6711871614170168,0.7821078291228245,0.8437959385117226,0.9036244162502292,0.9386392615870252,0.9068933392377856,0.8496768697801427,0.8494145071996884,0.903299125430649,0.9064395405547669,0.8928466895384113,0.8657490493545743,0.8072640381242433,0.8181171669685376,0.8703881355632399,0.8977136511480088,0.908282727988365,0.9085172001255803,0.8881291241446174,0.8882066102280608,0.8468493925264919,0.8441527379414784,0.8888538710173641,0.9086063328378682,0.9352945177231358,0.9120304986460499,0.8779989592087545,0.8643669326841841,0.860136957834448,0.8027063399184762,0.7803925693135483,0.808931700168364,0.836026329506689,0.8595141480452497,0.8325353261420347,0.7908108462937462,0.7515496246772888,0.7710398197663273,0.7914563136127892,0.8211044854726701,0.8183216105004654,0.822464675432176,0.8081171368425024,0.7524674290198581,0.7143901140790492,0.7288110339056502,0.788410756356408,0.8131050564652749,0.8371268892388057,0.7999033424065396,0.7653607297884668,0.7837029336681276,0.8318269158148701,0.8553801383667574,0.8017708187143242,0.7369025878499773,0.633009794244487,0.5234486637414331,0.40473790348087935,0.2828100360298147,0.14870503407655766,0.02942667183294745,0.0,0.09260317490753067,0.20994889871482725,0.3379778664194659,0.45670878252849656,0.5867734614386051,0.708611962081799,0.8160138862288244,0.8704060406389011,0.8535615549687812,0.8006103838895973,0.7700810168051437,0.8216213681681226,0.8726582392700415,0.9118151354043587,0.9211436001911961,0.8667490371098676,0.7847145137974167,0.721359316631784,0.7240183435060956,0.769845476054416,0.7923631237227013,0.8331468547251819,0.8155272294780183,0.7665652368595057,0.7427550042812792,0.7445603541302002,0.769706062546085,0.7919798098717203,0.7736726224653903,0.7650200379581595,0.752127039426127,0.6569770323804076,0.5408817240377273,0.409318850484897,0.29041183769680856,0.1802595337229329,0.1614056322293278,0.25478823709524745,0.3761563609901404,0.4958673636177702,0.6136869493222963,0.7342382156033964,0.8215212659411493,0.8171038448081478,0.8205819098229843,0.8394072404962829,0.8534156215816489,0.8435503198305718,0.830176243174845,0.8070732462322452,0.8142468612185851,0.8179569366621164,0.7989711706415168,0.7719682160856971,0.7902544870248516,0.843222692213796,0.8637550635125182,0.8391229046281552,0.7666834375429246,0.7557225218215113,0.7892251726950015,0.8303484805512675,0.8690785725281578,0.8453390649623818,0.790783822194002,0.7899698033799409,0.8278040370862403,0.8555067379149301,0.8370322387109796,0.802333520567283,0.8076478596700407,0.813429639190522,0.7917775095021615,0.6905429632044577,0.5595117752432843,0.4324190395866534,0.31153599022190326,0.19063626838144465,0.12354451839694347,0.18746848370481883,0.3025926483040191,0.42134795845087325,0.548935731036142,0.6677391267184509,0.7751277618179016,0.8088287844051196,0.8329056046440582,0.8410403782576834,0.8566889844292445,0.8668908401244249,0.8930787033245338,0.896179575523135,0.8226452144432153,0.7547903592957357,0.7615351443436529,0.8117661403289631,0.830801682415887,0.8226074683250917,0.7853147788784272,0.7581947228665391,PM
0.5204516678208071,0.6293333561059122,0.731293119932984,0.8174221091256038,0.8877023394277139,0.8875470933509972,0.836941328966943,0.7859971387528626,0.7938255491619346,0.8454594508533333,0.8762466108546674,0.8743905114851653,0.877829120219408,0.8644886207464553,0.865632315852185,0.8870352593654003,0.9033695619122453,0.9155101962016436,0.902020416180989,0.8829672161756945,0.8660278533460066,0.8376955498984571,0.807744052878514,0.8130005609391504,0.8624162761857526,0.9015617312205122,0.9167951528912148,0.9221485942972727,0.934481289245022,0.9349420628859053,0.9173882753367706,0.8558833432820516,0.773279266546246,0.6748165848412495,0.5694054737183549,0.46004383886649425,0.4686651017965935,0.577252471832328,0.6590867325966574,0.7608841523898673,0.8596013055926273,0.9231725789072183,0.9072755238328631,0.8570398845644203,0.797235070640939,0.7682848195224112,0.8095593886231671,0.8565742212115253,0.8765197270335312,0.8690881956025112,0.8629607377720006,0.8629203843400375,0.8662156921931934,0.8821870736045874,0.8929167770149342,0.8799727203571766,0.8653860380544374,0.8623881454462112,0.8469400713719621,0.8112716097412629,0.8277724714448325,0.8826182906351319,0.9296638105220767,0.9536485952716833,0.9691967489888023,0.9775747911157868,0.9963589277268565,1.0,0.9516161530776905,0.8775810318581323,0.7864222028730095,0.6807304676000117,0.5738096363309677,0.4647010494094834,0.44569632933501646,0.5510235804012522,0.6563571074244936,0.7714127908030552,0.866373220801115,0.9396675351612442,0.9400818532723054,0.8875216102910777,0.8270939250954545,0.8014222276071319,0.8379160821734959,0.88447169652094,0.8953297614538678,0.8901212291863323,0.8693171744308161,0.8629598902812545,0.8630194824934079,0.8703552545618094,0.8748908761449052,0.8736286499615393,0.8627839672401132,0.8442002497747838,0.8218220660239433,0.7866766255464133,0.8138936859506716,0.8679090454088043,0.9117208662430447,0.9461871978121428,0.9483647072161259,0.9451166877463422,0.9354903934550771,0.9304563847065714,0.8826000625696846,0.7980311211809012,0.7072689581116194,0.5998309714675449,0.5017015771781592,0.5338938185969302,0.637235643255492,0.7190910683772453,0.8033668565818708,0.8784314429169737,0.8562460765438242,0.7793036432564739,0.6859494896334022,0.587641956357674,0.46981392039213477,0.36967074705433545,0.29974367717757744,0.19618014361102887,0.08596540985465673,0.004184986526658552,0.04407745201461877,0.14580788486129626,0.25229706082516845,0.33695342737714373,0.3860240206907388,0.4932771917538208,0.609467918679357,0.6863045588124335,0.7698611886175368,0.8515416128881621,0.8801997723002088,0.8876429590202402,0.8904499685029297,0.8823743254327536,0.8681602675012359,0.8227188275132025,0.7720267049923457,0.7292927888921539,0.7284646568978457,0.7657113203012518,0.7851282309905692,0.8008665648093904,0.8130855584034835,0.8194448200203754,0.8192513243445694,0.8116280942816649,0.8086677830545255,0.8079689980085631,0.8266420640130487,0.8324666022643465,0.7948389931781539,0.7542912474841574,0.7355042799048666,0.7744287509194572,0.8375823117517474,0.8871597887098459,0.8421456373501259,0.7602015023899886,0.6530628754164507,0.5374677437470199,0.4322474604500748,0.3155485511406608,0.2078566324259743,0.1037264176594972,0.0933559494823486,0.18485647122268922,0.2914949027400451,0.39825264466516774,0.5105128900001255,0.6175438945262806,0.7261230646692565,0.8007611877776002,0.8801271778264028,0.9394203722478291,0.9352084578386219,0.9272659910289343,0.9139219113433401,0.8930358622697878,0.8490795652752268,0.7963362245173036,0.7533643237293717,0.7632207806267886,0.8021812234589851,0.818897547699502,0.8217758837166458,0.8351373859810249,0.8272583032155008,0.8196185279177008,0.8195043713512824,0.8195043713512824,0.8195043713512824,0.819058174503414,0.7986754916333352,0.7456155961350621,0.7144431896170453,0.732481375474197,0.7915701918592313,0.8438743151861954,0.8076318276710448,0.7194101691241874,0.6141647717113377,0.503309512006131,0.38471183274938703,0.2659869800261889,0.1473523167514168,0.03875211680589441,0.005130088522726783,0.0843899479165171,0.1916380965157014,0.29983202724780655,0.40479263815011235,0.5188681129196118,0.623911500728056,0.7322363335220312,0.817006215750919,0.8818322301177299,0.8913532455204707,0.8802716488615561,0.8736096898418029,0.861153409302291,0.8210323304066627,0.7698494623146783,0.7364711868134921,0.7552264806446773,0.7893361157759022,0.8153662132634225,0.8341092313732852,0.8530959882835671,0.8555282535741457,0.8459178426810041,0.8233479518305278,0.819519671249644,0.8195043713512824,0.8194905574136566,0.8145477366213001,0.7735436778571798,0.7294052655984493,0.72407385004855,0.7624690487382426,0.8160767287014603,0.8329802754273015,0.7535815179193439,0.6544641288473345,0.5445478906502252,0.4268061587969889,0.3206415304709851,0.2066183597852116,0.0922130153507763,0.0,PM
0.6698900114318191,0.6700189574989945,0.6760792623638392,0.6788447186765398,0.6402804364339563,0.5791676798590832,0.5083949337182685,0.46455373616348217,0.5048303741497104,0.5649740152282798,0.6185786188727533,0.6538419052734334,0.6707238202545209,0.7061407659389634,0.7675156350622188,0.860139527402425,0.9412417271079354,0.9158360058956871,0.8080648335326925,0.6960550184851821,0.5827205454600395,0.5187550763469351,0.5921117150036701,0.6786973295930752,0.7452158806889813,0.7469253896561647,0.7135409917741171,0.6485556058530846,0.5751365354653086,0.5817053638983283,0.62100054681079,0.6481885527508684,0.6457833970230626,0.6591927021214565,0.6780178261582686,0.6694813995979327,0.6504966837254136,0.6206703305770089,0.5670178722461845,0.4979708186084135,0.43224422119856465,0.43125773723125427,0.4868314001641565,0.5464028258171769,0.6005040407054625,0.6385789138677631,0.6630198945839494,0.7174137228386499,0.7997877996039633,0.8916843691355996,0.9433726888563565,0.8762314606768711,0.7613540060402739,0.6522226396516353,0.5319877940831681,0.41996032659002047,0.43473041756175546,0.5363367848876988,0.6215787322889805,0.7054409210059158,0.750967672619494,0.7460902285938142,0.6927431467746845,0.6143083637383473,0.5735609280548708,0.624931113930776,0.6801179796608134,0.7132743870226217,0.7000896801194627,0.7104825328215587,0.7228667821166903,0.7350766800476052,0.7325330166846027,0.7225503719598771,0.6842951049688928,0.6217652168323444,0.5488241229030111,0.496820647122886,0.5285575539147929,0.5855652907905333,0.6421765145580536,0.687313118975732,0.7134390773835513,0.7469056954017717,0.8181202771873939,0.913454283459004,1.0,0.9889323943508921,0.8892101707975697,0.7765934785308128,0.664038714248528,0.5537721720223927,0.5690695376812198,0.6585073929522953,0.7382420105029652,0.7836499360991351,0.7813792598448863,0.7353305869674465,0.6578290306342742,0.6151948008636148,0.6521635269519646,0.6938431372891944,0.7038286383395125,0.7050098429343818,0.7185062012267078,0.7344466930364231,0.7313297065477498,0.7032162948336778,0.6663437753423103,0.6047999666945785,0.5342370864197727,0.4662341245386079,0.48122372471991115,0.5403422089996601,0.598884770097377,0.6337318838413792,0.6580555940968553,0.6881409005604366,0.7589117860388859,0.7584904627535347,0.6836861587638157,0.6323312701744359,0.6037577307296442,0.5800247442389037,0.5341389465017263,0.47366006017375906,0.41751476534529086,0.40035760426698763,0.44885523196330235,0.5232312308303548,0.5920770101132784,0.6464732518632803,0.6709192000387865,0.677398632866709,0.6589790382467622,0.6468406422843995,0.6538533138578897,0.641125703275403,0.5974102391725329,0.5465959282326267,0.5375297860172719,0.5786692316750686,0.6582927530173679,0.7246786113374935,0.7317687999222571,0.6631904716796728,0.5840542657468841,0.47248705604320307,0.35366582205270003,0.24477119552307824,0.12703851317389514,0.04257482273502511,0.06841499750515734,0.1777280474288574,0.290618382201707,0.4040711819634222,0.5254376634865476,0.6456831675699526,0.7547031624791734,0.8558896080817178,0.8270697048391953,0.7395575784138546,0.686306873532637,0.6544811137382349,0.6230203529825848,0.578974261955004,0.5164054586298765,0.46375178553443286,0.42412471929319073,0.4470152932319893,0.5148163090265574,0.5904266833041021,0.6536681390286128,0.6781835103683571,0.6800859332183236,0.677366063482383,0.6565803083100064,0.6495397051680483,0.6445028104392705,0.593048166825902,0.5319878890752379,0.5027067814152599,0.5434417171228918,0.6259879225526523,0.6873417940554924,0.6748480767101968,0.5981296709313115,0.5105766321137652,0.4042046262119041,0.2842292388757519,0.1728217857625105,0.06036387875698823,0.0,0.06589402731412397,0.17699216759586633,0.28986264691817265,0.4032113810294442,0.5239711929724717,0.634439025337826,0.7420151325012361,0.7405225472085664,0.6657722536122406,0.6187287738681531,0.5929764486602753,0.5534500683887664,0.5004063284118416,0.43986996738081974,0.38398266645677515,0.3621166362976562,0.40951629520045296,0.48263566673808933,0.552870415807639,0.591360227652729,0.6178120794412152,0.6250843060080751,0.6035331506516037,0.5953712177504111,0.5979115300624982,0.565898191036641,0.5131565204706212,0.4878262318240143,0.5293065592985289,0.609775443476698,0.6775253200961777,0.7024878362122586,0.6453019910521864,0.5630048063061324,0.4729967762548357,0.3576194951092173,0.23613675340041906,0.11526453853051866,0.03210204292117158,0.07897912730340595,0.1884082295873446,0.3039342408199017,0.4147381912654784,0.535307399226415,0.6463494387238935,0.7582014953795082,0.7871912588205383,0.7109998960212733,0.6559148426480137,0.6225991139064395,0.5961998915197486,0.5570309269033169,0.4939990257389293,0.43565154535918893,0.38940320288442987,0.40843314363051153,0.47927651098264246,0.5522874503813138,0.610277976799074,0.6286404737112203,0.6290333892617164,0.6255839068551419,PM
0.575564577322083,0.575558223460527,0.5724694228768015,0.5570939058237703,0.5609048210117451,0.5748448753175879,0.5755640862820024,0.5743730690780118,0.5553472745740917,0.5220367972062165,0.47978906994972403,0.4286718163427059,0.3988288035350398,0.4222507769212438,0.44129995021294155,0.47555958834471657,0.5004997816030747,0.5184740483954946,0.5345168307519148,0.5514549208795692,0.5839684395963913,0.6568479868056425,0.7476005540588528,0.8502811405670592,0.9386216057960546,0.9923143402244055,0.9431350385069424,0.8663506239114169,0.9133328633090456,0.8993293223681897,0.8086511517681307,0.706751187638146,0.6196462473637432,0.5958159255985382,0.5780515159177573,0.5251264918945404,0.46312410551511896,0.45622126439693345,0.4943754624793799,0.5450466990892613,0.5742162555363852,0.575564219151671,0.5755423099695496,0.5703096797690752,0.5561049703986272,0.5552223716988314,0.5553790450246217,0.5652324997008882,0.575364192058891,0.5736662581701624,0.5524171876960082,0.5183381929101984,0.4638410999922611,0.41301768080698986,0.4013007198085532,0.42994362711006495,0.45966095474772306,0.4924799018204751,0.5175558060615582,0.5335823839394687,0.5378572791420306,0.5668312378106846,0.6363713794888937,0.724976284418557,0.8196377543893414,0.9072571000305847,0.9868017880261268,0.9971667959335493,0.9010506901840305,0.8783781584344363,0.9286678008462816,0.8801253815352683,0.7803001650034198,0.6812875593762908,0.6095967791305763,0.59238653102152,0.5632831812034449,0.4926719597608167,0.44075960593128105,0.4665994633570132,0.51467565676412,0.5591754037787044,0.5753104555093111,0.5753163130074848,0.5663787552684285,0.57060260166209,0.5576966217639314,0.5552260074390087,0.5552223716988314,0.5552223716988314,0.5552218311355532,0.5537653745406792,0.5335775668997225,0.4981190845866075,0.45213733471591055,0.4010908738054959,0.38936849822134345,0.41025368844784404,0.4465166278464805,0.48267995220453486,0.5061677174064787,0.5171569735848505,0.5371431318762645,0.5626661869318439,0.6183147878989388,0.7058831040388318,0.7990391124750134,0.8927169455564523,0.9843820832260253,1.0,0.922923308577762,0.8747285248374617,0.9276909369550408,0.8814411622172353,0.7833446379925153,0.6820673880260459,0.6115056212633045,0.5958852672157149,0.5717469397659634,0.5246153739127748,0.46340411828059125,0.45527981831984965,0.4897239912984155,0.5338716310745988,0.5690663999425549,0.547146639085565,0.5026859500794978,0.45068827496688524,0.41409818726721737,0.3563730310214597,0.26221904736090895,0.14601023309323802,0.03877823571113348,0.0,0.013556562872695466,0.10075316852081206,0.21680630939072287,0.32648431686428747,0.385721122781423,0.43178516703500414,0.4953894405179584,0.5248944017061574,0.516890184517401,0.5665063366368237,0.5917046833504269,0.5221675469282783,0.5504702269156283,0.6460943239718611,0.7498347333069879,0.7950840980503822,0.71454371649215,0.6134709056729855,0.5394947543631696,0.5034609567138095,0.479603054689941,0.43399682614126345,0.3772099904542707,0.42353674256665697,0.4444775126542595,0.4139671821070561,0.37537702791141747,0.34166268782667686,0.3250258939448041,0.3410920855074093,0.3830588649800326,0.4357104569138808,0.4744242604843847,0.49564850806256855,0.5062044334058422,0.5064010782030279,0.5064010782030279,0.5064010782030279,0.5064010782030279,0.5064010782030279,0.5067976275781936,0.5184430896140477,0.507669647471293,0.4613961576431862,0.4191597669373439,0.38650873922273066,0.3930289583021822,0.4520880840541355,0.5152500918972733,0.5416596569398364,0.533709926414788,0.5868272483176225,0.6092973547375675,0.5430146390636765,0.5802151952704957,0.6786704333372184,0.7750240616806865,0.7487374711276322,0.6587072153432296,0.5772800120406032,0.5161459162435511,0.4872196085639584,0.4770335780488959,0.45776205329300135,0.4348233771145713,0.40847727284317825,0.3769607064108791,0.3526875797892619,0.3333074003607379,0.35211778359359514,0.4065809066639581,0.4601748373889758,0.4931362225546505,0.5060268855995482,0.5063866286528871,0.5018434736511153,0.48036927962722586,0.4940983085908939,0.5062326901487175,0.5070022909101026,0.520288153979426,0.5266834535184937,0.5207309871680863,0.474255580006401,0.4300018224156772,0.39482247161723905,0.38936537871409227,0.4373636999499233,0.50141386942341,0.5382854514726767,0.5343066538900452,0.5602264231037664,0.5628938010090345,0.5195489297060449,0.579124281041485,0.6812332618326211,0.7734462643330158,0.7493396395138898,0.6578861518339516,0.571867490459526,0.5168793288974953,0.49280443397032103,0.4796541817972835,0.4576365853764628,0.4367332097876808,0.4047285464187924,0.3722908694135718,0.3478700289544192,0.3305085927558067,0.35868780160684777,0.40651911589837475,0.4571876321876638,0.4947684982533662,0.5062909148265544,0.5064010782030279,0.5064010782030279,0.5064010782030279,0.5064136321260038,0.5100253687166099,0.5161094732038096,0.5234370025392172,PM
0.48473776103050703,0.515008949080721,0.6101987336896282,0.7200148956469712,0.7837693726811188,0.7872718825123477,0.7595076062155877,0.694317134898808,0.6241403265607137,0.5525620142635241,0.5397617916122441,0.6268643200009048,0.7137116548170215,0.7766823592821939,0.8039646270095733,0.8223802909784435,0.8009187413504395,0.7451404641778594,0.6394351771356113,0.5028737979112519,0.3456177436416681,0.20530145062314276,0.24494086940603443,0.3789650726804674,0.5461960041446834,0.7096377552881887,0.8516045502451859,0.8752781293057326,0.8046932443809447,0.7381994691940998,0.630203339369444,0.5096187389359494,0.41070152045461406,0.4684036584159874,0.5680567930233127,0.6589466431393629,0.6995287981163849,0.6828263249187247,0.6464645042860702,0.5994327840840774,0.530526850687913,0.5086922390712489,0.5910694897489539,0.6816190517681,0.7482734795852752,0.7899252847089886,0.8154093342293689,0.8317606929553771,0.8056340662919239,0.7175821400127025,0.5847782995766955,0.4319089252967956,0.2718721148909342,0.28141216954056647,0.4369926159477209,0.5834631713219784,0.7294084071122904,0.8846899506829673,0.9748310966103504,0.9259278971260172,0.8561129907991947,0.7776741588539333,0.6647433738312132,0.5406470971318735,0.5122488735717248,0.6016524936782361,0.7091082690924702,0.7857310885510853,0.7731612162495458,0.7220173202174727,0.6856983507818337,0.636448077707588,0.5684943338248041,0.5799315258131146,0.6708907700754625,0.7542103136155256,0.8063516433518898,0.8492440060145321,0.8554001829067794,0.8597134900848773,0.8362563377899979,0.7385256674179694,0.5981862454500031,0.4377838222374333,0.28206806180887156,0.2714509047072058,0.4327756472469946,0.5746717219787016,0.7244916253721692,0.8800890008211684,0.9931329469307069,0.9672340104670227,0.8781723955518488,0.8057363664996235,0.6976651762787882,0.5746446844863615,0.47957648277592835,0.547290079199751,0.6461535880772913,0.751039354244535,0.7974599766514738,0.7815751696663669,0.760291518287326,0.7144213362692065,0.6371756583458636,0.6096545620240925,0.6699028292907037,0.7500016428673697,0.8006644116855708,0.8306688891774567,0.8591304514608118,0.8699835262669322,0.8343871008574939,0.7316618636015142,0.5925863995978342,0.4716889816625365,0.3847010975927829,0.23916943519985878,0.29448815435775355,0.4576909683863142,0.6280687830713485,0.7926341199510492,0.9407411436632116,1.0000000000000004,0.919462286656223,0.8589630971711375,0.8015850437498453,0.6431761882357425,0.49446988112040735,0.39702554756169484,0.22911666641704898,0.05790240517849021,0.0,0.07924539710447798,0.1855222130202785,0.1066666278765025,0.02117080826017359,0.002379647105831495,0.09856971480761301,0.24725446396515993,0.4005184583441479,0.553463662128372,0.6930353208232147,0.7714468634919105,0.7757127393771523,0.7510528272726993,0.726321488122379,0.6892877935441972,0.6103385940090225,0.534606970745426,0.5154894031591244,0.5741907524332297,0.6431863327854033,0.6875059907374879,0.7038182017598191,0.7025477127438537,0.6155608945648923,0.5164401914514922,0.4165463723366658,0.38082127433822466,0.46592878925511316,0.5923465968295942,0.7195084447743985,0.7997151644457898,0.8492150151585531,0.7675956451975989,0.6051385635059261,0.43320424668178736,0.2671266980230871,0.1443206127338157,0.16119432068753792,0.29909940233978505,0.4514915075554269,0.5974654753241659,0.7223479446378378,0.7659078833414257,0.7750667695630713,0.7485910972848226,0.7051557841268425,0.6307202012801523,0.5400739627373792,0.4602496671478171,0.48045833176592234,0.5570294354802896,0.618472985864948,0.652999575604261,0.6935687295407269,0.665327974889903,0.5611495592949614,0.46549011999424383,0.4044313843572107,0.4463792534399986,0.5510277020666363,0.6645554827858438,0.7614336654344105,0.8255018771941551,0.8321998009330476,0.6873010334421967,0.5193284889268566,0.34904788403693265,0.1986528252284634,0.10801171475567628,0.1356413855291394,0.2814026944472672,0.4348578294221572,0.5816477666201778,0.7021054859520848,0.7404009694416689,0.727833195782241,0.6955253606781118,0.6384359610981742,0.5515349252490638,0.46397075126821363,0.4139894758479441,0.4562318605193689,0.5219520585226434,0.5711262529126553,0.5917120307172268,0.6237700515488407,0.5750501936928338,0.4816690861028401,0.3829713116244644,0.324842087665441,0.3825413344565889,0.5070524346327896,0.6298406862360832,0.7135935932982407,0.7552297048494903,0.6677507185584672,0.505036657911075,0.3377871791640472,0.17590082929033501,0.06603456082770931,0.06190204992888493,0.19160831557075886,0.3479418430647563,0.5028190380746391,0.6313079133728663,0.7107028556919475,0.7369297170606441,0.7098871864204637,0.6997471714077634,0.6361313590123472,0.5474794015077937,0.46314272934469924,0.4418122199160903,0.5068553049009608,0.5786582352308884,0.6458426675012494,0.6977393690786964,0.699154930196277,0.6319811869346528,0.5191017362227974,0.4325298131591815,0.35509997563962514,PM
0.7983541849717082,0.91071266100977,0.93836868067198,0.8264373904434039,0.6893462361316962,0.5481542294932111,0.4092439794578919,0.2715990692460568,0.2231274733153541,0.322444046187895,0.3823453190926849,0.32487849632832666,0.2463532959311323,0.27605894548441046,0.31379833231258947,0.2718178250566148,0.18938303103241805,0.1352032623861288,0.20385063409006166,0.29705080746299317,0.3679449964248669,0.43149877088439426,0.5400603284483931,0.6782410713230058,0.814540787829902,0.9384828203789104,0.9715893743577999,0.8634585022599193,0.7260297496454646,0.5795243187104042,0.43659474357538675,0.30075858785583454,0.26380896578895974,0.3597361172994369,0.4007978744314131,0.3405621859085859,0.2595890836035186,0.29106513165564185,0.337613438850213,0.3067900085491424,0.2289855632624178,0.16227522021640683,0.21022507126178125,0.29861821312576287,0.37523725573332256,0.4400131773436817,0.5423757517549246,0.6726656769397075,0.8073896715098019,0.9364351410785756,0.9999999999999998,0.9072235078055144,0.7726938897766764,0.6350662424352291,0.49406615743005733,0.354029595792422,0.2553917834925914,0.32255834029011754,0.41254762239093457,0.3879313638098132,0.29514450965522365,0.24305242240414704,0.29053020332772683,0.27695999940000093,0.20626366826842824,0.11471700859480283,0.07933968536224234,0.16120869878002342,0.2558523315032233,0.32563411170337786,0.39373327407311653,0.5001028488851735,0.6382536018090537,0.7753549113958071,0.903557361686188,0.9524424895438599,0.8521806535868619,0.7161227102127443,0.5707118447988468,0.4242560774870683,0.28959466634886355,0.24246161540925937,0.330621171907562,0.3916754612116218,0.34460432039170574,0.2610096763255887,0.28398835854454174,0.33261577307103063,0.300545239830998,0.22537230530344932,0.15370359633183583,0.19268217457305825,0.28348250474292436,0.35387934027168844,0.4205995977407222,0.5203962918318721,0.6497138203450386,0.7855875054812584,0.915730126396104,0.9994727823403646,0.9267998048339108,0.7933114970619337,0.6553307520635514,0.5164705332852482,0.37286812830579996,0.23590353303545109,0.1771625082161692,0.28090468423964743,0.3919049353188673,0.40817606732509026,0.32975452345179446,0.25647771215725634,0.3010685698618578,0.3161334075120388,0.25926210539292716,0.16509209606409359,0.08979596067774787,0.1368339615963956,0.2301639936231603,0.30266662364617614,0.3712610076710383,0.4668571953031353,0.59763426278386,0.7235966160184921,0.704953577129906,0.5788040377478259,0.4509391588749627,0.34967887786370544,0.2804526699418217,0.20749747160196352,0.1173762627379864,0.040657091181134586,0.06753188014276712,0.16107451321974375,0.24761674408779366,0.26794034659446386,0.20865258168386114,0.22440769891150136,0.323206138615298,0.36014737303315214,0.2648596210635257,0.12922568145392432,0.013349022377011188,0.030306489199200648,0.15723638187257816,0.2947279251507482,0.4379840853707868,0.5768240381347398,0.7191975156239014,0.8139947090106496,0.7351273782740819,0.6149308108493876,0.49582016641142146,0.3952919727877593,0.3294022697739154,0.262515045225739,0.16938354207051476,0.10003440162124932,0.13045504315285505,0.21598200658691358,0.27885945841026927,0.2564469589209779,0.19118087781192816,0.22636268584795438,0.3185608713458705,0.31670056779670364,0.2069409464704055,0.07961309373594627,0.0,0.08337262412238755,0.2201846275065893,0.3584907605775218,0.49844288859926356,0.6365309122231373,0.7498413170496157,0.743799009596134,0.617249950058824,0.4857519128496095,0.37391878031524617,0.30201701880790943,0.23411604613200354,0.14282420492610504,0.04452966086083188,0.016895135325234456,0.09337538662385647,0.18224957822358756,0.24555637972707234,0.21978976235381986,0.18677161525188124,0.2698966555698641,0.35933925903848984,0.3246360490799731,0.19878872522629387,0.07944113835944377,0.08283634806268125,0.20562946119595393,0.33259059611131003,0.4595203927800593,0.6020667451222301,0.737534150760643,0.7842743956507003,0.669756969740704,0.5404488555791687,0.43067225926860186,0.35996907881956886,0.29428908651662655,0.20408773732129082,0.12222548814347745,0.12332853482709916,0.2056953715628973,0.27708437499522653,0.2645783738596512,0.19797634118854845,0.2200595834065886,0.3134270764516194,0.34213965069622154,0.24601162979721658,0.11836677487806657,0.024432872341489276,0.09172016010221262,0.22770429242824597,0.3674482789289957,0.5089895892805221,0.6457348572102541,0.7671122414498674,0.8404394269427431,0.7482355114976407,0.6213666769764419,0.5177923967181026,0.4121242332634678,0.34520873116913076,0.27617019685024746,0.18779313790752195,0.0981234589476907,0.08356178939277803,0.16491752656059666,0.2417699704458649,0.26070920024923017,0.19234277547971956,0.19328942451833186,0.28383321136490536,0.3355297286750478,0.2527909623624327,0.1197533494098435,0.0030365962234819577,0.014295798579493368,0.14002690328434308,0.2631374468176719,0.39501491988003745,0.5343274447222879,0.6727555803257272,0.7758255167667667,0.7022882395837307,0.5694132039226816,0.45044922385244646,PM
1.0,0.9540073343587956,0.8970266552004462,0.8339164468459361,0.797899330390154,0.848928699625354,0.8905088976509474,0.8945472237980057,0.8945559285777525,0.8945559285777525,0.8945559285777525,0.8945559285777525,0.8945559285777525,0.8944029140632903,0.8875456678414775,0.8996340779748118,0.9233373329299055,0.9459918115459187,0.9596497102127661,0.9306103539862884,0.8663449107775394,0.7881335815060426,0.7043943988897401,0.6224875492748829,0.5990071084432955,0.6584658256351474,0.7110410441197845,0.7494130797661929,0.7333813138689651,0.7241361744250607,0.7400040702107384,0.7531151061949539,0.7347294009032908,0.6777473000185519,0.5951201677524174,0.5012593814850681,0.39476710694813155,0.2841445413033328,0.23339506325014447,0.31565447232884525,0.42699846943193664,0.5356370606296785,0.6350876703584585,0.7446172479586832,0.8419348263954243,0.9001756838722303,0.8547187761448685,0.7950551338617182,0.7631136628918123,0.7144107126803703,0.6489504022721415,0.6257044539949206,0.6823322422722415,0.7483376309912306,0.76818661773294,0.7538940570410246,0.7293296866694021,0.7130876205998096,0.7100378770140825,0.723164689928506,0.7354000043679934,0.742246630083331,0.7570500332109544,0.7814237169932934,0.8122876510432064,0.8253575923549534,0.8018751690879515,0.7408520759842201,0.6729985039591702,0.5983463374209843,0.5738605370891627,0.6182939557272622,0.6704432007889265,0.7173461804188368,0.7500102701587208,0.7796010422641295,0.7882357639995794,0.7555536876344173,0.710490979685614,0.6738593023704587,0.5985677116734989,0.49925162136103207,0.3898503806656186,0.3334597431845845,0.4141342650443258,0.5246393431129706,0.6241640398824031,0.7320186443911241,0.8324796467147433,0.9302326241445931,0.9650688702378183,0.9003323317810654,0.8200680629452086,0.7888381129587416,0.7478303265569712,0.6826547383147905,0.6721894840966498,0.7307783037454079,0.8098537033996736,0.8848547243302516,0.9244958583506442,0.9203746779335678,0.8743386594521598,0.8320675161140976,0.8400678404067752,0.8537367545035699,0.8605422250652754,0.8606251872219706,0.8606251872219706,0.8606251872219706,0.8606211065699139,0.8583833436682835,0.8300694932344039,0.7761279945685295,0.7082965884058896,0.6304696011888118,0.5571672422181684,0.5704568432797275,0.6194297816971792,0.6716316658551498,0.7080511255336122,0.7332841947503845,0.7101841803041578,0.6724396268526802,0.6348313632723368,0.5849176588889735,0.5017243231993924,0.3908985457133345,0.29872401492901535,0.2800359367445209,0.32522075566708075,0.4307933083311708,0.5103852707807035,0.4922599067838056,0.4977725210706714,0.5600504806914222,0.6387028762597784,0.7131724362148546,0.7744757853460311,0.8131940327478699,0.8198402228948765,0.8155551675524979,0.8052649263200631,0.8170976398500267,0.8192606255963502,0.8069701429703304,0.789136442608366,0.7738192863755118,0.7820678111404393,0.83590780878923,0.877624495019099,0.8469992600998255,0.7764942052905206,0.7002547313975809,0.6266945521490519,0.5800541104185042,0.6045078180815087,0.6716202140271226,0.7295561124216317,0.7594320345542336,0.7783703839460729,0.7068437094673432,0.5986490145469774,0.49955661325825407,0.3897489090154411,0.27876806567410517,0.17939652793913297,0.10401286631281392,0.14341820072661582,0.2369423529831165,0.3347731455992542,0.4359244404348743,0.536217660735828,0.6234071773804186,0.6683118572467244,0.7118229525495359,0.739665932811373,0.7200383589748718,0.6892984815179641,0.647828929990399,0.5959906679995841,0.542713833290215,0.5061235979902294,0.5292594201931902,0.5938054147949994,0.6668044496323238,0.737197536527769,0.7731155431190513,0.7576732706310416,0.7329231987504268,0.7098299122407132,0.7005957946666759,0.6851145925431013,0.6744104835066782,0.6718108111929397,0.6672966563185372,0.6689219624858138,0.6861912343593581,0.7117678462215378,0.6979489320744539,0.638770399089239,0.5727904408972981,0.537780826637325,0.5788567778900533,0.6497674871803865,0.7044793007112009,0.7414421213106057,0.7232872331823841,0.6233684411260159,0.5150326528260063,0.4154680546336582,0.3047633455955454,0.1999727339538646,0.09827503751070621,0.008028479052771598,0.0,0.08655678573835734,0.18547087632758785,0.28991336450273897,0.38896870849458187,0.489382307081879,0.5818284397035387,0.661534047829762,0.6983208051846419,0.6907039723360926,0.6731913225674795,0.6800625153636624,0.6770602555402649,0.6187938422789876,0.5611422831188286,0.5242038348639859,0.5556684827011202,0.6348513021291522,0.7187599945443282,0.8014959305073037,0.878282960537693,0.910505201187108,0.8938697566754183,0.8691390490258413,0.8449625338272502,0.8379649338697814,0.8500121804854976,0.8538235098664209,0.8538390389508144,0.8538390389508144,0.8538390389508144,0.8538386695745483,0.8528471034427927,0.8272160091430849,0.774047094030927,0.7297704294765932,0.7489269524099376,0.819791757685671,0.8817014124142006,0.9397917916184975,PM
0.40146801668193555,0.48325724707746587,0.5736021384662047,0.6645060858062355,0.7543678987201956,0.8459941094962147,0.9247705685756757,0.9542027361591912,0.8979203628148926,0.8102433751884501,0.7194322270284148,0.621604961501977,0.5211233438977134,0.42763714070246084,0.33236091833587333,0.2666576005457004,0.30395344781731004,0.36631401050885803,0.40638682439288476,0.44227259524955786,0.47136018868286844,0.47808799975963034,0.44456693179453244,0.39034498899091097,0.38132052281081186,0.40325888083040806,0.39509062505002013,0.39509700967517536,0.3815623647582942,0.3670433286937451,0.35851225121237795,0.3522753962219498,0.3293074989503435,0.3064260244713648,0.261849108640799,0.1937209062126286,0.12465533417884278,0.06836781833146399,0.08734816712789084,0.13720850700313503,0.19269571754023773,0.2322880851927167,0.24195987335008184,0.2553602047986552,0.271471651487597,0.32871345174199207,0.4081040978271393,0.4962215657357254,0.5857910721115174,0.6766434091033042,0.7702261936665356,0.858054548794241,0.9336832728593054,0.9548311184149261,0.8854051937711718,0.7919289393061633,0.7008587715307095,0.608035815429077,0.5147951295964719,0.41886298206463146,0.3247341760531064,0.23401896575680237,0.17204322816484496,0.2096082592741677,0.2648029800012661,0.2928446641042697,0.28867469478171803,0.273471319837266,0.24337011580408818,0.20690523354507184,0.2255248764147475,0.26473645482339747,0.28962468259984875,0.30627321319137235,0.31617651972992333,0.3174841129683055,0.314512741727756,0.314476267027074,0.3010342763312661,0.2723108750441787,0.21798834854991034,0.15677260192423015,0.09087815557974044,0.05962135181413575,0.10371659701597769,0.15805643854173645,0.21224966349180008,0.24517735923648765,0.26191146947157606,0.2651971003301081,0.29013123783189587,0.35732540578551153,0.4406359534876454,0.5361366894390984,0.6283163895814317,0.7148733473377649,0.8027976921653301,0.8898370429268481,0.9634822914076027,0.9999999999999998,0.9450516201043861,0.8575408888667047,0.7663620874410022,0.6742071976927229,0.5795664334181734,0.4840933646449528,0.3902715974373747,0.2966339357177954,0.20607117501378425,0.19080302468259847,0.2550454616161997,0.28392722872261156,0.2933001277936331,0.29242549487770275,0.2589692963590904,0.22585162175815499,0.22397530217245065,0.25693864152215773,0.2848797581135123,0.28746941752961974,0.2927181546401376,0.291395492427055,0.28179614695675714,0.28909695393236956,0.28130199681218104,0.25245407309540524,0.24623944242136053,0.2440011678563554,0.24319298175686122,0.24217788819979957,0.23762878094236406,0.24033636660558955,0.22762604752053694,0.19087225518418416,0.16047814213062872,0.18376640479354966,0.21193848732676135,0.2405447924106332,0.2439836761094618,0.22717015745741165,0.16865853735070524,0.10097829746371656,0.07198232069703137,0.13477245338585275,0.22878712479113839,0.3213753746270027,0.4187623337425064,0.5109479817324589,0.6076873781555288,0.7002025554927027,0.800023661502242,0.8885237843344342,0.9003466933467703,0.8224153482396639,0.7345959869141405,0.6473746430359084,0.5577895423736197,0.46874295884910633,0.3842460904277447,0.2996543822888553,0.24436829780743952,0.22387369971599136,0.21402084269504296,0.19213684501102613,0.16190218852088467,0.10719912672091336,0.04814170525397987,0.0036351426568159706,0.02304193528340548,0.0869618165196322,0.1537131948704482,0.2165127085975893,0.2514370595832771,0.2679343998648209,0.26111201113202465,0.2726145267896809,0.26688435043128167,0.2587890646631863,0.2550983668835374,0.2416310581484833,0.20809687932742116,0.16754662762008854,0.14973007826606355,0.1828175097704272,0.22213285381122727,0.2345820253185884,0.23282860297354424,0.19066028714469496,0.1227523718860386,0.07057989436463608,0.10419197789733592,0.19164624526768148,0.28503601402449097,0.3772430020237796,0.4773595251637952,0.5775199581882509,0.6698208170518518,0.7620086915373252,0.8512895076613154,0.8817864113824079,0.8087286971413798,0.7223328659009469,0.6349513450811932,0.5459881786947853,0.45560903391358765,0.3624291312774972,0.2853869671086733,0.22925024951612416,0.207691363887061,0.20134801523714763,0.1920003478211294,0.1733469219513879,0.12551281639134237,0.07058068376569371,0.02015908409142675,0.0,0.04174565673346464,0.10916211817785326,0.18360533471172613,0.23965289682320945,0.27495364104639664,0.29779156530942674,0.3007938423851859,0.3052397448133479,0.3282504554175365,0.32815135513376537,0.3380609652024107,0.34912511392530443,0.32302424510999406,0.3274788264646251,0.3527268669543313,0.40608934567436195,0.4148748412002192,0.38031155890088475,0.3407266524445458,0.2949244642697806,0.2273089256299321,0.15469619405477042,0.13646488057958295,0.2139454284586071,0.3068696349459821,0.39994948953493314,0.49587715344863237,0.5887637890748485,0.6832734337494772,0.7740738638477851,0.8574398427010907,0.8546343122341618,0.7747978290716333,0.6879039316553406,0.5969639904318476,0.5025713491690424,0.4084134899339855,0.3206807218708614,0.24576798208815642,PM
