0,1,2,3,4,5,6,7,8,9,10,11,12,13,14,15,16,17,18,19,20,21,22,23,24,25,26,27,28,29,30,31,32,33,34,35,36,37,38,39,40,41,42,43,44,45,46,47,48,49,50,51,52,53,54,55,56,57,58,59,60,61,62,63,64,65,66,67,68,69,70,71,72,73,74,75,76,77,78,79,80,81,82,83,84,85,86,87,88,89,90,91,92,93,94,95,96,97,98,99,100,101,102,103,104,105,106,107,108,109,110,111,112,113,114,115,116,117,118,119,120,121,122,123,124,125,126,127,128,129,130,131,132,133,134,135,136,137,138,139,140,141,142,143,144,145,146,147,148,149,150,151,152,153,154,155,156,157,158,159,160,161,162,163,164,165,166,167,168,169,170,171,172,173,174,175,176,177,178,179,180,181,182,183,184,185,186,187,188,189,190,191,192,193,194,195,196,197,198,199,200,201,202,203,204,205,206,207,208,209,210,211,212,213,214,215,216,217,218,219,220,221,222,223,224,225,226,227,228,229,230,231,232,233,234,235,236,237,238,239,240,241,242,243,244,245,246,247,248,249,250,251,252,253,254,Target
0.77406260351895,0.731648120606837,0.6790315832320821,0.6264833352938093,0.604717263193715,0.616021334361087,0.6263902478937717,0.6311364994938418,0.6388278543472292,0.6534527651481101,0.6440884749518052,0.6000173512716167,0.560380778028321,0.5358469685715097,0.5369984524605658,0.5552475805695327,0.5536719268105414,0.5487357049261103,0.5607824291069778,0.5614112914071974,0.5597585417038429,0.5614417708573953,0.54761178037536,0.545335876200786,0.5464568754691175,0.5491770909659681,0.5385890537631719,0.5201867504858027,0.5115846169302412,0.5136050292893839,0.520568945037676,0.5317157248873239,0.5140749919833942,0.47332302735641774,0.41255438040051606,0.34374977116293315,0.27313503771437353,0.19501785568108354,0.11948084669112946,0.05301248900796929,0.02455477124142269,0.058203734620720704,0.12985283349989984,0.2061360361643978,0.2754618669638458,0.35293602226051046,0.43139563339063836,0.5098546328671569,0.5871412108327074,0.6563746853425634,0.7329757895245568,0.8095245372317537,0.8286868600111152,0.7748494024838857,0.7174002372853379,0.6722301901591468,0.6216661110164583,0.5731120559038436,0.5410713319158289,0.5301599828040844,0.5387096248004946,0.5511491279085552,0.566445027504179,0.5851498325112312,0.5831784032634675,0.5465653105212784,0.5037857583490062,0.4825669486053803,0.4988618444588071,0.5125711043621219,0.5158291302779958,0.5195437160148391,0.5340135419918235,0.5489309731269987,0.565363850770982,0.5675459625840424,0.5620094379367522,0.5594210090572298,0.5608124358022002,0.5522722957627162,0.5423801745377645,0.5403729929496921,0.5431984307683655,0.5585792269645371,0.5681049451931439,0.5479697882085979,0.4869241571528393,0.4175804656303084,0.3397534656171086,0.2613721352714069,0.18833794298121642,0.11648769933181824,0.04239782063242847,0.0,0.03450132431200803,0.10536251118121509,0.18363925328662778,0.2595108032279039,0.3290793649745798,0.4067659104073187,0.48522614196963065,0.5636862700043144,0.6413871242218361,0.7109574340126359,0.7867217364896251,0.8475958482535211,0.8165113653103255,0.7636004407703834,0.7210619519915336,0.6689713250571991,0.6135555387129037,0.5827504847842364,0.5762415148408648,0.5763287051819439,0.5888533898530885,0.5970856091302179,0.6106213790183268,0.5916169298878982,0.5542388148082857,0.5155543215577489,0.493277916609,0.5046378868516357,0.5180403754617651,0.5280983767904031,0.5320857892636417,0.5347249514861663,0.5351202305386946,0.5427876743699709,0.5494166605021655,0.5626217548590138,0.5648827605555489,0.5651270986464356,0.5745302880882772,0.608441375985626,0.6228458894906754,0.6109165152235823,0.6009698732140765,0.6032819943077892,0.5965428323584747,0.5876038545393689,0.5875970055161892,0.5883049371663052,0.5770269665368672,0.5734017836979552,0.5667415654888985,0.5653237435690526,0.5515866185054981,0.5379701248191864,0.5644768087795209,0.6064879674270618,0.6401520839909589,0.6540143617904739,0.6410995477980423,0.6234576041273143,0.6172199649806192,0.6161718828499014,0.6268297526339619,0.6759628190977371,0.7334125051121585,0.7781707864488185,0.8234087037625859,0.8816803180858745,0.9425814361783187,0.9630896234952762,0.911036503265598,0.8366137779709379,0.7627705789997064,0.6916748384790015,0.6134764868057248,0.5350163664891812,0.45814370958533956,0.43527741132326137,0.495322727110278,0.5596981101074949,0.6050656161835077,0.6075156527293821,0.5952333802682259,0.5797904628653445,0.5754965815738646,0.5834577881955474,0.5934410237107295,0.6003407333039317,0.5994724555802577,0.6063189995692191,0.6063617916386173,0.5979130389454077,0.5835325895906001,0.5715759926216315,0.5580631707062131,0.5569739056715866,0.5447792520518371,0.5306790452647623,0.5361192707617513,0.5783603185622976,0.6158870972001933,0.6292921109686176,0.6138855131458565,0.594670590684035,0.5799575280155305,0.5720981882005638,0.5832552901798504,0.6188048999554245,0.671935992096427,0.7205676671498147,0.7683078737732678,0.8249435594743468,0.890341796031141,0.9610022256554849,0.9999999999999998,0.9641939629790117,0.896626148696692,0.8216088062611806,0.7434199433038742,0.6721907129070821,0.5984588303975651,0.5200548177615758,0.4417331762051553,0.3830939559414983,0.419618997446666,0.48524419652134276,0.5409717197637327,0.5625045792039838,0.567961661037778,0.565313389928124,0.5562058839663295,0.5636023473100604,0.5663770022329,0.5807227913556237,0.5950247976729297,0.5974593083282371,0.5911068822375334,0.5860472973880586,0.5941913361781392,0.6034631469471246,0.599537291786101,0.6054933262539344,0.598936817362749,0.595191452362003,0.6013736775332521,0.582767791010103,0.5757475796634768,0.603727759933639,0.6441183643871182,0.6831382536110293,0.6892468736778248,0.6739398489209003,0.6670193119751746,0.6614940299690242,0.6518607808755197,0.6431222758451189,0.6804773982303074,0.732240762345963,0.7786855641246888,0.8261120905703423,0.8771409366943097,PM
0.8631848690355017,0.8529194608132,0.859724273730055,0.8629745501576533,0.8493888320644112,0.855281962121031,0.8889517484648806,0.9082069963309891,0.8661095714161275,0.79400072981392,0.7143847966115533,0.6378469772690434,0.5632042876802181,0.48298168495105664,0.4046138612051988,0.3313508327052608,0.251640933437697,0.1742272622352703,0.10051693811395646,0.03671415703720815,0.059496566972063514,0.13074329286242847,0.2106737398274734,0.2899895148029794,0.3629999335015439,0.4420366259644204,0.5222802165250346,0.5966994423461562,0.662996517454012,0.7302353952805152,0.8024298900596287,0.8674894305984455,0.9102741118163218,0.9184996589256804,0.906763846556063,0.8787072924605748,0.8395375378105141,0.8052813001056713,0.7943008016611011,0.8255021225387988,0.8692367667881804,0.8998370412591805,0.9005142624031719,0.8753648584669016,0.860096925889948,0.8428235733997003,0.8348562309439675,0.8481616152458753,0.8795488356641783,0.9240779178281175,0.9212735689435378,0.8863832398612399,0.8378303872168018,0.7783360918960454,0.7038406031205946,0.6255620053660955,0.5523096357407551,0.47258833927027055,0.3922619499644966,0.31690872206652143,0.24113196109613977,0.1607819897291557,0.08251632108720053,0.013009213904077721,0.0,0.06572621849846894,0.1409711694343494,0.22119234061338844,0.29695697325829573,0.37232259668589407,0.45264986787431916,0.5323658909064106,0.6056137282904603,0.6832267349838108,0.753114333523834,0.8078159584752389,0.8275496454748881,0.8216277896799666,0.8170512866051054,0.7942973281867236,0.7862890820601705,0.804567619097583,0.8427033838970008,0.8729821794562671,0.8815318321226671,0.886843703322806,0.8894239387044198,0.8936014381245212,0.9087156512706802,0.9268983774866499,0.9381459782771373,0.9426628635234142,0.9437896022611152,0.9385661431755226,0.9327350789743227,0.9308656381075717,0.9173691855389681,0.8943968431019134,0.8829064485958542,0.9057322621056885,0.9348474944641876,0.9171307233385488,0.8471499992721461,0.7724061895108423,0.6921481521940986,0.6116864724887217,0.531224789462976,0.4507752968682137,0.3725744095081469,0.2992259449882271,0.21941911072332787,0.14128344596135756,0.06819386472584288,0.010362143625478604,0.04180711588902397,0.11311181573196327,0.1927441129989671,0.2729654621500124,0.3475557404576308,0.4241552525972798,0.5045513311683172,0.5829776376356504,0.6561959497359859,0.7329391046839482,0.8055529159731829,0.8622652431979496,0.8856091002454762,0.8842128135105614,0.8671208432771775,0.8435221587625827,0.8096917609461793,0.7835534809141649,0.7915475096970419,0.8234099309189331,0.8548053866671907,0.8622957653288437,0.8678994630478727,0.8709033805138606,0.885353848432834,0.9022409804552456,0.9163764270561512,0.9388294458834296,0.9216869536583598,0.8989233622683974,0.8959202414918161,0.8926147283151067,0.8837205542936153,0.862745345084377,0.8272872161442428,0.8147770621365786,0.844316601603768,0.8749753386494363,0.8996521407188913,0.9167374684195584,0.9190704140673782,0.9091548099169522,0.8811925729968189,0.8253852345938544,0.7566308341395274,0.6799240356001053,0.6067212839941554,0.5282731760672887,0.45269050514584874,0.4505833138061355,0.5249885896886533,0.6054150133014149,0.683268293470463,0.7535066701625932,0.8117848442907092,0.8708900049700405,0.9437058624202832,1.0,0.9848568326283949,0.950385586014957,0.9219136951252129,0.9282469796188919,0.9481629997109604,0.9598165470824336,0.9647299925733037,0.9723224613239083,0.9770604214042202,0.9740097154106171,0.9668812182290518,0.9604331821410592,0.9415684579554191,0.9241016070553345,0.9233071861428319,0.9222276628216033,0.9165607286607897,0.9110823403059156,0.8897414127603103,0.8545546048835038,0.8242040759567109,0.8274451269604142,0.8448269840018299,0.8534317076401989,0.8600306667787583,0.8524569972047416,0.819205822595765,0.7603879124376993,0.6890665471974968,0.6090906895680293,0.5286311765141056,0.45085680140882545,0.4340638378029398,0.5046062791711032,0.5843566374042062,0.6577161831241365,0.7357298253748188,0.8105048256400549,0.8827120770779207,0.9374252199083004,0.9423426212415433,0.9618446800415743,0.9724087528561489,0.9373445265842237,0.8921430392441116,0.8699172683604659,0.8723955537552779,0.8894808248526718,0.9104848898145796,0.9323094936688898,0.9363669509237753,0.9101002291680476,0.8693601408798053,0.8346030966129447,0.8474406121638196,0.8817888509601473,0.9193876824514386,0.9402735462997762,0.9556560650077182,0.9475162370130152,0.9244839416419219,0.8770289142228815,0.8121274563676133,0.7405624341859203,0.6610003981231642,0.580541354504827,0.5024527425684568,0.4831789635097403,0.5529845617031195,0.6332248412117247,0.7082733085518715,0.7842860026968534,0.8601510521730622,0.9292095506204494,0.9708790079593674,0.9471973958329554,0.9201856926213674,0.8898172239539914,0.8871032359698725,0.8994638410454008,0.8928006186706523,0.8852716083625827,0.8952687882574766,PM
0.6874412670081211,0.6828839489333505,0.6592433274059268,0.6502808709853922,0.6501379956009772,0.6539229850977395,0.6706333158339359,0.6843474283643611,0.6989667885446855,0.7116744642567494,0.7026392203260157,0.711609418827126,0.7151840796655069,0.7263002190863497,0.7306900616057308,0.733388904943149,0.7447281345756234,0.7245441779907122,0.6877320328206866,0.6721988737164306,0.6951311875514508,0.7248083960034739,0.7171459141141479,0.6850031092646973,0.6156158875557338,0.5352360463059771,0.45642318942069604,0.36997781053755086,0.29073205081745046,0.20286906782364023,0.13322613143077522,0.1312176209139313,0.20347197771456838,0.29353193267004185,0.3790966835387577,0.45985019038025543,0.5494924873595495,0.6283998200570422,0.7066351896164296,0.7798529764440527,0.7764139206170246,0.7182109326221289,0.6880754908220337,0.6706497466232415,0.6654595126592322,0.6510319002315668,0.6277746847680712,0.5979732992792313,0.5720687812862306,0.5710702635023037,0.594352638420474,0.6202051657672301,0.6453368756347762,0.6500837392437058,0.645538439712467,0.6259532322253731,0.613498385096471,0.5898093079014934,0.5946854467798075,0.6036720932276909,0.6221394021023046,0.6226071466165148,0.617860772773918,0.6114858663541853,0.6042312914654562,0.6091046730370895,0.6046455521929346,0.6166255965271503,0.6164274602440813,0.5927526512037473,0.5534960681924455,0.5417637742669088,0.574112668425165,0.6073178998870246,0.6368794377754718,0.6246262023347597,0.5586030574983241,0.474720088257492,0.3957632120683159,0.3078563458280046,0.22319637570169215,0.14170532570489414,0.058389203404852985,0.0,0.026257920550612823,0.11060520361799053,0.19702147573276552,0.27708038903774845,0.3675209023756105,0.4585300770594549,0.5485882077794981,0.6275761133133764,0.7055323062108236,0.7541752262183645,0.7127140287055691,0.6690703594753655,0.6387601420766464,0.6340202468444924,0.6322688919407176,0.6147448710177343,0.590412757032174,0.575060384183657,0.5699191635215284,0.584194133487852,0.611184431909567,0.638558774301456,0.6500305241866116,0.6555503889200343,0.6540555894873328,0.6501454213748676,0.6498876516959751,0.640857776271929,0.6341429723009515,0.6398406168933124,0.6564666541273594,0.6676976179683112,0.6662500214913027,0.6661078817898876,0.6550094973501457,0.630645911417075,0.6164479727401035,0.5964669269735192,0.5621919038806524,0.5448301735044572,0.560710501301811,0.6033824870195117,0.6358748047380889,0.642323632891054,0.5944136741626154,0.5172085223147893,0.4373029446402681,0.39062571652473066,0.45585138948895976,0.5394827998008611,0.6193150994049867,0.6793936933276745,0.7028425416704698,0.6853002943893571,0.6613404256363844,0.620586160755296,0.5978833108143617,0.6283105008013852,0.6523222466395819,0.6653876111302228,0.6877059634209441,0.7043821696231904,0.7049203979755561,0.7063125944411328,0.7178589634215506,0.7027713396646047,0.6890907948971638,0.6888032328494571,0.6888032328494571,0.6893393688494225,0.7001869951104895,0.7038927347345938,0.692104882488561,0.6882527529843929,0.6710362562395851,0.6449080881332301,0.6266444510287341,0.6249976926515703,0.6412952426604623,0.6707087207572524,0.6858986303342629,0.6763382744482707,0.6791022927765384,0.7113211089947615,0.7635204920710743,0.8363542460897824,0.9076916263468258,0.9380612142579032,0.8835118039773069,0.7944097465158091,0.7128790353159071,0.6342876633841366,0.5582111916096517,0.47800485930086234,0.3932531874457301,0.40089404413084884,0.48053321317713626,0.5610923722235519,0.6346861205456689,0.68141928434442,0.6866413415271926,0.6632545672172672,0.6340869222422416,0.6025578848532107,0.6229455080413291,0.6553693737401964,0.6674299992793622,0.6658111356955834,0.6574130121478197,0.6644266490027793,0.6564340276574212,0.6509023899885129,0.6700898785223917,0.6726815386604024,0.67234328105926,0.6623068153642286,0.647494025851092,0.647765850861763,0.6603478458069776,0.6799199993372498,0.6899197284705219,0.7020481947459989,0.6955589887289637,0.6726954729802661,0.64591642555057,0.6199685712855905,0.6246416955364977,0.650999717375266,0.6768590165072816,0.6977316498977375,0.711123042118861,0.7177277607731547,0.7368006262019247,0.7616482572475292,0.8216450090373457,0.8971987981897325,0.9693702830659454,1.0,0.9499515281720199,0.8709218576070907,0.7931474941680134,0.7154310063397742,0.6370310606074647,0.5725506953572941,0.6174328658213932,0.6898895799111942,0.7448460286377392,0.7680428203000025,0.7790262762429925,0.7687845542035765,0.7312724432805102,0.737239727959671,0.7788200389867863,0.7916652257471584,0.785302917829859,0.7792954980217512,0.7785006138799191,0.7698512898016272,0.7754735126380021,0.7645670837957113,0.7535758850900915,0.7532656557056256,0.7511916241301444,0.7312875346660648,0.7143418753652289,0.6967428748984834,0.6890515997665339,0.69727040708639,0.7173446984399874,0.7394759552763444,0.7437001243400148,PM
0.5413415906652412,0.5385882283489916,0.5325849970462464,0.5019514590554834,0.4683383809930737,0.43080298300132025,0.41126483656972646,0.40258562826558597,0.39827978919493656,0.4082605373616821,0.4097542021917344,0.39267280738009536,0.3686873603808949,0.36064637274533906,0.3563390318452222,0.35618565274791525,0.3512081014800401,0.3225864687347073,0.28437732774636393,0.24967701900131933,0.20933355004140441,0.20723477493889764,0.2453785292005657,0.28205500009796936,0.3120520199550172,0.3024415369865521,0.23649780775507434,0.15959425123016313,0.11371970338661885,0.05426917136961329,0.0,0.045746635184146456,0.14065512133181413,0.22704103902850203,0.3179743708331233,0.33072949986392164,0.3002164979532864,0.28414497557589335,0.279054497382929,0.2656979289131134,0.2535971498458798,0.22101932605966512,0.2105495132223858,0.22402108303685875,0.2509011463993911,0.27096673206190314,0.28420289690658684,0.2986469674508121,0.31321270285192915,0.33236932452750656,0.34594328355888315,0.3569620624935754,0.3781677673873829,0.39737390489204394,0.3875849205459283,0.3518967352901621,0.32050778300323524,0.2907496677062382,0.31356499047315545,0.35820861346838617,0.38525972183393753,0.4184431429779898,0.4006057857696117,0.33370762466823445,0.2559232699433287,0.21013465432845946,0.14265374091936733,0.05359069514250958,0.045212839039901365,0.12827703104807986,0.21553050492432346,0.3103740854001096,0.3974303651652322,0.4622834520109298,0.4489540222049815,0.43225581793284995,0.43633421418959273,0.4246027557908776,0.4080590271403537,0.39963136633619145,0.3817719719933801,0.3764906063711795,0.4018122978454661,0.42915444468022335,0.45670626651607815,0.4679695355738249,0.4928060706904658,0.4863200837488786,0.48388153069047,0.48561279249680034,0.5049821969106243,0.5117757931927889,0.5409283450437532,0.5705971741304436,0.5802602713111131,0.5655099951211726,0.5446095727401699,0.5600847018475776,0.6110638950843303,0.654246250238065,0.6929877166661331,0.736853978279624,0.7302532925986762,0.6592633915309585,0.5796946179920348,0.5198280171042886,0.4426395202891471,0.3575892644592287,0.28443430113818335,0.2907970137238127,0.3713894149906092,0.47078958587059283,0.5611886945955691,0.6532673905593538,0.7509284477490077,0.8058787974316046,0.7783852418980168,0.7475544130366796,0.7514477103672461,0.7442008389021395,0.7320148723076474,0.7008247829470191,0.6695313542480448,0.6508748806538387,0.6532860736632968,0.6545103114350166,0.6490684071938615,0.6551099156606992,0.6403378759313814,0.6231481399049965,0.6241185103534552,0.6704250618706276,0.6968377931202392,0.7173826511564996,0.7109351566398616,0.7262442657729182,0.7333403922940418,0.7207596735285864,0.7301702592809525,0.7564642819709353,0.7812927591857659,0.8006948665526008,0.8161097778739865,0.8445679111301034,0.8334802357292621,0.8683198886735402,0.9178034579235574,1.0,0.9980987235272232,0.927602239642539,0.8422420776056487,0.7454732233490855,0.6519274655703495,0.5984047813650903,0.6418785897202559,0.7207227814709545,0.78874197640262,0.8247883456782583,0.8234866016064393,0.7750582557980179,0.7266928311696379,0.6882906003576243,0.6397444131422456,0.6303568010913971,0.6393103360339558,0.6506293286270135,0.64446350366554,0.6161729201571706,0.5860556060638822,0.5778728003727989,0.5671805039823599,0.5465457201895774,0.5458853390923193,0.5447758711511073,0.5313088675974553,0.5220606683344715,0.49378371798491116,0.46417575870603933,0.44074774389248583,0.4521734334358998,0.47636823039101817,0.4904078138125487,0.4957741218490721,0.5043112730194554,0.5007558101829113,0.5429543417986791,0.6006131306970679,0.5910834349853422,0.51770468623906,0.4313731080682901,0.33965201942357304,0.2831421133061194,0.3164427797745635,0.35578816438029826,0.43359690913513704,0.47389965070281903,0.4866471934769052,0.45914137345141093,0.4225028240621609,0.39625498989736885,0.3724890771445075,0.400626452262681,0.42981855162731364,0.46336445406347515,0.45726975233728906,0.4354284818323193,0.4177495617874376,0.40209420869094226,0.38446809413077343,0.36657658887718414,0.3581349099696647,0.33613116946835175,0.32425463301609847,0.3035703305131672,0.2822643304746477,0.2635879685983289,0.2861112286404417,0.31207655116423005,0.3285446399324976,0.34312552271089336,0.34536673721058087,0.35749689342167557,0.4126338788297721,0.46506954369112785,0.44262511263216364,0.36703830223766465,0.27585138307729107,0.22751343815218394,0.2712440015686206,0.34080070807298757,0.36977767294608066,0.37416512637149024,0.34475324432069243,0.3108498317353523,0.27998302450903356,0.2977826299880606,0.33220928564384167,0.3701761043954761,0.3965618608685846,0.40051073023930917,0.4125693243697941,0.4182314946099921,0.42493966810637396,0.44838611069005374,0.4695516144245153,0.466853324109767,0.45517491969027724,0.45936437460127566,0.4643444801385228,0.4936062580955012,0.5352794350672676,0.566439501867698,0.5834835927974664,0.5981651347108561,0.6005969991377325,PM
0.7827642523996654,0.7853361865440132,0.7640518697253051,0.720798737286453,0.6684766334301528,0.6022001371232739,0.5937559310863698,0.6455093967761125,0.6748245457799054,0.6993894261165381,0.7033806048404725,0.7033842440668447,0.6909542616629853,0.6800571058982761,0.7004954787610438,0.7254197761445378,0.7301272588668091,0.6617713939213572,0.5771350557505432,0.4860961795049119,0.39633971596467776,0.3110018060898956,0.2193482466266019,0.12929043866752465,0.045557619965698515,0.0,0.05955121787214235,0.1454058233418729,0.23660311540323287,0.3217080226981295,0.41189766892574853,0.5039217100298927,0.5904823659287981,0.6787007639052911,0.7681938313008454,0.8007294931809958,0.7688088861508251,0.7496199795553793,0.7537168297661039,0.7659499361147575,0.7393687049387225,0.703085855443512,0.7158614705526316,0.7343692069067402,0.7412111170164664,0.7526858426373022,0.7524046430656617,0.7443681515344587,0.7683353957014434,0.7944834295896206,0.8013338144624267,0.7475030922466672,0.6772743936026941,0.5999335727404049,0.5168365898115499,0.4515049001587059,0.3738001501464776,0.2823112607951703,0.19005114908098997,0.09807948519038179,0.0236967952547692,0.04111964225611631,0.12262595223411488,0.2143231194781441,0.3007688588298738,0.38912148857443185,0.48131816704776753,0.5735498789520554,0.6628093526086052,0.7485032407670409,0.8396988866733595,0.9077900537441519,0.8923694233161945,0.874579057184983,0.877248263478386,0.8860998316224491,0.8696116010075858,0.8237578859272514,0.8063254850254165,0.8311419094777428,0.844559444857033,0.8573124632501694,0.8466375936568986,0.8292487466099441,0.8347581144252862,0.8489499283106114,0.8282528085761636,0.7463079122828655,0.6541103574361669,0.5618495614747991,0.4695889138542906,0.3777546593194807,0.29201820572011505,0.2029804419791923,0.11660337341673754,0.05745676857104354,0.09928249050570193,0.18343435843866462,0.2720876327598851,0.3642970103970362,0.4554196397169945,0.5403369420961444,0.6310508203002068,0.7231000770206006,0.8097782824512698,0.8899680340569442,0.8931879177016768,0.8560743631303296,0.8278705806736177,0.820563638221451,0.8172073436671585,0.7832443119166832,0.7388760287086704,0.7342582435698397,0.7439230906610526,0.7607822761455127,0.7608086592134811,0.7408160015026592,0.7320622804209604,0.7550844215793366,0.7735301650597022,0.7534276728335543,0.6688086640110396,0.5765703540044704,0.48431091038166296,0.3929269983400665,0.30790545895125554,0.2175879400207963,0.12848108304490147,0.05081521283505275,0.049421028060436134,0.12608886813978826,0.21708616701990624,0.3050374146417225,0.39184627389531723,0.48391595042396895,0.5759227522733101,0.6623469665510626,0.7498898124840729,0.8176746797160022,0.8086518559016269,0.7841816393497574,0.8135153145951137,0.8569574263032382,0.9070356164650437,0.8832700149422237,0.802486302759641,0.7150438132780035,0.6284903824224393,0.5366099095039638,0.4648805966295597,0.5060843534506585,0.5969700941290548,0.6862762774075477,0.7711861360791077,0.8493425224171733,0.8581596062014916,0.8118779560083482,0.7922911934567434,0.7682614138323518,0.777438963766232,0.7933948955147652,0.7933125645837973,0.7848221546024539,0.7727445739922423,0.7889624609367085,0.831478516029019,0.8550039993206195,0.8544798072953057,0.8647361620492306,0.9002837160576072,0.9534071559523469,1.0,0.9565405403547578,0.8713977992169373,0.7864753752313691,0.695188275762602,0.6127028511976544,0.6301069046387764,0.7145145154993298,0.801558184352114,0.8877697015625221,0.9403222860055995,0.9053831385541755,0.8809423192623422,0.8658760937617409,0.8721025244810667,0.8899170480224996,0.8869597195939951,0.8737973007257451,0.8608897751027755,0.8478748256093906,0.8791016064506327,0.9157616742324748,0.9226197163428356,0.9107366556482344,0.9117911093278115,0.9465441658205564,0.9925686525134341,0.9601397153950679,0.8786860576518243,0.7888030340688634,0.703922804246025,0.612975047439626,0.521236146942633,0.46662575473544554,0.5276428344201807,0.6131527004536828,0.7046857876112669,0.7907645748123571,0.8762380389967255,0.9084121951795192,0.856951584862826,0.8220683860260936,0.7961894621405845,0.7834611120414918,0.7904213166558653,0.7824369022167219,0.7755215345857038,0.7617007012226502,0.7416805713715782,0.7653208098740922,0.8000787630986492,0.7919303502061072,0.783868076108279,0.7895841191427475,0.8211151747216188,0.881604908599863,0.8979387319746397,0.8310961552444771,0.7420021675845956,0.6563467261982663,0.5670551888627469,0.47490583317917245,0.3995834336783426,0.437197009591872,0.5281506456848901,0.6187836260339674,0.7036703611860187,0.7898992969325211,0.8314612585186136,0.78824220356488,0.7508505293454615,0.7294071537777522,0.7140715746215598,0.7344701134582288,0.7393650504762357,0.7385999787166873,0.7337345408596081,0.7145524089761301,0.7142550749858547,0.7625253457686085,0.804876740322761,0.8207446722855434,0.8170767807684509,PM
0.7911718672997055,0.8001986511813313,0.80758370108021,0.8210610082649199,0.8268388886912239,0.8294309425288338,0.8249417233867948,0.8018009329747919,0.786250454368409,0.8109879097365686,0.8380907535261224,0.8036200625311345,0.7407674035136966,0.6749011104347373,0.606040954494218,0.5380245527462526,0.4667902391375458,0.3982511411670058,0.32826336535730594,0.26093277635859713,0.19261080043411283,0.13338863690766767,0.14493089778326174,0.20942653373431686,0.28006190356546257,0.35411834625917615,0.4251389755900461,0.4936603907108157,0.5649143346782752,0.632915624147067,0.7017683668764221,0.7646720003605005,0.8201676659340706,0.8659672454448555,0.8742053571408746,0.8721692647769674,0.8682297000654673,0.8828706679879392,0.9094672135436366,0.9473909854389164,0.9689999153260309,0.9291140611849587,0.8774710510581993,0.8341967718064898,0.8051170041793825,0.7907974998323217,0.7835966614256067,0.7850148270701753,0.7905425166638553,0.7896912445825872,0.7796836721072034,0.7678696717450206,0.7463255889985221,0.7182730820262972,0.7067061149001446,0.7377196851158798,0.756854162548749,0.7096601265537317,0.6443254199921316,0.5784311452238247,0.5112838487096081,0.43992539545535725,0.3721522273713562,0.29858117758722846,0.2244610988546627,0.15305439871832305,0.08536497876652771,0.020414221880543648,0.0,0.05609521125544148,0.1287969613694162,0.19625197619594748,0.269061942128236,0.34292462060952444,0.4114862573767226,0.4824031491755141,0.5522873369718093,0.6215911173348121,0.6901690486807315,0.7602237027654115,0.8152448271097188,0.8332402219038131,0.8354331081388593,0.8319714409768701,0.8384625267439358,0.8554666638216621,0.8894317780735301,0.920287285707442,0.8955577895686189,0.8500431682945357,0.8069704858143183,0.784188774359341,0.7768101187093668,0.7829386269119285,0.7924688967438593,0.8026878093995735,0.8035219051434865,0.8091138546558152,0.8080159650100938,0.8026839079865802,0.7797526725942991,0.7573273857392844,0.7731761421349514,0.805026670148002,0.7759554432882991,0.712865759102872,0.6449546471693235,0.5820271100876364,0.5243450199407269,0.4706702699484473,0.40313108446054713,0.33568819241322134,0.26249897555844137,0.18838017013344588,0.11735013669743444,0.06945460988958096,0.09892168843923699,0.1699153973850025,0.2373873971725572,0.310490092662308,0.3835379870550324,0.4509860416665359,0.5238245837469644,0.5941258072877704,0.6632186977804775,0.7329323573915039,0.798524288506379,0.8473158959148865,0.8550277574857594,0.8521949832013256,0.8526746081683787,0.8663547429280616,0.8944875595400588,0.9147499897724063,0.8845289605099662,0.8387110968969389,0.7997959934835606,0.7808045555130607,0.7751501775715766,0.7885440468852565,0.8038638034149588,0.8076957921230512,0.8317523550141463,0.8748185113529388,0.9218162300254811,0.9529161293857007,0.9420834367504802,0.9105104255146816,0.886293686397883,0.8779685107656408,0.8826156448505953,0.8869861670926615,0.8739353069158919,0.8287590551084159,0.7655945115847123,0.6981750703688394,0.6298673566068791,0.5591453003301563,0.4881029760524853,0.4218340638757243,0.4048477230633869,0.4686090146615347,0.534079257684585,0.5931291588244678,0.6644184208907113,0.7332979522460237,0.7953248100352537,0.8366160088761183,0.8323518027259276,0.7997418729804957,0.7989520763786417,0.8257361688953355,0.8346714975561385,0.8366819637712284,0.8348795869687802,0.8340452577410031,0.8311659816045209,0.8198231716224962,0.8099962318319072,0.8072788411003764,0.8251198688988666,0.8643810621379229,0.9136209664746204,0.9513037732397545,0.9486767109381848,0.9123239314716687,0.879366864792025,0.8648113348170023,0.8640264921759344,0.8643581228232626,0.8534015972220785,0.8164432374155173,0.7566484453628615,0.6902341237638443,0.6186421025399322,0.5511927812364084,0.47853175621868127,0.410041626549001,0.3430162636486165,0.33849486165852105,0.4011898453951479,0.4593720605024272,0.526160049866095,0.5934679501993816,0.6656545743024584,0.7331829552669533,0.7863951206190862,0.7925110535785636,0.7611540173309854,0.7475253131932351,0.7740553205974758,0.7950855022062122,0.8077535019039754,0.819313811566545,0.8239658904706137,0.8152689107224171,0.81589334092161,0.8177623653007291,0.8309498058185225,0.8633080874785162,0.910440731765267,0.9607881249939645,1.0,0.9974205773194442,0.9593772741584294,0.9226978436843705,0.9027468585909699,0.8999102302715392,0.9022790259263627,0.8990592227757763,0.8720847000381438,0.8156900291659155,0.7493863475722742,0.6810250038098085,0.6115766223993333,0.5418242917179639,0.46991656781760494,0.4518226549617532,0.5009916814155779,0.5595151066933752,0.6170734940047906,0.6843994991045019,0.7512818464679272,0.8147555570241478,0.8624372439632053,0.8636959588242816,0.8350146039260418,0.8318935312749374,0.851850893251983,0.8556589987873844,0.8520575661863039,0.8494714648553567,0.8425234777717554,0.8327004234470288,0.8232192479522871,PM
0.37200425699227513,0.414111365762187,0.4432903019223765,0.44616335819984243,0.47430228126557405,0.448331353655938,0.3981365542327485,0.3713596236172697,0.3837098410122083,0.4207372723015558,0.46090113747045114,0.46931489311770924,0.428258569997917,0.4331066457231628,0.4825565054976807,0.5110138950252109,0.5247085843213738,0.520336234068684,0.5323338295425294,0.5758790626248341,0.6150843156045777,0.6356826135910504,0.5892740007312239,0.5219569445447075,0.45577035077596173,0.38832778340650986,0.3230705568010831,0.25818398358611405,0.20719629470266465,0.23093114588840769,0.29744553322396894,0.3631405815929091,0.43348720301884625,0.5011060649975455,0.5681932976812191,0.6336546824932435,0.6924830566709078,0.7321498886352699,0.7689281943830836,0.7963466483395937,0.8188980678721477,0.841376528695892,0.8714080248751629,0.9171546431099887,0.9565799391215034,0.9727927475717272,0.9565452178737813,0.944168954633842,0.9175941947459813,0.8827284919175685,0.8399067236073153,0.8044063673710257,0.8068721899535619,0.8196766464395634,0.785524719310244,0.7217019212532346,0.6545386160439585,0.5880204033033377,0.522620765288404,0.4567195476376421,0.38864178052958376,0.3225595631442918,0.2856738743655757,0.3298986953572932,0.3999779481184421,0.4657863211321117,0.5349942907283834,0.6008444851200213,0.667094939486289,0.7017892481474545,0.6888717834101986,0.6600674469324034,0.6279939732258196,0.5885326143100683,0.5550287659702949,0.5564850119857002,0.553711833507658,0.5370764797975581,0.5246055137079383,0.521097634858794,0.5112048951295606,0.4808129102131088,0.46779978733891736,0.4926562921733867,0.5173664190190362,0.5057389861579241,0.44482284118406834,0.37703343407398837,0.3105990855454931,0.24260333321079464,0.17578754762642734,0.10851884560855707,0.049683324179681576,0.0,0.017125583124595445,0.08333723549673189,0.15457960371343038,0.22543234527048484,0.2914022096524487,0.35398006794638015,0.4122422758705947,0.47451691628330817,0.5152872552129771,0.5114697318716074,0.49009763544183416,0.45848857267832444,0.4272546087385346,0.4290350444259218,0.46434760424915067,0.5010640456900174,0.5235986495452972,0.5393071051301891,0.5613568818990303,0.5797522757397054,0.5766797333640071,0.5649174444677353,0.5827749827827909,0.615826480690482,0.61819258148703,0.5639624400790043,0.4963402452479032,0.4302896070785528,0.3619251947058303,0.2962518134118759,0.22729168560879842,0.16160237633543895,0.09607947962009378,0.08971407712035961,0.14934832459729674,0.21596063433179224,0.2865797138807502,0.3526694871993262,0.4213598785984797,0.4870468784861305,0.5514486759378806,0.5999154800685426,0.6057623879645718,0.5759553182898755,0.5415939059081144,0.49580824561218273,0.45053518311329943,0.42645765095167165,0.45297857032592737,0.49513254561304965,0.5401748099748241,0.5805030045792693,0.6127459114376183,0.6392313353216009,0.6328855070385634,0.5975409968225948,0.5409025743351573,0.47658996544830534,0.4080776991221643,0.37183061174683607,0.4224010610203789,0.4933826905424855,0.5631804584361914,0.6276685605925526,0.6841917410677955,0.6911552813600402,0.6491200788567836,0.6181192566649253,0.5900885594021618,0.5979848596094776,0.6072377511883543,0.5950022137055792,0.5723826606794845,0.5534859063992944,0.5366613283709515,0.5084912621652827,0.4694293054728681,0.45276709664308334,0.4812394628232365,0.510940075488647,0.5310458880410401,0.5431363564450743,0.5279625155196631,0.47412636400668184,0.4090443995401797,0.34969326715829874,0.2892095220877682,0.25526031419750184,0.30397280964661155,0.37184193957003886,0.43729233884819896,0.5013619542873166,0.5558730031388032,0.591330228972868,0.560815287775363,0.5279583884596818,0.4962313424684318,0.4994559856912434,0.5304972133402507,0.543824185112752,0.5486558092590302,0.5637079890098465,0.5800471560345332,0.5810248044874006,0.5869407114336659,0.6251631179298086,0.6625444371970551,0.6931086075698126,0.7180930018469779,0.7300224443837026,0.7052742048321953,0.6427236634894106,0.5765708936818484,0.5101476580118501,0.5086409186563764,0.571905139860924,0.6384256293413809,0.7048687387722022,0.771060069769964,0.8326160031338431,0.8648295453301656,0.8483405619542209,0.8313900120861019,0.8475157531541081,0.8892040784298975,0.9277723627630231,0.9594561619856333,0.976807915468043,0.9922065235085679,0.9999999999999999,0.979249998835095,0.9371254806611541,0.892745007529001,0.8611785408191636,0.8397106955095294,0.8209417159808586,0.7915159365659766,0.7565662603143616,0.7179711493829722,0.6620204392613412,0.597608995758918,0.5268767198466665,0.4559851047098292,0.40953076767359897,0.4425248145793582,0.49773717624822,0.5617452962683255,0.6274529637838423,0.689294421159338,0.7136347078027242,0.6687898265371396,0.6311615759004928,0.5892150706248022,0.5540817687648817,0.5527051766550627,0.5422124056201706,0.5232912196862552,0.508282739548869,0.5021602332976857,0.4888319751176672,0.4527419549692594,PM
0.7596689629257747,0.7655024320127486,0.7516294121408029,0.7311359155164243,0.7385808747501059,0.7712015811006252,0.7946382925269524,0.774081337224749,0.7073492002643607,0.6358776827572743,0.5625223898642449,0.4883928553966945,0.41738225291084063,0.34363911806112823,0.2725503712568873,0.1974361924271435,0.12720415313373,0.055320299529066363,0.002285126300335727,0.028473410701309154,0.10259481806474169,0.179486206430174,0.2541414568161813,0.32484385426004314,0.40124196465780315,0.4781548942856717,0.5550072063508107,0.6282385494748677,0.7000457329168461,0.7723847502074439,0.8252858657305882,0.8526332238693421,0.85948836319014,0.8621708101023657,0.8829451818277283,0.9127934964902447,0.9477841878101516,0.963208220428138,0.9255229253342048,0.8688895564631982,0.8195415104147781,0.7814474911900218,0.7620988451858537,0.7497198145878723,0.7555649676395699,0.7606923744410201,0.7628174305051867,0.761240819157935,0.7604489497336662,0.7546627536263826,0.7514368489620844,0.7418708810507386,0.7181569296087185,0.7132692172327648,0.7377761548008044,0.7751007184217995,0.7730885756019223,0.7196458423085157,0.6500917167000138,0.5744954936088991,0.5033669326740171,0.42940787377690404,0.356804051829839,0.28502757921449207,0.2146318219078065,0.14034400652342005,0.06992160392288838,0.003252668988296792,0.003986303325164142,0.0727066693431907,0.14389057922624582,0.21783434489318498,0.2947135929526412,0.3715277211458674,0.4442215874526012,0.5165803343146682,0.5933595003455976,0.6685515788899936,0.7311851571291517,0.7881799548465533,0.8118874709889614,0.8181154002684068,0.8120818911048318,0.81994731460445,0.8478126716179002,0.8860325172265684,0.9170453678050035,0.9036609987610462,0.8535765207332324,0.7997313004160427,0.7512761973286657,0.7303065874087933,0.71889287528077,0.7225171921049838,0.738141805774053,0.7484551692283434,0.7539434001017145,0.7544616896130618,0.7560396255432371,0.7507234253990245,0.7429079500935714,0.7393102282595865,0.7231154470205157,0.7009592478443414,0.7076871433796192,0.7398914983867082,0.7681696478500388,0.7504777433338097,0.6871178087119343,0.6165339017488443,0.543561220785906,0.4718434640121265,0.3965205841450792,0.3262306748062722,0.25123816561584467,0.1809505133178484,0.10762997446739775,0.03943590776505301,0.0,0.048782276216127296,0.12437558775079116,0.1947476078589131,0.27001252456513813,0.3469186506150521,0.4237905531250219,0.4975322782714402,0.5689301684566865,0.6451395731358232,0.7157834051302525,0.7804564989132765,0.8067098684434388,0.811493993248056,0.8049397037157255,0.8079685483681707,0.8392292044597671,0.8767448827340596,0.9135505608977028,0.8929822045546931,0.8559083788194028,0.8332630022108716,0.8385719665493623,0.8399070998803524,0.8367459390045688,0.8124771343566171,0.7507706358994273,0.6742684149416935,0.5978911633167123,0.5272240912941548,0.4525135396617459,0.37561825568683926,0.30198450087642636,0.29283115914787516,0.3627056461302316,0.43342236477138774,0.5075114092028292,0.5781818939029391,0.6519661626371844,0.7218206525752993,0.786951761388174,0.828651588064665,0.8147825026037845,0.7914675836793639,0.7581594889843535,0.7303005952079826,0.7383610122194018,0.7648105122602056,0.7731865973171574,0.7763346103817723,0.7862542306127851,0.7838608264535318,0.7821304744295101,0.7790079412998498,0.7722342778236106,0.7594852303525463,0.7489887605499179,0.7585839324181238,0.7896009377130124,0.8447283727048993,0.8980785018492237,0.9445720762589134,0.954045283527158,0.9255070496295239,0.8883350047449357,0.8553341983536764,0.8439039734162297,0.8514352141830184,0.8458145951496958,0.826466205883214,0.7690777988219093,0.7003398392258682,0.6245807266787895,0.5516947642354462,0.4795246353825382,0.4027593546190651,0.32598011935675464,0.26701360000894814,0.3015163476027163,0.37695848060853265,0.4538699913682831,0.5303782440831204,0.6013145889016069,0.6749133874458384,0.7443899308055772,0.808606821207819,0.8335343867617422,0.8100588557108348,0.7860539931910753,0.7509574758823654,0.7468131348104015,0.7706411736408596,0.7779590962494827,0.7816428452281181,0.784750921626008,0.7886919137764448,0.7929440907451142,0.7924982634001401,0.7891734102716601,0.7837807353028468,0.7812596285691447,0.7940217215438485,0.821813466382213,0.8681275884052007,0.9213002274404238,0.9715861614568453,1.0,0.9815888378500874,0.9473657361353165,0.913703395675082,0.890287374489138,0.8869619190718618,0.8860161428057229,0.8775176017755926,0.8372183740030676,0.7646442042191102,0.6921683382868926,0.619625428041815,0.5428199826139608,0.4660314038824285,0.39477690350702743,0.36388514793955706,0.4112239881829145,0.4825880284020938,0.5532623905103606,0.6294287064424251,0.7010425389467463,0.7720647866613186,0.8362087093937647,0.856318373794724,0.8336451911954887,0.8176251923095483,0.7773553510699607,0.7627512475369671,0.7816481164246913,0.7952165364610866,0.7915504154459319,PM
0.008410691151626626,0.0703918759532165,0.16798154502605644,0.2152603715197694,0.13420218363926484,0.04255740174946787,0.0,0.04502402436461628,0.13481286599875375,0.18861647223198563,0.1189814140282004,0.049482831934339,0.011407220467193113,0.03391285044638792,0.09954679508155895,0.16331456369807507,0.24494070570155246,0.32385281746035455,0.3145692910061326,0.32264848385477274,0.4295842660953051,0.5456169854653319,0.6510429791534666,0.6545023190078139,0.5679244257696019,0.4830271491664644,0.4340859169267839,0.4132171456836784,0.38461622998675704,0.35686222005128165,0.3189417911651371,0.2853285932459828,0.29854583533857326,0.33928204502443915,0.3703189201749022,0.3883928201218003,0.38254491753030395,0.4074176460859551,0.41981561104591325,0.4333613261629452,0.43795321881813054,0.41785272364168113,0.39741968371560565,0.41541284931486233,0.46219049896937126,0.5154162584195809,0.5424697912042502,0.48223295328867355,0.37489995901684736,0.28939554838821646,0.3189837232858279,0.4184406945956316,0.5338733725930109,0.6559361883991648,0.7680335101981366,0.827722624026868,0.7522695934493431,0.6650589600317853,0.6134014035529214,0.6109397688420972,0.6353408493867505,0.6454464235701467,0.618786551175281,0.5770270247693507,0.585435409155445,0.6296995949216808,0.6837851784311297,0.7208863262151488,0.7249485368466448,0.7248020393150267,0.6832233000909049,0.6324654220916321,0.5970648865645112,0.5632652413497379,0.5345270893170975,0.47719340907741703,0.4258246596199342,0.4158273260122236,0.4310989306761983,0.4688331987812675,0.46242229950739056,0.38802351680548774,0.2720386692524972,0.18482495329472082,0.21038600047876077,0.3158787873837947,0.43535428353880423,0.5508886883751787,0.6347390287873811,0.5932983900477082,0.5211364630619166,0.4678601563582734,0.43822899645874935,0.41615859612938566,0.3873574879529573,0.3609671752733439,0.31925651700778745,0.31031493646231256,0.33807461844153686,0.3682129530616365,0.4005821967577474,0.41206939869957804,0.4146346074454117,0.4171789446245784,0.41163482316108047,0.3957193607684144,0.363248330891524,0.3252456337838123,0.33957234895288657,0.3853876841566888,0.4396703187228921,0.4254061654403585,0.3308411975816541,0.24143562272390495,0.14968865596099112,0.11120204200820494,0.18580523538175253,0.2828861091228081,0.38359932999524426,0.5084321889741901,0.633905098857098,0.6963124549998079,0.6217681420672152,0.5342111279896491,0.4737266254246366,0.4507288391147841,0.43711926723882355,0.4047308927305515,0.3761255333919422,0.33977474017421505,0.33622173417243406,0.3791682243994292,0.41451280413570624,0.41907268152727717,0.44481522609021074,0.4867882488747779,0.48957921100451385,0.47187024262453914,0.4322793659744306,0.4047800066930809,0.42282729966633736,0.45453333552669495,0.48080063669388196,0.5000913455969815,0.5179134134662684,0.5730861207497324,0.6655231979505589,0.7605584958827638,0.8526654142077459,0.8769759688707035,0.7887203346677674,0.6757599684476063,0.563178334298402,0.44114808105508185,0.34863136956017593,0.3912542091236286,0.4888619087045569,0.5154701025573143,0.5065804193835794,0.4687119851784374,0.4104591751973654,0.38478376097716316,0.41415144150829075,0.4506827717430393,0.4724730560499144,0.47870130284304224,0.47894790147945576,0.47400752505064814,0.45896871929174,0.43836987865403776,0.4128839198096368,0.37356643529198985,0.3915888604619817,0.4203115240649127,0.459548032129355,0.4820276345928578,0.5028101708137833,0.5506416729049963,0.6219125702329418,0.7092160635375997,0.7728681590724467,0.7313005679255729,0.6294309572692485,0.5211686362879324,0.41195745405608886,0.42743104089312123,0.5144495418858868,0.5387303533542456,0.5366250128188708,0.5058901098425763,0.4836892228964391,0.5207344510773941,0.5754682723396161,0.6059864803234012,0.6371282240428697,0.6815093093981992,0.7233805333345131,0.7764285412308345,0.8134581828859844,0.8110917255185557,0.7973582098912884,0.7474181583981383,0.6861076128213108,0.6512563984461242,0.6740176496770665,0.7050423499750909,0.7118172810065899,0.6838699184491825,0.6757297947172054,0.7276232753430221,0.815012832028513,0.9279504345783844,1.0,0.9663933799942508,0.8678246044069344,0.7546115852571824,0.6371123712129116,0.5255417223203231,0.5506122715764175,0.6212827804158212,0.6125328781966384,0.5904758776896184,0.5431078671672447,0.4892811628336724,0.4664713510112306,0.48981596039319397,0.5088871983918368,0.49249613748508736,0.4876802707383514,0.4734501854617257,0.4486140116174009,0.44866982009252876,0.43190411935117057,0.39926487196337623,0.35577572846515304,0.34447825647942176,0.3871364039909859,0.41658374821207556,0.44954949723699,0.477248772099907,0.4904115911116982,0.5435422488665842,0.6393072929974992,0.7365890251107645,0.8269520998908382,0.8453897173569049,0.7559513262148263,0.6320082534930767,0.5118012251298274,0.3966979544952296,0.290697760726518,0.3354308857578516,0.4394463825992765,0.48546252042532645,0.48840369817349405,PM
0.0,0.0494112500805981,0.14083921196807614,0.19728269383203578,0.14148927575443837,0.05308003584106924,0.009876749155784736,0.05127778650440007,0.12274900113721099,0.10535803994519144,0.04662997696437543,0.005228144384179956,0.02532631026225607,0.07894870064646398,0.12189307409983385,0.1852695107553295,0.264546007593665,0.3009296015919496,0.2418748739200436,0.18580999688781397,0.1789721702146405,0.22978920586554397,0.2814641900308108,0.28674752362141565,0.26308840878545103,0.29801059789402196,0.38116195521284,0.428783857031799,0.3464142429175694,0.2498409108995827,0.2221260640751468,0.29711461308227083,0.384263314640084,0.3905252755062949,0.3557077373862736,0.34089806809911316,0.36553298382996413,0.3811003779477362,0.43831100102371323,0.5043335529080171,0.5391467565456289,0.5084420948349786,0.45187216536258523,0.41482750469503626,0.3966198655367186,0.4204496958602717,0.4339992959807777,0.41913162061314235,0.38568862729239317,0.38485182992213973,0.43801830291445354,0.48638836877449787,0.5029910363019816,0.5180888013675373,0.5673374719387172,0.6557414068969116,0.7514309555391931,0.7933194539302879,0.7044350612931054,0.6040467728192618,0.5053304390737434,0.5027176447230359,0.5897218529829678,0.6680465243491347,0.6870454919780151,0.7014700194978398,0.7217899703277793,0.7487128040385129,0.8054925649029112,0.8592345569977851,0.8981128723839542,0.8578613332773539,0.7865647708034116,0.7068206571561921,0.6527481967526017,0.6324810622491075,0.6128978135988632,0.5627256999561254,0.5082502545730536,0.44628558854201783,0.39252567068109645,0.38733967975909245,0.4049080425936,0.38026428886403885,0.3571695919072999,0.3873303588526418,0.48673655705233587,0.5693575225510861,0.5143274915855822,0.40906673244817604,0.3026881028793893,0.199351076635355,0.17563940412560752,0.26438811744901036,0.34594114044395097,0.3421781444573311,0.3097883310078422,0.28985832086678576,0.3011216946731792,0.34296663792270987,0.4097118756989282,0.49499197899458114,0.5620874258741226,0.558461927966662,0.5015284513524265,0.4471080237348768,0.4205641563422877,0.4102029458539582,0.43247535459816566,0.42488756977172626,0.3818659083028866,0.35935102558043397,0.3878048797467062,0.413847084544571,0.40462774876585916,0.4223137438151938,0.49842055596457735,0.59775589027113,0.6171087743857591,0.5170599501844042,0.4076362323327687,0.29992080008719313,0.2028396934994494,0.19725469318178046,0.2846916057027662,0.35037532558947726,0.3462568003116546,0.36669623551053343,0.3994960797844733,0.42985515007895936,0.3967854613643582,0.3962521864122346,0.49558346387540775,0.6033199921785575,0.7086868358744915,0.8092461460851972,0.8505210686952052,0.7738396894799711,0.6744080461237454,0.5936956621701905,0.5010824123546418,0.45625463056567916,0.45884752888427727,0.44598781998655257,0.411202601002846,0.43200879737089615,0.47409089081461575,0.48624294153183545,0.46460178101877503,0.4697983982573386,0.5104967275313639,0.5735557391595449,0.6285383494984473,0.6233923066868368,0.5761533667943968,0.4950788954515106,0.4077251887204745,0.3592595382985522,0.33738101882029126,0.35610336105785123,0.3931974661975395,0.42916259400165924,0.3966139637106809,0.3473287237274292,0.42499250086023377,0.5323030333567749,0.6380816364955377,0.7420191519214674,0.7944476848747621,0.7187523462608847,0.6116631345327286,0.50931983599444,0.4275885391394034,0.4255256234038347,0.4558071913257917,0.46138563273840516,0.44744396035376344,0.49673330536409743,0.5606709465806743,0.6111420245602748,0.658862247012963,0.6828688068498829,0.7058355100534333,0.7585679229706517,0.8367149636640545,0.9113364934704653,0.9625634533352603,0.9393789825085714,0.8895735344148319,0.8365175229510182,0.7826172491427874,0.7666644582798128,0.7473682509144077,0.7536595804075157,0.7342458856308323,0.691953834765505,0.7690723663402252,0.8764743599433702,0.9759764139597218,1.0,0.9192520132227382,0.8166798384728327,0.7151746064127997,0.615769160041352,0.5694867427577095,0.545778156157358,0.5159415806052743,0.45558148405324017,0.44864694223112034,0.4829287907922972,0.5025416426365803,0.4773108573212599,0.4564069450598751,0.480426395767771,0.5334481814634899,0.5868876393290536,0.5984883069857809,0.5619648758163249,0.49669162530366817,0.4411000165798753,0.4081082832856717,0.40127463409336306,0.43708074727117285,0.4651776564414578,0.4386821043632767,0.3911461528244544,0.46143190713683957,0.5628636704746479,0.6249524015596402,0.5607405748478289,0.4640528816791032,0.36751100403522763,0.32492095812927335,0.3486988401081401,0.33264567135852285,0.28619327938075356,0.23400121517678496,0.2532251451476415,0.3162643330870658,0.3880407773034533,0.48238496558021504,0.5188521191225397,0.4332409871580034,0.3249343761355292,0.2386740589735874,0.25169987139230354,0.19949730567364288,0.1613187751303724,0.23714479951459833,0.2959700611467313,0.25951291873202464,0.20383039054096752,0.24892942605607793,0.3054314055443408,0.32194146277249347,PM
0.0,0.025341444472447794,0.09433660707421687,0.1713832283818748,0.23392311987526204,0.26489787516475793,0.3236762549312684,0.3867553464948319,0.4705203696677862,0.5630675575218853,0.6594316563888611,0.7436982702426969,0.799060912609495,0.7269621450921644,0.6411449178554967,0.5719886996849275,0.5212711546492836,0.4892547502006801,0.4733916902141866,0.472481836542459,0.47645559823699735,0.4894003426420497,0.48864744384255054,0.467015117402906,0.42942504160181505,0.41377573810316326,0.41127747366359246,0.4153476398256011,0.41910970047433205,0.4274370599020276,0.4366705191236733,0.44240040001844605,0.454125601068895,0.4546426462533928,0.4546426462533928,0.4546426462533928,0.4546523269101703,0.4580113523008462,0.4668546439127428,0.4372513101069564,0.40675878652792496,0.3866066609673324,0.40980272495043346,0.43706757405708085,0.46174420110960757,0.4720073018412374,0.4591332425156476,0.44445977160348704,0.483254701987081,0.43573899773432645,0.3912876076361633,0.4372096136070991,0.5262825529611121,0.6109679900241467,0.7045797069106294,0.7468090313519613,0.676051769313994,0.6035505151281666,0.5414167150229412,0.49863239844733354,0.46687271719122236,0.4549637627215106,0.4552537461678088,0.4673836078553908,0.47008604061874815,0.45613084521437575,0.4358914306091535,0.39917296296068283,0.38405774707151785,0.395745414077568,0.4112550444961345,0.41591683953459935,0.41142142608733856,0.4185328912010453,0.4205311219114658,0.42510685220549993,0.4191264865431501,0.4189903403190365,0.4189878374263598,0.4170832896772638,0.4020280220534511,0.377760001895207,0.3393330432977626,0.33120403963715406,0.3515579316311297,0.3840606549350989,0.4128316279971833,0.42667573937447445,0.4254079409255702,0.4091387911914137,0.4347791566750412,0.3906883981600391,0.3630873554787519,0.41596327186078685,0.48888452528575543,0.5811631422595669,0.6659418398189345,0.7540601183761617,0.7424166814223963,0.6634742943575236,0.5924408983350546,0.5340106546370929,0.4940798668168145,0.4750823726308657,0.4795603233898378,0.495649689902276,0.5120100672560643,0.5249879082319246,0.512582055094168,0.4768229082642246,0.44805400397214523,0.4252808775094068,0.43548950064650693,0.45118718512972444,0.45467707030731486,0.4606724470283181,0.4720508439244089,0.4760161190687757,0.48293732545226487,0.4769475812975936,0.4777756752000837,0.48961702273420293,0.49029489126186254,0.49006859825768156,0.476480655453857,0.4446008731224036,0.4360621710126571,0.48739188349938134,0.5223573443080007,0.5383261036036724,0.5422966523782389,0.5332884887954807,0.5330777193089773,0.5330777193089773,0.5330777193089773,0.533069428519934,0.5300177096651844,0.5155701653588562,0.5011851798317646,0.4970286041724896,0.48592510230744956,0.48733506261451875,0.5174042650880861,0.5477875790558469,0.5675597912396899,0.5682907385279194,0.5567409487098334,0.5455649140491445,0.5308400286759047,0.5282326626736675,0.5506079702719502,0.6061779909315081,0.6756643179215489,0.7585065753984437,0.8431794063460516,0.9269866238941673,0.9851479598550785,0.9657824586831039,0.8783737033704377,0.7801737145442731,0.6859080913360671,0.6296316818282186,0.6501825322950325,0.6134285652960663,0.5305601548745833,0.4759633200390385,0.4789134711738252,0.468348758010376,0.45413994244584543,0.4244726070034077,0.3921850269681544,0.38304997809047325,0.4180959518617091,0.44493398645017646,0.46289589959793576,0.46692030062599654,0.4618297261044644,0.4642272104706655,0.47578025205236507,0.47409470019957833,0.47937161672639483,0.4708878363198101,0.463700546192678,0.47137931518281917,0.4617850178904579,0.44992277955624305,0.4479915296192609,0.4766322173654878,0.5061474453033767,0.5226681125774726,0.5222102646019828,0.5153280305660637,0.5152523583783322,0.5168517981969383,0.5421529662369373,0.5903281214886524,0.6551839580070031,0.7317999688243928,0.8152900376935412,0.9010597414047092,0.9796465045804803,1.0,0.9348677397098117,0.8446990002917687,0.7593525398470624,0.6644025740858264,0.6372928103957078,0.6653215784270765,0.6098275009684371,0.5332021748677116,0.5153772712894087,0.5151169462308229,0.5060925917906491,0.4803381826209172,0.4571474584885773,0.45698204610293747,0.48829031993218663,0.5132786319551337,0.5135732299399534,0.4999837008223893,0.49742986988001325,0.49751515161439697,0.505131329469144,0.5145462732165691,0.5029992943748476,0.4868841680864029,0.4796714482088138,0.4770076255058986,0.4634126045765834,0.4617798153832311,0.4652734827708005,0.4955401315502779,0.5309868317550719,0.5494630643117802,0.5444771230052039,0.5306764358124356,0.5167655948588292,0.5173926129415074,0.5372586486134749,0.5734092597092597,0.6342551717636589,0.7106644662859676,0.7928912177777825,0.8775262533833921,0.9597367470213682,0.9813809879666531,0.9166693078272576,0.8302707390092778,0.7444983030086556,0.6513105173924543,0.5797340704083713,0.6178978948060645,0.6149555784218408,0.5408479908368169,0.4927776534039223,PM
0.21948492052894952,0.21732183041278041,0.19120995765295312,0.13648205427158455,0.12725167272080196,0.16259688214337586,0.2004681730387361,0.22683266291829796,0.19523544084710842,0.16974803372045333,0.14128475615432912,0.10609560209172741,0.16084192714591694,0.13789044023231423,0.1579330848221323,0.2783460999437226,0.3935179684210013,0.5235492639438046,0.611976370979348,0.5337639781999455,0.42227457022299486,0.32378114414062775,0.25191118791453704,0.1890430413943669,0.15328174293087304,0.1617067340127818,0.16980075452680587,0.1697030711159968,0.1579796768349917,0.13068228763282264,0.09005705691414256,0.05474764477024019,0.06206640137685859,0.08392867843020779,0.09527567690154504,0.09780737997664568,0.11816871933164919,0.13467338289297004,0.13892454509935614,0.14498138608440847,0.1381642961386742,0.12402924387382619,0.12430817813554551,0.07651279123338561,0.01617537551008308,0.0,0.047759046311453,0.0985685774994276,0.1401131227359853,0.16703364581530877,0.16575218438404882,0.1348983873230294,0.15010960357635472,0.23561151126865543,0.23402512577045353,0.14576018382616063,0.1728624193768331,0.2820866119461991,0.4106165254435723,0.5088989232035201,0.5945904202800181,0.5699512365860873,0.46055828636588103,0.38170246596219126,0.3173175052935493,0.27877506952556086,0.2691946021290752,0.26911497925980044,0.2691144124042646,0.2678138100756655,0.24554372232397803,0.21147639108964622,0.17640075696138435,0.17040635824837302,0.18567843853804256,0.19459539606723464,0.19467270956032134,0.19467355099493755,0.19607296885558423,0.21428442943447745,0.22066834587964923,0.23836736956987803,0.23282606432756037,0.19722038701927236,0.14325272050304427,0.12734582835539765,0.16649951241862748,0.20315988983328026,0.24022537808376754,0.2461282675254921,0.24875272342238386,0.20814925572356824,0.21553645572963553,0.2553316454298473,0.208525157686827,0.25497104849864094,0.36925612364582694,0.48424076932467397,0.6152333932267284,0.6849555351966963,0.5937099747996228,0.47531784947620803,0.3741810758808626,0.30383067101680794,0.26051176845552426,0.24468804001957256,0.24430088935997407,0.2442847310262639,0.23926977217055612,0.22035780090204948,0.20092025450620632,0.17356287514116264,0.17098811948731285,0.18856932288524852,0.19463638460737176,0.1891081444982987,0.14382566739096347,0.12114258840590075,0.1351001227529105,0.14494593315729798,0.1450402481699138,0.14191550557925048,0.10930978873656993,0.06256013685064277,0.08282538503231551,0.1489728364297962,0.192277094946264,0.20446118898597643,0.20459911185574153,0.20616105608613644,0.21475963348846872,0.19991217784817295,0.23130015469978815,0.2728018953868592,0.2564749101905024,0.2541829539001812,0.246751123586618,0.2310279774866375,0.2525474868223583,0.28875379470128504,0.3139553239081998,0.3245017384783857,0.31940879096563624,0.3043017351725199,0.30455448877608404,0.3235860976504874,0.37278508568915747,0.45236487943438064,0.5526428589236456,0.6613589547931324,0.7771589126311733,0.8988028642363641,1.0,0.9832734962758236,0.883227574363338,0.768838422081525,0.6413088913374265,0.5357325298737754,0.51416730289609,0.43361652750083657,0.33492469126458335,0.3229551876551824,0.3273131610020048,0.30901564595247955,0.2882173254315976,0.25095750377520964,0.2200112774963605,0.23930978450043838,0.2809656309571009,0.30336466108900595,0.3145199952656128,0.29252038151771664,0.2792600697571279,0.27904023676277134,0.27787421374973587,0.260164288412585,0.2542496134874863,0.25418232071448976,0.24705183845687806,0.24377636771248667,0.2804166040255538,0.31772859754858374,0.3410666733939971,0.3513404344402957,0.3327448516928557,0.3287049088560483,0.3356852018074772,0.370289219777729,0.42686570456111195,0.5243931598034886,0.6390943553557085,0.7276572347174683,0.8253234908665092,0.9134167447555104,0.9161498495286686,0.8211133672411819,0.707046731772305,0.5810405283705204,0.502599157711562,0.4780641993864023,0.38009328046757496,0.2733027131258998,0.2472316823038554,0.24644144769142606,0.22884236867776764,0.20815419197023388,0.1683656382708092,0.11126215815340412,0.07600881637525214,0.12133368455581728,0.17070761995436268,0.2031864018976961,0.20459778837016085,0.20460040465091556,0.20664051024574714,0.21450843843281664,0.19968717968565297,0.1747509896801498,0.1559535579453204,0.15446195068655388,0.13926331829887317,0.13506540509275133,0.1715711022871318,0.20909809551784697,0.23366279731976292,0.2523572809802799,0.24101495907465953,0.2295955338060205,0.23628442464312283,0.2730262158707335,0.34805868496724823,0.4447130567607571,0.5563341619874489,0.6723782116353689,0.7868199178876258,0.892805409415403,0.9320534366654112,0.8452283686480451,0.7249470128932058,0.6029794650294855,0.47972814428429444,0.42594378800299637,0.36331542984789067,0.262047016510806,0.24279876738367356,0.2616087466471706,0.2974890738484648,0.292244530658631,0.2574093062063989,0.21948783473968891,0.19918703228655232,0.25043417873523577,0.27872472611228627,0.2951193650845303,0.31682517708047975,PM
0.6027139760386984,0.5774997392333066,0.5623881597553049,0.5471709527131612,0.5613355710572154,0.6212485549338065,0.6998215666968068,0.7729379958722467,0.8279501648646095,0.8134386251464956,0.7508706631918511,0.6824769710806362,0.6369175707680075,0.6191735362444852,0.6080604938167364,0.6125170047945994,0.6265141255747047,0.617259878341462,0.6389648612516825,0.6175401300550019,0.5690054176695107,0.5434893013300863,0.5807523649412345,0.629236887380968,0.5741030893021168,0.4715642409990486,0.349179283579804,0.22616587219908002,0.09440607509858756,0.0,0.03449448030199376,0.16053695967879555,0.30067208144987134,0.4408383965117513,0.572231465909546,0.6924396391629468,0.7148128874767319,0.6391579072667639,0.5805178668988424,0.5518587828728632,0.552608883540854,0.5209594098595862,0.5285877324018009,0.5797508065354617,0.6449119688863996,0.7101927928696541,0.7924554497466327,0.8388144185572455,0.7935924154958633,0.7198115514096153,0.6690262243002838,0.6246185698878364,0.5906272978519964,0.5878780091692009,0.6026351606889406,0.594383387380486,0.6125061068561815,0.6119469941192945,0.5782302315021925,0.5393520561841991,0.5400295938599462,0.6022570121175703,0.6315821103308097,0.5638240236942149,0.4538016897479298,0.325057755915271,0.2019328837586052,0.07415841871550066,0.02373390036638634,0.11512254939978828,0.24383571082392752,0.37240195782863994,0.5120498450475344,0.6397844368139571,0.7673271732398379,0.8066366743918159,0.7137635327099017,0.6340033220761279,0.6082978334900946,0.5988132413542191,0.593468203911304,0.5900599152074832,0.6239844756930344,0.6821750363267647,0.7600543129888306,0.8412418091669913,0.8824712586058894,0.8464712892275981,0.7789731008395915,0.7237109623603502,0.6762194562394854,0.6451770926239355,0.6417968083699694,0.6452268696984529,0.6310460543026402,0.6354635881097606,0.6329977843684715,0.6063739294882495,0.5506902036035313,0.52542129946973,0.5733691865982111,0.642309633912689,0.6084604078492348,0.5100204835016293,0.3848965180766659,0.24530501938160532,0.12597231711054713,0.12562504730542967,0.23396313942620006,0.3701466092889918,0.49595670038170736,0.6284335335197375,0.7346702527621827,0.6985031413913179,0.6382468965875119,0.6191466478907008,0.602421365047662,0.5864121485150946,0.5911108676082097,0.6363138014622507,0.7220568920910675,0.806248564362634,0.8585194403660767,0.8397449847465088,0.7820891336445683,0.7129383535976754,0.6449250905826318,0.6303829722215539,0.6222415075344006,0.6105543220081882,0.6178996552852833,0.6252082101918459,0.6765310924734087,0.6921414062757831,0.6759754590890896,0.6877125939305908,0.69384539664718,0.6979022311294543,0.7625897966272315,0.8343243896184758,0.8954944395612796,0.9381789301087076,0.9265085213456339,0.8768298159397223,0.7963519664532464,0.7042914704893621,0.664059449295423,0.6639567994875311,0.6833904791071594,0.7056032641637318,0.7469241301436056,0.844671824573878,0.9555904774764001,0.9756705955719389,0.8871035467108888,0.7661119965476466,0.6289690731124997,0.5627320517378829,0.6503110505374039,0.7201301877561384,0.7353680432521053,0.680514806943203,0.6114637203546689,0.6265778353059295,0.6843190805892361,0.7061524023190575,0.7170568425844053,0.7134734448394195,0.7180639590543558,0.7082644908920712,0.7152119544804778,0.7510072718414804,0.8066918997485337,0.8763386833408675,0.9317691798218175,0.9658443469217626,0.9340189000915058,0.8635098451810586,0.7861549799224079,0.7172305576949785,0.6697347944793042,0.6657789777522392,0.6825108966978806,0.6918309838083978,0.7618097070450669,0.8661983523037833,0.9649264919351732,0.9999999999999996,0.9199880665389144,0.790207065654966,0.650045105578168,0.5152699984129239,0.4956543872062995,0.5972053635668431,0.6825767733758195,0.702702480203873,0.6651367897593539,0.6139182333685023,0.6332268512315595,0.6747796133351489,0.695414271495586,0.6811190240284315,0.6695232860407323,0.6719038757831743,0.6634767596946793,0.6858971089408716,0.7279980200476435,0.7775838741197001,0.8496768649702826,0.9023382174438503,0.898365758002619,0.8327939565029538,0.7608139281992248,0.6905685720698269,0.6201961350138698,0.5968650233660671,0.6146379865634732,0.6359050370071699,0.6737841107967566,0.7523699703918969,0.8620139795952184,0.950426013250341,0.9294431400820584,0.8120941712330474,0.680571081858889,0.5542266296711365,0.4280105450456686,0.4526601849549592,0.5617596797002444,0.6504111766371112,0.7110746442973528,0.6995010443231306,0.6390039373441043,0.6198821360821176,0.6674342268619693,0.7062409335502715,0.7085777026720725,0.6894577648516282,0.6946002234434188,0.6781677311389567,0.6823925027163167,0.6887326941776686,0.720960915297101,0.7710006952050197,0.8424388297722047,0.8977720443322683,0.9131231712881474,0.86090766647323,0.8058052297622313,0.7237810494465977,0.6513039766438222,0.6208279606416158,0.6348258685093011,0.6466127045267682,0.6827331749281043,PM
0.0,0.06272940466390198,0.1937819435652819,0.3162801817511114,0.38225096564493866,0.4636824851466339,0.5268026255482741,0.6449730341337223,0.769555022146355,0.8018795283028619,0.7516878214136464,0.7335645255266168,0.7012008383920203,0.6565307334339496,0.6260118415643636,0.5969315921420804,0.558271554723635,0.5591476041499024,0.6081118852506173,0.6478611752747399,0.6979662550813974,0.7211806309247657,0.7244930064885895,0.6977693265878444,0.6846608293134797,0.67609473700649,0.6357628818557415,0.5813404493712473,0.5145528393304555,0.5098335825921301,0.5900650262218172,0.6880387799849488,0.7045961532739384,0.6316874773877976,0.5046348405516299,0.35085771192286197,0.20765358853163862,0.08667313654881648,0.11371077295191556,0.2610503975422396,0.4043852940145958,0.5613152772381045,0.6996163173604697,0.7813186162658456,0.7566400408900065,0.6963208841398685,0.6519515661713933,0.6291487211799685,0.598731210223336,0.5754904697752656,0.5568940577806267,0.5456643903249803,0.5843126521610551,0.6516918343962286,0.6966549915886309,0.706277615618045,0.7090089958159109,0.7306634704723733,0.7367336305557086,0.7486637340900386,0.716863644090346,0.6440045959104972,0.6051803364065091,0.6518488626557191,0.7368305840126008,0.7713345766615336,0.7622308893767724,0.6486824087023328,0.49489989121309064,0.350277374891824,0.20672776588860797,0.2120429528775536,0.3421598595432065,0.4850284052103411,0.6322907396821686,0.7776737421781132,0.8771612147053545,0.8920332296404294,0.8872275456085705,0.8536280252700243,0.8282534929441367,0.7799140595204519,0.7455028046077259,0.7124662655182141,0.687836026918426,0.7125480047342356,0.7643526322193828,0.8053597071702092,0.8098766957241694,0.7700691598711633,0.7746490863758431,0.782355983587117,0.7692314324520431,0.733733184074032,0.6825307286094682,0.6097429068463946,0.5757322114722219,0.6380076431815076,0.7438247021112194,0.7635449482676058,0.6920097986652203,0.5727371758955697,0.41082854794574386,0.24623443193292305,0.11419699737267974,0.12229418638648726,0.253975884696207,0.39891721797091106,0.549327148664672,0.6924868689978099,0.8163828827367943,0.8281703479431308,0.777852042717758,0.7770825077213535,0.7461201672418531,0.7065325448083892,0.6695116143927335,0.6122263135767168,0.5930450986598523,0.6011286412266243,0.6518366199210752,0.6889502344637495,0.7357570368774353,0.7425697589284632,0.736674701476542,0.7406171425664545,0.7805099161438984,0.7785792809811416,0.7287112647567766,0.6637605143106451,0.6018302969658849,0.6071157882415528,0.6878614643980927,0.7465216160371182,0.7545986340283881,0.8213436226633006,0.8584130292607184,0.8363939455913143,0.7415971089200588,0.7016979833795216,0.7583654056380076,0.8212262251715665,0.8577699648747932,0.8743209739237101,0.8640067389069528,0.8558677438124698,0.8533733931433019,0.8485244075282448,0.8045365096867694,0.7567623867761974,0.709360207746919,0.6913911261857968,0.7310760023363687,0.7936866781336112,0.8202680626811891,0.8500139827488264,0.8742466166033425,0.8807963535905894,0.9190903428512658,0.9579038406458262,0.9353928772472249,0.8202131083849484,0.6833899151780138,0.5706649855525074,0.6532090822492642,0.7746511182360583,0.858467423222145,0.9037294607639912,0.8557708362357279,0.7580414781130389,0.7127103807622119,0.7662330576136269,0.8168978306424433,0.8556581331603277,0.8833668439170617,0.8774916514630955,0.88772947261424,0.90709996214223,0.9144249700644331,0.8865790329499279,0.8358095084656072,0.7908207108728802,0.8134242362335837,0.8277170581668396,0.8680257846182076,0.9065549374834965,0.9451729862653209,0.9899745498899484,0.9913757739720812,0.9999999999999996,0.9855609929056102,0.8839901600268054,0.7441309947953569,0.629400535688958,0.6979040988054881,0.8307842593692336,0.8839286204874655,0.877983131988358,0.8511141753574889,0.7528391240900683,0.7133385166520498,0.7806911278568012,0.8199667385009124,0.8427491023875286,0.8380571977961062,0.8423556202946059,0.8262128046805475,0.8195351260252335,0.8040519420315211,0.7769798128847634,0.7219382953467339,0.6725519145558381,0.6613945134214094,0.6792600497291938,0.7128166925716006,0.7329052745039957,0.7654925854747776,0.8070461937257103,0.8623026350355345,0.9020093149762132,0.9276093155469725,0.8366869983847445,0.6986150152526647,0.6251241041188549,0.7259162531812424,0.7814588200453181,0.8164392566263561,0.7835013395250399,0.6894980921531171,0.6316419227769123,0.6779062541440628,0.728616188946448,0.7711597337416296,0.7930825907354184,0.7951468702205884,0.8253119187670541,0.816550008241768,0.8178908724420269,0.7805123098512126,0.7270085162133779,0.6821458598348529,0.6682824859260923,0.7032844683642705,0.7324461577769221,0.7478826654637278,0.7953462062347332,0.823167925590091,0.8454833106124835,0.8990481404441186,0.931840511827057,0.8862763904374504,0.7415930377526947,0.604490078823837,0.590926236871558,0.7082562495786298,PM
0.8300230301142288,0.8674187211785995,0.8652195914146945,0.8212877115685824,0.7909527607241971,0.7733421015266069,0.7771485959300308,0.7894891614327706,0.7954297806890749,0.7929389649495346,0.7735634207326914,0.739829588292874,0.7027566565880765,0.6886309462855926,0.7191180681750835,0.7524487381701006,0.7573984723346097,0.7740316240964089,0.8027293855534106,0.7421916373865269,0.6449957370023685,0.5505845862100693,0.4632028040458527,0.36635153610752846,0.26894494664798874,0.17974712329749654,0.08775855778053265,0.0032216865014536022,0.0,0.07627047981851898,0.16681845068954515,0.25610189192131916,0.347970184355074,0.4455948869422752,0.5431901011313747,0.6344592581157349,0.7236287973890352,0.7806843308012577,0.7700623327355747,0.7614756820054793,0.7547820751084109,0.7505029435351209,0.7451721037619385,0.7426515851290982,0.7662483848817596,0.801312663904721,0.819348764706944,0.7890184167467102,0.7607857493463575,0.7473406667626901,0.7543575231650028,0.7508630434387633,0.7408491362160963,0.7354262653418198,0.7172480170166546,0.6892247537721745,0.6706977138769437,0.6854765360617956,0.7288361358967068,0.7557426054417069,0.7698254173336216,0.7747878541065683,0.7111986376640826,0.6154385738325068,0.5177379302488851,0.4209917317162215,0.3337942494745003,0.23909526329785513,0.14166170923596222,0.055921232316296976,0.036089162156226484,0.1043857138117874,0.19626672871567785,0.28394036174066706,0.37446253220014536,0.46453530141392707,0.5620453061610255,0.6597075576510096,0.7518834531606802,0.8013602862201832,0.7984805529805048,0.7952871124724104,0.7846779809145918,0.7814486703652597,0.7706829839638052,0.7755876959369126,0.805291880685916,0.839418367504152,0.831599710934692,0.7995307206158275,0.7745904732187119,0.7700148987584805,0.776869981190708,0.7866032521669897,0.7897663297090134,0.7743721066168978,0.7552672968394789,0.7237271131754335,0.7013099091810424,0.7172105832035747,0.755848798597148,0.7837613192627673,0.7892193854180183,0.7741260114697781,0.7046253889824141,0.6111546823950429,0.5137946898439611,0.4247649915040659,0.33248812707397324,0.23501112096785448,0.14556522921349635,0.0903370278953326,0.13022481485917003,0.2216072545624146,0.30865649223873004,0.4010406328078655,0.4879966426613638,0.5813237226260861,0.668591319438274,0.7626162032550983,0.8098274686336782,0.80206091621342,0.7871578506460442,0.7816988743142483,0.7741092223225137,0.7755534108361839,0.7813558948885666,0.8090304550815739,0.8467618969816748,0.8544070885405504,0.8220211639442498,0.7879276154591397,0.772573836344342,0.799258500529249,0.8248645148151954,0.8279506712092581,0.8594748789685174,0.8948550868781366,0.9130264570292927,0.883076048990006,0.8452812531041125,0.8220422801214131,0.8257568435543925,0.8253427858281028,0.8294944399385498,0.8390322131057852,0.8480109583315338,0.8667759298576925,0.864960944437448,0.7960795756020664,0.7056269995951465,0.61824170551007,0.5294996865577712,0.5295159544607568,0.621697001094663,0.7193082107055802,0.811027701441932,0.9002311709320467,0.9800812622944319,0.9723427612662221,0.8947978723763088,0.8400691216494234,0.8249882721477111,0.8062251681577399,0.7666854898541022,0.7510937046350274,0.7775848035216326,0.8053616324072304,0.8232789495835118,0.8298188651744869,0.8271404852576241,0.8165407459183098,0.8069950161400736,0.8225592100324393,0.8458340319130457,0.8761013426273585,0.8866776729302825,0.8581376364478024,0.8228012444492483,0.8092243904939356,0.8209796818742998,0.8220073657453193,0.8304521920573944,0.8339000847143179,0.8533046036171335,0.8807896418197669,0.8348778629460958,0.7523319500729795,0.661545488350417,0.5732719463640337,0.49133204842321754,0.5196939676195551,0.6117826747162567,0.7093387823974229,0.8004630663441616,0.890121433679498,0.9687488555461383,0.9584014522216286,0.876928605932443,0.8226090194411235,0.8009116275976929,0.7820351967204047,0.7445104382243064,0.7113437245464416,0.7292415782851365,0.7625117330904747,0.775283295339505,0.7850865946932888,0.7969791767929599,0.8023227877282799,0.7921174141565921,0.8028715077691626,0.8336371404095215,0.865760955343261,0.8679567096470275,0.8333740344917866,0.7994537111219191,0.7853771683688511,0.7897706769573751,0.7977827599360141,0.8004619358757579,0.8045797966542512,0.8252950167551141,0.8530332796904638,0.8007777551948652,0.7123210817227872,0.6231016617407532,0.5268916831084762,0.46976620732668395,0.5331971702826255,0.6224633479071311,0.7140833194544716,0.8116590696561767,0.9044627531945484,0.9849425836051517,1.0000000000000002,0.9217310674605461,0.8448315788017744,0.8130032089398609,0.8104209889102083,0.787990021645401,0.7484921511784599,0.7500125221073135,0.7888889144112301,0.8197350853752761,0.8299788893681754,0.8455387352854873,0.8421166347520319,0.8367151605422689,0.8287112281039051,0.8393915035733597,0.8670875807373932,0.9077497067444618,0.9144837655933131,0.8857747103786051,PM
0.7024341343239837,0.7420213287312625,0.792694712385051,0.8171228841847387,0.8288246876898402,0.8175974807931032,0.8056816456065192,0.7974064707465494,0.7972937658660175,0.7972937658660175,0.7973022312763511,0.8007848608940167,0.8267205233889987,0.8363516562632984,0.8192114617370927,0.7821469278929003,0.7873453819382967,0.8073683274477954,0.8540845148971155,0.84894929730793,0.7615908717855304,0.6634650441561876,0.5674788216600684,0.4643258819457259,0.3466637001716797,0.23970952178479576,0.12486891053663474,0.01269702731407163,0.0,0.08791351371113931,0.20126335742210033,0.30677424607566284,0.4195923413914291,0.5247369257818377,0.6254113334691218,0.7207367846404034,0.8045114717708439,0.8566676062615008,0.8743576126743857,0.8485708705426172,0.8135997541635054,0.7717070716555763,0.7231934997116811,0.6787828512955221,0.6716270046779944,0.7061118039922909,0.754767713714612,0.8044190634078214,0.8405788522477966,0.8460701938164927,0.8366655575095785,0.8230079199284757,0.785378478220383,0.7635010941617124,0.7647843640450196,0.7638577208446491,0.7968581347711909,0.8072764868370474,0.8194045179111518,0.8315330203979938,0.8047964093674542,0.7837400504328706,0.8098997795920404,0.859528481979766,0.9040566029437995,0.9133883865090411,0.8420921338296856,0.7389660561177074,0.6290283988360237,0.521568780653296,0.4104177538867493,0.30507580486690467,0.18659279437205623,0.07026484306752767,0.003043601424341791,0.05615104882599642,0.16288178957596822,0.28252713340932445,0.39182352457504077,0.503619371363385,0.6121834377161548,0.7185935051030503,0.8232087017803931,0.9040060813200737,0.9318342810446287,0.9117170393640892,0.8883736226718217,0.8527043569046584,0.811084577180226,0.7628689908933568,0.7229796658664251,0.7232375985314183,0.7644865539154226,0.8168386585924958,0.8577269526510873,0.8893157532080056,0.8913453534882838,0.8700030616513055,0.8566197067790271,0.8457049986406742,0.8461018235466229,0.8482075566746188,0.8440617765746619,0.8446951208065103,0.8513756393091918,0.8184247376567266,0.7997195754300139,0.8228762684237139,0.8601138240329633,0.9195120744413572,0.9051552398402838,0.8136924478724734,0.7192093584700014,0.6410239215508122,0.5325553389506732,0.4147714706494261,0.30936369315493906,0.19150051338643603,0.09315400202098711,0.10053262550704734,0.19643453179969894,0.3110270818169907,0.41727152093753705,0.5315564496001732,0.6350214172292081,0.734110275243474,0.8286476453016522,0.8697420898652553,0.8470909018671904,0.8275856433526565,0.7950306423974491,0.7528088052915756,0.7025931074387981,0.666537574819186,0.6473701816810982,0.670270460856818,0.7331407231944866,0.7802995643243165,0.8253848527273258,0.8590499520615524,0.8335918736755392,0.7803556141032715,0.7208994643165427,0.7163468121446361,0.7593310112720961,0.8056240290368488,0.8461252968231134,0.8810337823947654,0.9053503533408351,0.9217656248793973,0.9125707911627678,0.8528659795470661,0.7639746704677632,0.6663571318158614,0.5697446463179139,0.5695246870148072,0.6688899404787505,0.7631834262315333,0.866584824598085,0.9700595810908856,1.0,0.9747900338838633,0.9231317781122281,0.8872229671609477,0.8740790129102702,0.8997640523730901,0.9037451375558851,0.9037560555607791,0.9037560555607791,0.9037595371755502,0.9060114802787425,0.9221282198777923,0.9389704171383082,0.9431273501226571,0.9352271514419712,0.8997004077649065,0.8570600572657603,0.8025488624862285,0.7725477327496235,0.8071102983729159,0.8598618875322477,0.9005666238968448,0.9368168163270667,0.9638918180169558,0.9816913703780985,0.9797600583003923,0.937392139950624,0.8647275190205725,0.7684030044445058,0.6570785972518394,0.5507530247800485,0.4675554857824511,0.5382506494677424,0.6413282258232345,0.740534975158071,0.8421088686349583,0.9399844417719296,0.9787411189920197,0.9552873213171194,0.9029342677480168,0.8590229732325416,0.8628779347071811,0.8905425768757564,0.8967978270137036,0.8738793134311815,0.8728973293241595,0.8448308016753883,0.8260014617349016,0.8262129770468567,0.852478167394537,0.8860706234217495,0.9027944237017747,0.9111122532641449,0.9086561459267588,0.8786938407455347,0.8338447007994416,0.7829425366307818,0.7464931344008905,0.7530314773793094,0.7960560252074451,0.844797406620307,0.8829580257667935,0.9166363392224843,0.9233705039354976,0.9152138514809169,0.8721197144658528,0.8021957926327188,0.7137167723214777,0.6172889853370322,0.5199717690183161,0.5278414260838313,0.626997598907864,0.7301550699269153,0.8326624803921807,0.9096740729947994,0.9217089925787003,0.8920918993137747,0.8608476415391442,0.8386872765993689,0.871596127679862,0.899858622804731,0.9032674958404532,0.884758458785651,0.8649413978907621,0.8637774352539607,0.8573656586679799,0.8622411052462318,0.8525085394488743,0.8637949090632655,0.8777672118153363,0.8839839938241334,0.8799085254345655,0.8545620865070935,0.811839398505318,0.7563017058046575,PM
0.35946968229164455,0.4139369886173425,0.5094114683625504,0.554919745776931,0.4709188343781301,0.3539456133872909,0.23687569329938696,0.12013907435281568,0.013222145532616913,0.002685234626530253,0.10236906972401383,0.2205250144224793,0.3352758623142902,0.3929590798267453,0.364044496317127,0.387780867366317,0.45200630739646575,0.5155579385105546,0.6023171537412353,0.6782174831591148,0.7715127413318978,0.8292210081985825,0.8552307949756346,0.865976010637038,0.8628244215597538,0.8450517860072868,0.7995051459003719,0.7585096676047682,0.7623837220486405,0.7830956363568713,0.7708163198782734,0.7503714715520047,0.7561242036004787,0.772817480935813,0.7834120341395285,0.7571312393509679,0.762467052439171,0.746859477104296,0.6475471838317624,0.5348578080242634,0.42325065309978815,0.32501419716407676,0.22100415537454388,0.11490139980328817,0.09838757539949561,0.20006915334170627,0.3165833604025361,0.4376846390749487,0.5528818960829225,0.6696452286970109,0.7726203171255877,0.8010326963296024,0.830929276432385,0.8519398638391438,0.8902710490699166,0.9285803907519938,0.9175920637565393,0.8460079956519813,0.7928412386947132,0.7848180408959566,0.7979191888659247,0.791633863384295,0.7889265427397236,0.7916640612984562,0.7707185093207223,0.6675372627158491,0.5538076801505019,0.43957210292201077,0.32153402602625714,0.2078045166133935,0.11748709635216215,0.1511252727915855,0.2611747932322219,0.3585455498192365,0.4626322396885125,0.5805597961442952,0.70448342450996,0.7841840905545416,0.8194553518969327,0.8240547044204385,0.8452892938807925,0.8708593703372707,0.8762752254826631,0.8132388950259564,0.7757998792340677,0.786871889692933,0.8215538879900064,0.8250017244970469,0.823276730525673,0.7990895110832434,0.8006739846517414,0.826530701947392,0.8459726585573348,0.8495222456631095,0.8503931524424757,0.8280455471779227,0.7658487087565178,0.680824776697339,0.5710645545936981,0.45412218537840565,0.3372413538777008,0.21900055650649386,0.10531930699375303,0.004162984131371061,0.0,0.10383896783379654,0.22991383555433953,0.3562193721055287,0.4751433656240025,0.5924831718270813,0.7086181893427985,0.8013706159194782,0.831320923249405,0.8237301194057316,0.8475622533155776,0.8806002142127254,0.9143357143399793,0.9035606180627049,0.8557874919123585,0.8296050781786868,0.8004280463537283,0.7729979584380231,0.7638523548107552,0.7675205388537327,0.7520779337304087,0.6704737008555293,0.5593217435898385,0.4458669097733401,0.3252480643699449,0.21129297732422825,0.09491828713182993,0.03186775658020902,0.09889153808173234,0.21058020266479516,0.3342009027146886,0.46046566955299295,0.5789125288734593,0.6938775919462501,0.7751197341651406,0.8137561570154472,0.8208862236201446,0.8529104208152962,0.888030742903372,0.8780512132395144,0.8662795329979522,0.8432814008052485,0.7729639559545987,0.663374223847413,0.5466907528731968,0.4373956532991421,0.4569480185290147,0.5446432896172826,0.6288418874625263,0.7296379262153916,0.8070860228350705,0.8201528235324027,0.8204027984277766,0.8286282631899835,0.8545466767853609,0.8749734745959865,0.9098738222841025,0.9595693746891187,0.9774054128740393,0.9425797059438537,0.9084445496165021,0.8807162564476851,0.8835693190182543,0.8915081991229699,0.8184822139218231,0.704733959533393,0.6009942145144851,0.5012996189350998,0.38459535229484865,0.35676995223769814,0.45821368919987626,0.5761779181827611,0.6873011398078555,0.7944895968178047,0.867978400695298,0.8902480414914071,0.9003316748380283,0.896937688254624,0.9092530546799329,0.8832649536236505,0.8556234234047302,0.8493302571792827,0.8766228731687569,0.8907884301327529,0.8864726506964342,0.8489091115847975,0.8368123865213681,0.8955776524229628,0.9413383034527312,0.9392544019183655,0.905288045967864,0.8825610070031236,0.8904335358441069,0.8557311517896802,0.8080913817974242,0.7069542757568377,0.5943095309487181,0.5168297455593531,0.5886306610629799,0.6973472392684539,0.7954772434905422,0.8419137043309235,0.8459979300163585,0.8427956115126662,0.8595795867399796,0.8567335593644432,0.8412803076080053,0.8639584978943298,0.9296602761668076,1.0000000000000002,0.9934297288129501,0.9562239408431166,0.9154918987802085,0.8934332370369786,0.8748479857166982,0.8723599106499484,0.846170171000961,0.7437720624093445,0.6300428267929765,0.528849688041148,0.5743632423384717,0.6844154437169998,0.7840341891319429,0.8311912969113096,0.8150563348233526,0.8220667384024887,0.8331194831949096,0.8096183657174862,0.7975445882537009,0.8152309981174841,0.8421438543953526,0.8215302217312506,0.8091990204487882,0.8447434888955987,0.8894727716658386,0.9115902524981194,0.9139148486922688,0.9283539679238413,0.9180179358049532,0.8828410894810974,0.8655963348481512,0.7851034252057068,0.6767954380539469,0.5790535363267113,0.47661341194852214,0.45874754944584084,0.5654696806595021,0.6818958011646268,0.7926457373608147,0.8716597305630092,0.8727887463484645,PM
0.8137651067853915,0.8075285884690986,0.8086104060940238,0.8203107537450485,0.8211061438487193,0.7906468981006325,0.7558443888632873,0.7253717086894234,0.7133743116864137,0.7130470666405031,0.7170292202573438,0.760672822362711,0.8260368005228542,0.8806510281459967,0.9155233986586337,0.9298554145766327,0.940614194136457,0.9465762325896405,0.9618081740172977,0.9584326565121095,0.922475270469574,0.8603742211374141,0.7852322639028901,0.710851593874186,0.6404170266708882,0.5837673854553056,0.5754940814401965,0.5855254654051694,0.5371876986860216,0.45799560889332325,0.37319235866962175,0.29674887310546594,0.21182223117440047,0.13201185218631029,0.05356753466625541,0.0,0.01997913052918676,0.08975364010243103,0.17427321166017395,0.23971175350434182,0.3093414814967119,0.3954208027535915,0.47977046952717184,0.556349609141676,0.6371931044141135,0.6613185606634728,0.6475550897199487,0.6367962365944411,0.6326483544748609,0.6427400377357901,0.6623283079782707,0.6887020830118937,0.7149961250100259,0.7165581034628581,0.6812143825445716,0.6547927923251884,0.6458513797929684,0.645633717513973,0.645633717513973,0.645633717513973,0.645633717513973,0.6456373836370115,0.6474833070674657,0.6643188856043347,0.6846931844087172,0.681696877150477,0.6577728805913858,0.6531022554944903,0.6611548000305405,0.6869899579363599,0.6813512778542103,0.6194950881984564,0.5438625570459295,0.4607845721886106,0.38012466583745574,0.3007188138323449,0.21614384442645607,0.16945757967152542,0.20589733350654393,0.27828793305521193,0.3639795448166492,0.4457696804025846,0.5241565618034121,0.6104563900509727,0.6934402868443457,0.7644491531172479,0.7787704276668526,0.7610457414597358,0.74108030701288,0.7283747560393417,0.7315708904553431,0.7517047755026092,0.7809150361828869,0.8096991638993101,0.8256356588092302,0.8026814096796004,0.7756142694812354,0.7670866450747826,0.7669568481465692,0.7669568515099299,0.7671954208518896,0.7748358270198528,0.7803631728980711,0.7805556855979632,0.7869118118949985,0.7921767514360718,0.7585459958093608,0.6905002123687327,0.6334516928390943,0.598922578214047,0.5924977682737216,0.6080931100935094,0.624701495709677,0.5811055781854886,0.5073424845167296,0.42987758232533557,0.3477539578482496,0.2659895646892816,0.1879281299887865,0.11684751126320903,0.11667899849494634,0.18134058483726978,0.2568643427749875,0.3421877422263866,0.42647704066384495,0.5030912646800709,0.5880486722814984,0.6624423209870967,0.691351272783651,0.6772221741849098,0.6667061706733846,0.6607899719673929,0.6828271298804951,0.7009693052879895,0.7013323642474607,0.7114925109094676,0.7271633813181781,0.7270073648957205,0.681079342285728,0.6056766811669478,0.5248133238994936,0.44608570625419985,0.3611952257697879,0.33375950515816033,0.40897309259655423,0.48725986173535873,0.5650327095844243,0.6320066999490941,0.6724208440587536,0.6640413422820577,0.6446328236994858,0.6435098538929507,0.6802823372979294,0.7369356626272354,0.799813536767245,0.8310801844208033,0.826451853554363,0.8259551440862063,0.8177213717045493,0.8127286589697602,0.806437308936274,0.7994740342562288,0.7993096829819277,0.7993663713501433,0.805509685182465,0.8311608413044704,0.8595836165572484,0.8599090716209201,0.8401624349547314,0.8095047763626513,0.7828517582362611,0.7726878938963331,0.7770780912824782,0.796638022888138,0.8160149562087244,0.831477376757334,0.8021618294483008,0.7309867316697465,0.650945837110467,0.5690766046960112,0.4908612704499442,0.4070887881284311,0.391293441104104,0.4603662623841791,0.5438661627100292,0.6202546152410522,0.6985054400274795,0.7477776184002642,0.7373378844594802,0.7140516006027358,0.693085185321684,0.6992256617589205,0.7233323361810757,0.7269224325859673,0.7091127186188164,0.6898989971861436,0.6788656495063614,0.678531777803282,0.6877499611123692,0.6914394878164416,0.6897040179903773,0.6804861718857718,0.6901306539675522,0.7111785843697975,0.7505645502872438,0.7675044911831848,0.7493838533069386,0.7245795088275544,0.6980386659820141,0.6786172182720802,0.667862083115591,0.6768951844309237,0.6892878485184617,0.7098668157558172,0.7177619704217693,0.662295495055832,0.5846650066350978,0.506765387033304,0.42095645613746324,0.3490819038126327,0.28421522638076047,0.24914867279327546,0.31864130758748366,0.395317123913268,0.47644298432115684,0.5479232358364403,0.6123530804993289,0.6291611623632616,0.6237707447730629,0.6620881742067299,0.7317032443275717,0.8061425006026999,0.8811106960614723,0.943079155913132,0.9836444986089112,1.0000000000000002,0.9961296984586274,0.986726447359269,0.975169385491699,0.9627035742533214,0.9495229660361406,0.922060349743562,0.8681894102041865,0.7969832946632993,0.7495725389321477,0.7462334083541855,0.7565892722246523,0.777469167935511,0.8129071494356566,0.8489823057039703,0.8720040171727039,0.8558449533748076,0.8430927983378311,0.8485905121919359,0.851323399863104,PM
0.5177950969659171,0.5175007799479157,0.4974077100567751,0.4516035129749021,0.4194671048299976,0.39007425188085154,0.4073641499984233,0.4684099080150803,0.5107212469616442,0.4915268305045739,0.4314761615572231,0.35800924535542,0.24300531938153735,0.12903031025909417,0.05841903273547011,0.12550175044186584,0.23706767065610013,0.3611600670909567,0.4903410681899718,0.6073294242090355,0.6549032308302514,0.5741769512882344,0.4952120299798364,0.4346832627639965,0.40065052318457406,0.3530227456838637,0.33851503188056364,0.3243347533374714,0.3262147724408999,0.3646577772753288,0.4092038074478799,0.45972940108561433,0.47060876853897415,0.4537463375362192,0.4504470258266009,0.4379170217622099,0.4135237197777859,0.40605111569709385,0.40720324816491793,0.42539013825978245,0.435043609303972,0.38999453066654644,0.36550664942073263,0.3476863166717492,0.3817541626324581,0.44553251558589313,0.4906375600416406,0.48548563709328096,0.4259999005458641,0.3415768741331311,0.23158345610610054,0.11147171964435154,0.039893350480954215,0.09256079760953817,0.20849941715300124,0.33439973416932345,0.4469002705455076,0.5742212477262538,0.697469022135436,0.7001156862811388,0.6027361924029391,0.5227880103267291,0.4700072405745934,0.44160255744042853,0.41208902417376336,0.3764904045299651,0.34457423516287555,0.3401456026246428,0.3706382888031303,0.43148959560265254,0.48085042924944643,0.495274612704804,0.49543313176421755,0.4940972244376436,0.477642471272282,0.47210158339726327,0.45646162486973596,0.45073810674307957,0.450530398103135,0.43918701573455676,0.41025459124367636,0.36606764325927443,0.3401906393281604,0.3606145625531614,0.4309650265311049,0.4694933745166825,0.44401456867906486,0.38379538243396594,0.31835692090925294,0.20411782256706967,0.09023851311120623,0.0,0.036638860852591826,0.15781130265007626,0.2872128196364536,0.4166413366446009,0.5440386335552825,0.6545248743081156,0.6973721656008167,0.6118779744510778,0.5251006188136715,0.46618441739244876,0.425721540458309,0.39294640703473194,0.379864637147016,0.3630128044211287,0.36343133797049365,0.39469748703665,0.4390045868709538,0.47264092138193003,0.4784609239342008,0.45494415239102626,0.4507254083596104,0.4503417369319407,0.4375365220325871,0.4304416975432144,0.4473610344749619,0.4506936806104367,0.4464283456495983,0.4118981759613085,0.35859407067241555,0.339649811572313,0.35958499764253293,0.4210061680312558,0.4688601821874663,0.46432064680141627,0.4010479380529888,0.33759402383085346,0.22685536292177266,0.11513595304082935,0.028423021997306286,0.09115535432299193,0.21506576040867165,0.32741371220226245,0.4276037390631129,0.4889103435175768,0.5252257884647711,0.5300769963218177,0.5273457124667527,0.46712887654097646,0.4195954400925319,0.43370590446155344,0.48185011950114776,0.5035745087831391,0.5043782107737638,0.5041301642970311,0.49352944628913686,0.49869209062320774,0.5043514087280552,0.5045576891032111,0.5176809056166567,0.5458466430170983,0.5445650156692738,0.5139927199845227,0.46914580310085974,0.4292859894062393,0.42164665800268963,0.439850353247071,0.4628953217456271,0.4899489151125205,0.5372210634519137,0.615756128510411,0.71304130461403,0.8168179568511733,0.9219768364574574,0.9792951499653655,0.910793818347114,0.7902150903273362,0.6735699319071067,0.5537997549726179,0.46352832227841745,0.48002211478500856,0.5218816806748081,0.5264397391579494,0.5076314175285597,0.44421482859886696,0.41041975770359285,0.44279811142518044,0.4780406718972139,0.49913558440922046,0.5051575875998235,0.5230776054478117,0.5338544695687726,0.53470834069409,0.5308400871880936,0.5457138159053363,0.5490940604518175,0.5491006200716861,0.5488702175325191,0.5348709924144752,0.4913075186782234,0.436245782253335,0.3996543935507839,0.42369055799726096,0.4576950429160562,0.49290838518875457,0.5154823813687979,0.5648760009317315,0.6463307937584082,0.7469033965193428,0.8504206314488596,0.9523122354804863,1.0000000000000004,0.9224303516369088,0.8081244158161698,0.6791961448015642,0.5542357268020162,0.4932179688425564,0.5339358706253448,0.5609579026845073,0.5496758479412946,0.5199680549110588,0.45807213594307283,0.42187659470900796,0.4487308552908873,0.48301652702974174,0.5006626144582627,0.47924141632219497,0.46088530025640084,0.46515284210484076,0.48897387330185005,0.5038515223283477,0.505260407798382,0.5206291976486943,0.5263955411360794,0.5098896530998611,0.4632674994258683,0.42469390729931744,0.39552250369159614,0.39541477979735173,0.422514769132027,0.46067313575112845,0.5020397182085676,0.5706449140099936,0.6598076190033053,0.762468187031724,0.8660645563234479,0.9667024373551816,0.9935418004551528,0.9010631634738915,0.7780309099913008,0.6597881167379116,0.5429866764012186,0.4791706965144038,0.5226691213741002,0.562526927439992,0.5700431045967895,0.5394347027232556,0.4868927221726782,0.4741043083650269,0.505655740795858,0.544379319857331,0.5707420485768062,0.5801360463767904,0.5874586711160839,PM
0.1519347350078717,0.13573163605304162,0.1485882888384995,0.1797827623843835,0.19743564841274397,0.2171390396854651,0.28638064769133154,0.36366038225438313,0.42071832693933553,0.5081242012201317,0.6075192534393201,0.6285280137299214,0.5499304320292038,0.45743605670660026,0.36689080853454614,0.2759866568382576,0.18971579450564713,0.12204091380041282,0.07170580044295383,0.049122725639740406,0.0326233093818078,0.01730434636696332,0.004882051709963253,0.015265624714811743,0.05280342062697985,0.10381342331955157,0.155657158401993,0.2109933612487822,0.24644753913587714,0.2412641939791622,0.21843672431956884,0.21163916394489046,0.1994010216834745,0.19781490653142209,0.19781244780600593,0.19781244780600593,0.19773019937268854,0.1891749741757267,0.1511883916109098,0.1230887287917235,0.10795307096773987,0.1279301680250069,0.16382246174155757,0.17833486187054692,0.18405410483512918,0.25141838136872785,0.33450251454265034,0.40116105404813407,0.47626473559818594,0.5653559657263694,0.639459426218353,0.5901915258212407,0.5004354319124489,0.39898522603604425,0.3049868594852958,0.21686292470514346,0.13821737906171983,0.08089653077258152,0.044508691106292186,0.021775921383374364,0.016276562362341984,0.01851683531183923,0.001119329137781122,0.0,0.029544340163011107,0.0753548904864787,0.12871326804068728,0.17779198818101527,0.21857004725778184,0.21941094335038525,0.20311946887549315,0.1978554970607762,0.19668566310868574,0.184767414246104,0.1815578722188249,0.17572307585119118,0.16577235299240067,0.16300422910052603,0.13527873803074986,0.09968633295947393,0.08533536478887571,0.10194707101766776,0.1704556531824113,0.24523374004017606,0.25541869239473725,0.23777383980785505,0.27133540595052175,0.35059552798650895,0.4452091932565372,0.5111545389318946,0.5935594783807958,0.6783019217130151,0.660194480160972,0.5726475502105686,0.4829686150597441,0.3932610652214783,0.3027301036221295,0.21057543869315332,0.14247376638436338,0.10280133021083548,0.0748603990144141,0.06073408130227298,0.0382635436555363,0.021715662141528203,0.02855850439036489,0.05704534153393226,0.10442474710028504,0.15716096297670257,0.20752206172185517,0.23482976886566398,0.22317427059269468,0.21043023983691267,0.1986665752483563,0.19781304062480443,0.19781244780600593,0.19781244780600638,0.19778990924298068,0.19344886263013317,0.1699244675943694,0.14602301965914988,0.1630788640375016,0.20247623267549963,0.22971969365684508,0.2366545142567955,0.23670991862232738,0.2381468265210449,0.2556192881119186,0.25550038532152586,0.25771063795936344,0.2533601555251108,0.2635686380912219,0.27988353876031713,0.2743207361888236,0.2334194231839808,0.18028910427743616,0.13026928143644145,0.0872786621593109,0.06558825808600632,0.07904263436651338,0.10175856884804757,0.12367633555410595,0.13720944016065628,0.1698978495136827,0.2361593880715942,0.31931431871954663,0.3952175716829083,0.470926435056096,0.5692025704245234,0.6678301824054445,0.7565359001296756,0.8465507897086542,0.9367575552363889,0.9999999999999996,0.9609923314109374,0.8718977739011486,0.7761147560419701,0.6852873060317579,0.5911922685958864,0.5133569373456619,0.4342037019168665,0.3495398237527927,0.2979470042225114,0.32110776619949055,0.3125494994162299,0.24959329206734804,0.16950136861139153,0.12989512971264006,0.15267368653112223,0.18912239830711108,0.20617024343578505,0.21872452928046782,0.22050381851057477,0.22275020702305603,0.23500472265517702,0.2367059597215566,0.23729660833925736,0.24974479829479046,0.2666164859190885,0.2638169151440741,0.23771760637630202,0.18898076450418522,0.1373283214782366,0.08493416278253552,0.04959338732965746,0.05494551109038692,0.07201005787821035,0.07523852205293435,0.09257072630544538,0.14066343039058538,0.21325352422455301,0.2998423962344714,0.38965734140552843,0.48095197268278733,0.5738929816695739,0.6605684163819934,0.7530163754429604,0.8546843548565137,0.9299843176942688,0.9091025045066106,0.8244451434319138,0.7293153713199625,0.6353913301920899,0.541851955999836,0.46736208752170505,0.3901059014767658,0.300699105472078,0.23364056682669787,0.21928368365113737,0.19774022154788895,0.1689030207066451,0.17165343997988147,0.2005402314505842,0.23279775696259675,0.23669771850757915,0.23670868391031696,0.23670868391031696,0.23673311778410033,0.24094246150683363,0.25395463480818137,0.26918105863075903,0.29013639392651935,0.29696095231238173,0.2702712539054497,0.2218279079443457,0.17029051854384214,0.11792890631089614,0.06945699560854113,0.04926247833690889,0.06001658396849896,0.07806671398985188,0.09420221216651115,0.11986823296226357,0.18148672483611383,0.26524526679735017,0.35571609895073886,0.446503283086098,0.5366975480321581,0.6254772566513029,0.7145563042873433,0.8067162454257635,0.8929540729606256,0.9320970393304502,0.865014852199101,0.7708170191531778,0.6756124627739704,0.5779804038592853,0.49668040512983325,0.43205257091213145,0.3526082488272255,0.27677697355782316,0.23856131881645704,0.224016655326984,0.19183794374244334,0.1839977520329774,0.2050193474536779,PM
0.42012923754010023,0.42851009849089516,0.3744015301153265,0.2979302727922568,0.20531330496416134,0.14346169474179504,0.1304595195016769,0.1783660182916651,0.2439055002765742,0.29646393852274633,0.28696429491686315,0.24065292359506296,0.29219272438049027,0.37596757602502207,0.40721369803849106,0.3932388234920956,0.29273938570705926,0.18700314751062797,0.09089252319230745,0.0,0.015346016728802425,0.12188120717381823,0.23736511201916732,0.34786758266385576,0.45678153189851534,0.5530108666158431,0.5196087550504536,0.4238311392412224,0.3424387476736608,0.31351992384628735,0.31257289344157124,0.3399774059500831,0.3881121195641173,0.4549249944383562,0.5323343227735893,0.5448283961664311,0.4810527458387628,0.44398273182054915,0.4532161489964772,0.49332194785364525,0.5469837119085792,0.5745009755326009,0.5320966928559732,0.4864085164174008,0.4912678235167962,0.562078721352469,0.6132473293982748,0.6322970264995655,0.5637460829712704,0.4541338572735216,0.3385432944046767,0.2424696323531208,0.2665362421220605,0.3678942299875363,0.47467786542198276,0.587813595729922,0.7054223656230723,0.8119435904440389,0.7779402297906306,0.6751474180560084,0.5922365836551711,0.5459933951714149,0.5386063925108178,0.5625044592538377,0.6109704771866413,0.6768781465787401,0.751956680591304,0.819784967973598,0.797668474609786,0.7269627862101276,0.6680402702909882,0.6637345773932615,0.688374245243645,0.7127071144527855,0.6850087171604611,0.6257767944480106,0.5729355470588153,0.5807857600798556,0.6247414494610153,0.6161101286496953,0.5685248490113315,0.46661422307977984,0.35617088290672116,0.24309509056460454,0.19411848703174162,0.27620481384601137,0.3794923811722968,0.4875363051243671,0.6066638387625494,0.6608981461650809,0.5756388291985317,0.4708821243480581,0.3965904196040895,0.3538509298310233,0.31090912010826655,0.2974994384209695,0.34459261263380236,0.41386415306731994,0.49748967286415535,0.5730147013582116,0.5779001406484672,0.51077019286189,0.47463352876054987,0.45441749666272324,0.47970565017344624,0.5297143364929684,0.5443870820564363,0.5063101479140131,0.4549726214559504,0.4137041830409829,0.42366097507360445,0.4745980906160563,0.4975487800835747,0.45997049094521536,0.3543805064929746,0.23887664746760384,0.14092396398697993,0.15098292706817595,0.24503015332426603,0.3572472526098056,0.47063619647680177,0.5853385547101118,0.5957657139962098,0.5015550987968629,0.4131730213179532,0.36151995580160756,0.3274088144343885,0.30809836935727475,0.3359921449238832,0.3992298345913188,0.4690094291869431,0.5251768740566001,0.5562139920126334,0.511307595608987,0.44149152172887396,0.3767127690243579,0.35300869603110074,0.3808582778697023,0.42275355268999837,0.4994742986154592,0.5990164887836023,0.6990372549033812,0.7697349880066908,0.7206808769500288,0.6110067142392568,0.4924040349944243,0.3798559722578383,0.3332797640325782,0.4218273072090786,0.5240261714254553,0.5966232028315153,0.5608704419417494,0.5280290254352393,0.4830403469620528,0.4850857257802148,0.5286805967767112,0.577407109822325,0.5976209350832131,0.574727057343273,0.5212769553624854,0.5009573591207386,0.5248308894757261,0.5812715546409968,0.6471830414700759,0.6504632557285674,0.5815801541873915,0.4953903179498407,0.4216009101220566,0.360746282787352,0.3624671170861,0.4020068293785046,0.4521907728680805,0.5355107733083857,0.636553064845562,0.731774785469987,0.8317751520225252,0.858092108711209,0.771103063221052,0.65222969852223,0.5346968542347659,0.4385105303758059,0.4789709396388919,0.5934980812938453,0.6929675566954132,0.7071751724596909,0.6717793317928935,0.6622094589129488,0.6257348740328914,0.6633842333977529,0.7242240853603197,0.7615154701714757,0.7488826156457127,0.7206646418065588,0.7210918509863218,0.7843558444613428,0.8542830093783058,0.8858440303313482,0.8358197707609158,0.7601761617171903,0.6845331646296438,0.6206218584778824,0.5878320980827381,0.593162612759945,0.6191181483002026,0.7020252185419045,0.8067212431953639,0.9120677972793665,1.0,0.9762582411783511,0.8702124922124082,0.7493997713748275,0.6338107798294859,0.5312193595195667,0.5560769400688943,0.6547796666974786,0.7367086779665559,0.7115029658405851,0.6743423542637488,0.6345183301122064,0.5722337019224892,0.5394364140874415,0.5837435224913619,0.6216243098211676,0.601398589134968,0.5469411551036587,0.5060729419842107,0.5008974666315189,0.5517038985921023,0.6114230283665432,0.6032806815361251,0.5355251904181482,0.4620972315881464,0.4043190464096327,0.36428700317525253,0.3621080441738864,0.39885538924015673,0.49035744569095074,0.5972577146633822,0.7012387166554941,0.7634707428145946,0.705033277590867,0.5884189922865763,0.4751778306986134,0.35517723821461455,0.30124779868451057,0.38768658411969437,0.49062211153109114,0.5197453404872423,0.4636873375242292,0.43006558825373054,0.3916811537823861,0.3959852497725289,0.44615637217520376,0.4914532358864858,0.4709153725467776,PM
0.6495126858823861,0.7188525827551739,0.8012875100481334,0.8758714077670364,0.9417632214726812,0.9513201766239956,0.9091537351553807,0.8749963290413996,0.8284496062348405,0.77372100480285,0.780408722818333,0.8321628324019759,0.8437280654654942,0.7769821973733273,0.6853524099779953,0.5916562398343832,0.5013755653971674,0.44481217609383905,0.4961050992237601,0.5851729263438015,0.6764391689332139,0.7669825078345298,0.8015363799068762,0.7314715478135623,0.6596684829053039,0.628408877482812,0.6374222432589605,0.692151956062945,0.7639389223800788,0.8345913424296567,0.8530087104526307,0.7900142257742311,0.7276520360216407,0.6909873719901898,0.6407373622326609,0.5743506236440192,0.5002685589868578,0.45116707881946505,0.44572222196974276,0.4152955927551847,0.35129341107597,0.26238043570701186,0.17047349617275254,0.08013091795966454,0.0,0.001431630573971665,0.08781381966587576,0.17907465453177296,0.2622380574750032,0.2549230879618094,0.17105179151340977,0.09231109760796796,0.05585332613179328,0.07521070397844487,0.12934772750602375,0.20511988269763726,0.2832766863838809,0.36225063646421396,0.4346022798512259,0.47487789720599305,0.4991338742965834,0.5080346856363636,0.5023457208418387,0.5412087832993282,0.6079978691727548,0.6486259886652941,0.6476376570082516,0.5672572461121768,0.4764395022091039,0.40100953085531454,0.4144917509394632,0.49817059193686064,0.595527135598614,0.6856236201054668,0.7094774616283048,0.6397105569790471,0.6078490408986275,0.637257639687161,0.682698321140871,0.7455740766189041,0.8172689844164831,0.8902673871322859,0.9476770990705041,0.9509874269738698,0.9356802936389119,0.8919000060698616,0.8389911566362549,0.8339944077162835,0.854154142307364,0.8200589631721407,0.7377297542580119,0.6395876522305752,0.5410914900153858,0.45040849557265195,0.3794635264547941,0.40399817523208137,0.4895679350358484,0.5790891310232158,0.659147915231743,0.6355944477076421,0.557215090434283,0.500436211833817,0.4615543466266623,0.4591504484193072,0.5128470031223582,0.5682936693702618,0.5491197742091176,0.488509477098916,0.43062143703895983,0.38982891839143674,0.35366325532819776,0.3278458797785564,0.3577671787251544,0.41578594363674615,0.44919379379951896,0.4332015203011679,0.35178407443735127,0.25684628143788735,0.21168602072587483,0.2709347045264965,0.3596559082078923,0.45105452314155103,0.5329160614768309,0.5160507963050622,0.4447790522413513,0.41323789588445914,0.43164514904355733,0.4932838157034227,0.5473663103437152,0.5091269140225281,0.452979921356617,0.45424777637141966,0.5210325512925567,0.6030831864689368,0.6404780952033291,0.579958842147088,0.4915154764908978,0.4023192204454431,0.36328399325898775,0.4358269629423366,0.5077076562693288,0.49951594994592297,0.4638247041531771,0.4112689567289147,0.3670433870936347,0.38687637568117705,0.4230969997020184,0.4685151158792189,0.5296567040604756,0.593436396267149,0.6166665629183397,0.5691420357321315,0.5085498498366647,0.4951531737664565,0.5367345325842241,0.6062541531876124,0.6923746962109825,0.7805207100488818,0.8401353715448798,0.7993933409958203,0.7114951829664895,0.6197679779727447,0.5599492560804715,0.6200908684475979,0.713514895307199,0.8026380684598173,0.8723662276088233,0.8901576194800962,0.8786188418634056,0.877070853181406,0.9311311693558955,0.9693358887879493,0.9770312908795191,0.9919963131649923,0.9578073850315028,0.8926349356134138,0.821902813981545,0.7507469268594356,0.688902162786635,0.6517637650145165,0.6752090063975402,0.7574034665099321,0.8203607598825757,0.787190499742034,0.7124781636805342,0.6281786749919345,0.5610868307513868,0.607233517946814,0.6856794479474435,0.7390998581963457,0.7105323208097158,0.6618258370076411,0.6121862321205791,0.550401422538723,0.5395762412291056,0.5398911334719196,0.5217240480438241,0.5004051795708031,0.4516985568360343,0.3787909099595972,0.3030175729786089,0.2254762188306394,0.1482717108306182,0.09577868191064143,0.11211086232550738,0.19057864050976558,0.2774854372712552,0.3614287577178381,0.39193728362563984,0.3209887873419712,0.23113437699131323,0.15663409169024622,0.16028469814428692,0.24544795715377044,0.3375631265392838,0.41820039154315647,0.4548780001866082,0.48104736099709267,0.4983883077366844,0.5583492703152688,0.6315295822800846,0.6923469471109034,0.7333757605277202,0.7787907623631183,0.847879587783045,0.8980783356885831,0.8743313407529996,0.8092213113183682,0.7388097610704487,0.6771120430458317,0.6640696873038876,0.7163664304022637,0.8032017676755849,0.8830032446372291,0.9337105823297169,0.8954800129805198,0.8084342851412851,0.7139128697266957,0.6276813164065689,0.6532371442886371,0.7436474575821821,0.8315035726271836,0.8869315138395115,0.8841805360236696,0.8497050819973482,0.8081650687455839,0.8434116865581016,0.8937521768143877,0.9276929470443478,0.9741780534993965,1.0000000000000002,0.9629003309852424,0.8934492713370439,0.8138392995162853,0.7414482828994486,PM
0.3026658764543477,0.33955842879977993,0.4113781012479285,0.47325925647772493,0.5120395544562029,0.5580168451527667,0.5500978464598463,0.4916659779257224,0.41014389786572436,0.3518275922125149,0.31243776335945594,0.31409884320746406,0.3521976980225363,0.4059152724326296,0.4541071892081372,0.5229038660352239,0.5541909820000344,0.5420862506491995,0.5097247727287786,0.5139939961059046,0.5540531581783719,0.6055427447397932,0.6366876466882903,0.6470171287865165,0.5740797659506618,0.48577288468689384,0.39825636271571896,0.3039719620656687,0.21556304031078666,0.12958936286323763,0.07684386045858083,0.11750857558813044,0.1971917896414872,0.28733579379068264,0.37201699509497166,0.46507390751300637,0.548438315268994,0.6166552668348695,0.6717939407844344,0.7145716143530576,0.7489762851875601,0.7586273996352513,0.7677689946306585,0.7691296335713265,0.7558573723174402,0.7466251659553325,0.7767286852958084,0.8329409265149677,0.8958608397925412,0.9434525486591325,0.9657133070686701,0.9579296930094015,0.9621331790325911,0.9541407933570989,0.9383895762901462,0.9377502833717921,0.9187725569551022,0.902654828219343,0.8873990715013425,0.8673593371753725,0.8393479639312917,0.8012055152014881,0.7512168065627183,0.7306254938884065,0.7616678914061383,0.7866446080089333,0.7821390407151099,0.7363044796394025,0.6457571316976782,0.5551647801020394,0.4695332016352256,0.37545705072658864,0.28354928620835196,0.20229224817618552,0.17446590290969288,0.23781616326471022,0.30836390451943174,0.387004267050425,0.4740857704136112,0.558544692123184,0.6360946228657975,0.6939742913999161,0.7167795801229664,0.7118809901091545,0.6866907710926662,0.6518009003631153,0.6102913976098749,0.5664327493042531,0.521533843252695,0.48820759264470315,0.5072155122225857,0.562746764097505,0.6040290330104336,0.6120133775065986,0.5976359781837584,0.5903689512412598,0.595489701872888,0.6035014983096558,0.6107692738197597,0.6169645271331805,0.6170829325655389,0.6170636104317602,0.6129483944952931,0.5836352258519124,0.5441013226404725,0.5262452002426818,0.556022541095833,0.5969005178537596,0.6138382596555938,0.6227534633381513,0.5578551392399613,0.4736045993700224,0.3802782937421283,0.2892763609359159,0.2104037706141877,0.1356179680296914,0.05286821729817026,0.0,0.04018573698924155,0.1226295214137807,0.19708749795975167,0.2737651833681469,0.35969447149322,0.44100903234934385,0.5102303630208649,0.559586425878285,0.5757141906687404,0.5694319714898035,0.5388431363317103,0.4984157154107285,0.4529390441205514,0.4063631464329016,0.3632339974950738,0.35578775314632827,0.4015958255252292,0.4596631365533179,0.48528580875076344,0.4732424993863731,0.4723830297431677,0.5003590574575991,0.5158115703565627,0.5257456970330594,0.5109614463701067,0.4584117598917601,0.41129321702591515,0.4205641460833347,0.4668184853270696,0.5116778374137314,0.5537912977257218,0.5907738102919362,0.6080472698413897,0.608823467783489,0.5988148263782529,0.5568171097150474,0.49395860949314496,0.41133711236466963,0.32975754993711415,0.3503838711738887,0.4376487874771975,0.531564335181983,0.6168721783316817,0.6991213681212596,0.7333600084897527,0.6840735627229253,0.64919140506175,0.6220333061805876,0.5805909252944952,0.5741798068186115,0.6144921653038709,0.6499866077156158,0.6625585604128323,0.6629243082993868,0.6620863958139664,0.6557404204621711,0.6481791859484929,0.6369331914099674,0.6346303361743861,0.6303937418937919,0.6327458695351527,0.6482006044237956,0.653523551969398,0.6334087124424301,0.5867574868749745,0.5414930912793854,0.5593371688153073,0.6106324121686617,0.6488647290444578,0.6874244788208812,0.7232396728783117,0.7498624015606588,0.7569439552159376,0.7468062766073928,0.7101602084594743,0.6479299973322856,0.5693467099229785,0.48367798618433566,0.3967357688765669,0.4086781841498781,0.499956869460759,0.5918778712890407,0.6766044639748747,0.766095461550024,0.8468501191356035,0.8943196093734085,0.8552698466797239,0.8251635906344559,0.8071332683715151,0.7826319367589814,0.8154752404631562,0.8621727182017458,0.8924820751609777,0.9156651977671149,0.9343502424774996,0.9475713995276869,0.9641496794942639,0.9739434617383234,0.988485200061652,0.9995716332585953,1.0,0.9999211903162832,0.9914883482390544,0.9546017041360875,0.9010252316259364,0.837395232307939,0.7948302148513111,0.8020021145367338,0.8143169730324078,0.8100995723431832,0.8047656707439446,0.7854158756186473,0.7535981331921127,0.7133594099959604,0.6624319691600737,0.5939398780366489,0.5159881573572447,0.43342622318833124,0.34762010975699087,0.3203625792734457,0.40060978142137094,0.49444812122910564,0.5796078783360046,0.6695110487517075,0.7490009389716485,0.7820184905348126,0.7265028013654042,0.6800748281773474,0.6467061195121002,0.597751849122572,0.5598641614492852,0.568922981441959,0.5936594747380584,0.5997873753113234,0.5956813876137992,0.5954705345869846,0.5918304974755717,PM
0.2574494713744029,0.26135473861186753,0.2932730901980998,0.2988144711991447,0.3099678209490211,0.33880950489641926,0.3415319684154108,0.3680516310524018,0.3512896671754344,0.3738581554633136,0.3586290998248831,0.3402678605572351,0.3261358384918349,0.2670023231598666,0.24123054085690843,0.2021707535428563,0.17715464862443042,0.2135855187882223,0.2761335402904841,0.2970075317188483,0.26019374499985304,0.21863111559066262,0.22416751655808653,0.26306054088471775,0.34229542783309697,0.46178903128140547,0.5987231666645405,0.6557713040304867,0.6065051704239934,0.515328909075877,0.4082016878294654,0.27787712635633266,0.178194704872924,0.1082059047648416,0.08792277736829135,0.05552252219844611,0.052452777457904,0.08190768189774378,0.09559989876416086,0.15326290481069726,0.2177897847081729,0.2502775074009973,0.19514049123710286,0.09921059431918078,0.04787374626218188,0.014705822411125169,0.027813984238276745,0.020695784829679376,0.04863408149237447,0.053770260852679996,0.10374921671851212,0.14279976426235663,0.1617363396285576,0.1647295113478755,0.17476127042269063,0.17116134411126893,0.15588756439201834,0.15336137841832453,0.13380156732959048,0.12869987018728235,0.0950525209828319,0.04721794994282735,0.0165802341368968,0.00931677318681512,0.0,0.06929841002245851,0.1268442112159791,0.15862523080083601,0.1341974673252757,0.10332062136407849,0.12656162266971283,0.14555458666673005,0.22742627629582213,0.350516559602732,0.4997378665912233,0.6551767153771753,0.6990812106696005,0.5583274430656919,0.4254684931764787,0.31960279284067994,0.3209440745572598,0.25363049367271273,0.15959486427372838,0.12746493368625167,0.07721973199633059,0.05689369768844177,0.06731354320937832,0.0877949568157197,0.13366879124103725,0.20217773815289863,0.27357459176237153,0.34366572219246194,0.41459434145591967,0.435299709150498,0.3717320113726208,0.2913468022809891,0.23410152339875445,0.21641478078744836,0.2317486217742042,0.2567416735538517,0.25835134902730594,0.2848047768980626,0.31598171664038066,0.3395556402430957,0.33938002879679185,0.3143870993364466,0.2987932615407036,0.2850034622287305,0.28246627572617733,0.28691130220335825,0.24118915698692955,0.21519931222373945,0.1825091297698327,0.15728027774569409,0.2057544686589825,0.24605059381400363,0.2850014809040884,0.2976255225161122,0.26958136536556765,0.26544445545494444,0.304418620193327,0.39119339589248625,0.5115846454283588,0.6487187189185324,0.681464913651685,0.5863467833771727,0.6459758454794624,0.784993294741783,0.9043193432047207,0.9632494564967544,0.8753238782230026,0.7310616844317988,0.5823715416097768,0.44489865954464136,0.3986807633162428,0.4031604915468865,0.43433594717029766,0.411885608758201,0.3728289067893398,0.3484061182662552,0.3175990227255019,0.31579473476655817,0.34256681503609787,0.39220613822933004,0.39796449069922435,0.40902208964128484,0.435309687144974,0.42085243847836473,0.44583357626613296,0.4740306736519928,0.4549081559580257,0.4503348646391965,0.4183305004596418,0.36545309921104696,0.35663654833258374,0.35661270516586896,0.35674772816987943,0.3766307407979612,0.45917082113187746,0.5290924241497148,0.5817293562305386,0.5580940603855638,0.491682497715777,0.42054661746213107,0.3450229577277435,0.28537275761311953,0.22235278894496613,0.1923152540873252,0.19454243944484517,0.2275325300490305,0.2746481327421231,0.36988844356458994,0.4361165620496186,0.49388169313706154,0.6213225371963915,0.7610003899075588,0.8867703410238086,1.0,0.9503324348246229,0.8032441161748993,0.6468350120850364,0.49373485301182907,0.3480940357286304,0.2774344732720566,0.2582490350821791,0.26138434981613035,0.2735907096254877,0.2537060986361981,0.21396130948630976,0.16657594020015587,0.1526777703489186,0.1856234130331469,0.22818728616683703,0.2687306289906104,0.24888265565595624,0.2532427390008394,0.279024644004763,0.3067326811387474,0.30855481289680053,0.31477382348644145,0.2914396107888173,0.27413625554735255,0.2648397634602926,0.19070487014032889,0.15135192624212923,0.15266328048726852,0.18046007665565078,0.14889238708946628,0.17117105469925864,0.2225116364518538,0.3211869205699376,0.3754304372487436,0.38370110394839596,0.3293921671278701,0.2793927697387284,0.23040662611519913,0.19321511983568307,0.1580960183759217,0.1819354324169442,0.19920318701537987,0.25912147184480183,0.3580053240305068,0.4763068845902172,0.5925102345616864,0.6907886258670057,0.7793559898052012,0.8385105459671882,0.8349514565938181,0.7310577881927873,0.5935197631927265,0.46562109464860235,0.3773408909534899,0.3569622176347593,0.37371584125746615,0.4208139197419065,0.43477281561262604,0.39331705401497885,0.3229095423726678,0.3035074453586404,0.3476098323826715,0.38736227232705467,0.426367362288965,0.4548145229391576,0.4624264057859513,0.4800686750579848,0.48057038725982615,0.4805704215092321,0.4805582945889446,0.47592528910959686,0.46293272061419977,0.43614263561561906,0.4026328614586596,0.3976110166417053,0.3773891195357484,0.3568800676524546,PM
