0,1,2,3,4,5,6,7,8,9,10,11,12,13,14,15,16,17,18,19,20,21,22,23,24,25,26,27,28,29,30,31,32,33,34,35,36,37,38,39,40,41,42,43,44,45,46,47,48,49,50,51,52,53,54,55,56,57,58,59,60,61,62,63,64,65,66,67,68,69,70,71,72,73,74,75,76,77,78,79,80,81,82,83,84,85,86,87,88,89,90,91,92,93,94,95,96,97,98,99,100,101,102,103,104,105,106,107,108,109,110,111,112,113,114,115,116,117,118,119,120,121,122,123,124,125,126,127,128,129,130,131,132,133,134,135,136,137,138,139,140,141,142,143,144,145,146,147,148,149,150,151,152,153,154,155,156,157,158,159,160,161,162,163,164,165,166,167,168,169,170,171,172,173,174,175,176,177,178,179,180,181,182,183,184,185,186,187,188,189,190,191,192,193,194,195,196,197,198,199,200,201,202,203,204,205,206,207,208,209,210,211,212,213,214,215,216,217,218,219,220,221,222,223,224,225,226,227,228,229,230,231,232,233,234,235,236,237,238,239,240,241,242,243,244,245,246,247,248,249,250,251,252,253,254,Target
0.6203451775177018,0.6010002728318167,0.5760830811471473,0.5837248240611133,0.594954025394199,0.5985212446623029,0.6195931610859,0.6544829743199618,0.688479688785844,0.6711950887986395,0.6188902546449975,0.5695281121048676,0.5297747421494234,0.5001816532165126,0.4901354836755958,0.5063509372303376,0.5112590441090259,0.5299182914884886,0.555181908839889,0.56499469868623,0.5689688863309965,0.5753181978349748,0.5738959440041196,0.5815034754469144,0.5968206407721033,0.6070738136077165,0.6077569309452544,0.6101898872606546,0.6208047347482382,0.633903887412584,0.6493042860371676,0.642350316695502,0.5938004504163428,0.5345181381459474,0.46945567207163763,0.39978542058551225,0.32276671445020244,0.25286948871425063,0.19757706176005807,0.21652481091057463,0.28810905707772316,0.3570465037791428,0.4332360621671336,0.5110565737647315,0.5888052238328285,0.6616313790682962,0.7329037325272574,0.8014133871718321,0.7850472009201983,0.7292814255315929,0.7008472104130559,0.6751076319076446,0.6612213495667487,0.6678075240668528,0.6833160414983412,0.7048944478118764,0.7392622711181791,0.7764846135589631,0.8115414064350275,0.8016795700080475,0.7520772933788193,0.6959638579105447,0.6406099928430744,0.58153007253453,0.5274942611708853,0.4863083565272621,0.45845570770828536,0.4539079746924266,0.4424572636815687,0.41801805240540313,0.37830160494314735,0.3289233270247294,0.28744921438993254,0.246316468931852,0.21820866890290014,0.19286189146572008,0.19697474292757877,0.21376460318324697,0.24205930603485792,0.26793322988060164,0.29316112302513453,0.3231077984679962,0.3597814270785398,0.39228917896708704,0.42071817234026443,0.4497748604404499,0.47934850006867324,0.4828281526735192,0.43332619106032966,0.36834526748313823,0.2940676111829572,0.2163321958672879,0.1431872942113106,0.07262927773230876,0.007836618523825889,0.0,0.061094571500573513,0.1382976811249732,0.2098830374726952,0.2818280309476726,0.3457900304699846,0.4145048018923456,0.4921847389644507,0.56798284993908,0.6365582016915536,0.6797335042517303,0.6373905257024197,0.6123711016306737,0.5799282534229921,0.5613986476342867,0.5619155909029852,0.5754330522257449,0.595170213674167,0.6227746365247211,0.6604282514271804,0.6924715398885937,0.6742096093635421,0.6554503841139963,0.6382002475405686,0.6388154062377531,0.6433839648888562,0.6508250648919058,0.6608224945688534,0.6664560857765891,0.6667846201499583,0.6756366885868084,0.6823914624238001,0.6869558014721062,0.6788147890790586,0.672002001423742,0.6803711925409832,0.7133687376277233,0.7172384439990824,0.7184260496524502,0.7279489183055019,0.7236454346682311,0.7168543959006399,0.7109556217969928,0.7084244821887435,0.6928774535172773,0.6838750610796533,0.6815454572898036,0.6794987572746227,0.6948760971175378,0.717630418152019,0.7374706704379674,0.7181801623515969,0.6798904767651788,0.6458018035376709,0.6211950542664852,0.6048220617397002,0.5996888035140446,0.6100227244506864,0.6450764307435293,0.6712258307986296,0.7229602328433851,0.7909967153856843,0.8445381203016158,0.827667965948863,0.7608126486905937,0.6854461299435735,0.6162905737821138,0.5393554457112533,0.46153259029986526,0.3843234097212058,0.3384890645836005,0.387151281747115,0.45238872445279465,0.5155713921364127,0.5342048869513454,0.5140531649674294,0.4827221552986798,0.45454786511705936,0.4253689109626324,0.39701466376964567,0.36008238405322546,0.32847284736684657,0.3017128191296692,0.275858002410855,0.2499311885789548,0.232712250663895,0.24402931894535596,0.27331309257379965,0.31199695805834415,0.35403721922833875,0.39813528846648283,0.4434117930877579,0.4733872983917238,0.4876239201815862,0.4920162332053899,0.49411774517996543,0.5277346515650896,0.5721962840830155,0.6260193556620535,0.6850449846856876,0.7464353825945271,0.7987511423492819,0.8475501153818681,0.8634821840046212,0.8359576536907309,0.8010406348075958,0.7635793451408892,0.7320554364710392,0.7114097909991184,0.7045755833375322,0.7126124352222876,0.7385980874466322,0.7713874273418067,0.8313501072292033,0.9050030794671522,0.9702053689153454,1.0,0.9549855866020764,0.8856509508538681,0.8082273692047495,0.7339007662337691,0.6639106614930395,0.5865238953962295,0.5120722304954992,0.5020745942879503,0.5645036855397945,0.630377048417897,0.6772794424103483,0.6916723386510499,0.6834428013607519,0.6671513536822822,0.6620980110818961,0.6491792522301862,0.6478253017021935,0.6446961577206727,0.6277777521566854,0.6152161386227111,0.6124729659489794,0.6113379741695666,0.6055677686340735,0.6011727158966613,0.5774708026739994,0.5578870729339169,0.5492915298871281,0.539209266709973,0.5452496219227758,0.5864832961521338,0.6309274411516508,0.6789129302155863,0.7199608033995983,0.7240738845404602,0.6919036183203877,0.6554537656077843,0.6329215217385191,0.6241681837651163,0.6192495787842964,0.6130465081498733,0.6429037016741046,0.6706408425256285,0.7052439108617548,PM
0.5407605424150101,0.5554790914883452,0.5710283250229782,0.5814876125298152,0.5761157523142766,0.5774646171830204,0.5981819480189514,0.6268542883837116,0.6635403417120747,0.7304119157334308,0.7688169427250882,0.6962575539003477,0.6016266504635979,0.5076080072710576,0.43223619635600063,0.3415548335334051,0.24673782937465982,0.15504237888413175,0.10124181307061364,0.16178846698373062,0.25890052085098136,0.3492597503492736,0.44548058086148035,0.47419470812036457,0.4529582646526047,0.4451117902228561,0.42348479389385285,0.41262370155553163,0.410560345764875,0.45005745281813936,0.5087801310538531,0.5817328247789171,0.6535955980610011,0.7082421427679739,0.690201894487853,0.6293127290724112,0.5865812719386383,0.5539406874472881,0.5156323081759571,0.4833262928713935,0.4713238853784312,0.4712886657931603,0.47911214951441417,0.4984995617014307,0.5382228200450865,0.5750552250573058,0.5419921435845503,0.5295891933076453,0.5870967662100435,0.6676645570857016,0.6710083001313178,0.5805461232014661,0.4830744993989746,0.39204034054888415,0.2917678598989253,0.19591808799854538,0.11343918021841759,0.11820333577703335,0.20714053760799866,0.28789547851858077,0.289321084468406,0.26728497505674187,0.24295097141885225,0.22209251892562265,0.23233522307159205,0.2630825456554471,0.3176668172997126,0.38404579693455454,0.45298224691010414,0.5316633764638967,0.6149253006607858,0.6692496316246708,0.636682430006897,0.5713286392332992,0.5228735448852742,0.5006766566947387,0.4846596238528249,0.46288295436498417,0.4610222474547674,0.46430109891908145,0.4733898599619797,0.4820129990641393,0.47568418948951297,0.4951206313099281,0.5158940329062969,0.5281860923276056,0.537451812725861,0.5499296850308439,0.5640620762247048,0.5648796724840712,0.5412296476928133,0.5445281619686837,0.5679806935105531,0.5994477272456671,0.6295259626700018,0.6813182014157821,0.649607566913186,0.5581349495653003,0.4582501791021032,0.36758656429504755,0.2694738712024256,0.16889141624994708,0.07737921745622267,0.0,0.022643409751506027,0.11685875994408756,0.21092172532317455,0.28994445335603625,0.26685976603793304,0.21997399160654463,0.23358262829636378,0.26475463530062293,0.2861372185195419,0.30796337992095313,0.3496909062821858,0.4094270019834412,0.47535554966592986,0.5393774620621203,0.6050331310851871,0.6442637416587862,0.6100443973027543,0.5651606445266204,0.5399748758045735,0.5280244645107193,0.5170259922326539,0.5185553720015104,0.5407826366920878,0.5810264745796647,0.5964889839744976,0.6239533262109755,0.6440486038520314,0.6162140244529779,0.5743876798826244,0.5635315639647003,0.5656102811280068,0.5786503803403875,0.6012192281044644,0.649095680352705,0.6940381313057704,0.6895434599152102,0.6383841508081829,0.5743180217781656,0.5081253963066337,0.43683072678314283,0.3808938628694871,0.34528594345170416,0.32702430955485684,0.29813462777951405,0.27267664174030526,0.30748293217577793,0.3878865419280151,0.4798647818641746,0.5031429093483377,0.47819842135159063,0.5579879763408331,0.6564834238222941,0.7468837283700249,0.8428340218846662,0.9299674183381417,0.964933719283869,0.8962125114438002,0.8071976348796179,0.7201893544698994,0.6590886747429698,0.6275367856930842,0.60317861012752,0.5907783779600628,0.6020560071680292,0.610514468325001,0.6046366555082383,0.5897303291206015,0.5861287516161304,0.5831591959020253,0.5643115765717674,0.5443286226294279,0.526231471573867,0.53147976631775,0.522439050695289,0.5154429843541937,0.5110232526124159,0.5119916637556072,0.5261185899966707,0.5416724146368923,0.5727178186257562,0.6283397098766927,0.6951481662891739,0.7277268661690484,0.6940267303025995,0.6219403587575776,0.5457634601536256,0.46902759493400015,0.4006127395848955,0.3354650055049413,0.2840129714172337,0.27342568871260187,0.289171791732574,0.30796649795430686,0.352543383726003,0.4345280410123131,0.514768865857252,0.5506420984589824,0.6238762197086392,0.7198152023045565,0.8106110730963161,0.8984334370848315,0.940898682214508,0.8819609300621909,0.7904455527832905,0.7003943406204345,0.6177815394455488,0.6094431429918956,0.6391435088617292,0.6144713133331987,0.5629572128577498,0.5332914018037209,0.5149149083197082,0.5152017999173266,0.515153892548865,0.539547345051431,0.57549050267206,0.6130561228454237,0.647088198257636,0.7037226142505288,0.7583766601295523,0.7644754184113458,0.7139520056303403,0.6420696967671808,0.5739945574314043,0.5091466257734438,0.4601956717818141,0.45498256729993414,0.4796021974531055,0.4914786164067084,0.5142613270127712,0.5827420313831364,0.6357231287347613,0.5929568734222432,0.5804420439650018,0.6728992885070142,0.766717947554542,0.860194982073345,0.9495230613853873,0.9999999999999998,0.9482861657192501,0.8590508915742714,0.7706290992047629,0.6965111394191863,0.6649621209555352,0.6338015951741476,0.6289084283433961,0.6267036809174991,0.6222154896760628,0.6265526968771764,0.6103588910841176,0.5899170074840263,PM
0.4281493616317602,0.4185585310344344,0.4092703109418485,0.4007479182394349,0.40622193535538487,0.418684675173993,0.4225680055222756,0.4224614496960628,0.42917165192558127,0.43514444750943304,0.4413374750603105,0.4390083335732502,0.4314188314500269,0.43038711750788994,0.4170228800239517,0.38322016198591036,0.3630358841041239,0.37480510604456696,0.4081701124561463,0.4295288932596997,0.42876658694560565,0.37862135349627324,0.31798063816839894,0.25267520617025374,0.1898969666322532,0.12231561528059198,0.06073197124316909,0.014032091392677248,0.04455819564661301,0.10558696938422574,0.17477761339972586,0.2447473219539098,0.3113979935577287,0.374418362568125,0.4440659844674617,0.5139723530595677,0.5790061157886985,0.643486046294484,0.7115346490331469,0.7279191230309918,0.6679944793400727,0.6191442593776004,0.5612824869207766,0.5043620151511794,0.4522757719038637,0.41858024766498203,0.4016255711678691,0.3928852954061983,0.3880703894480857,0.3857448287304921,0.39059628570049343,0.3968737649235916,0.39236028246644183,0.38914875167674556,0.39272931349317997,0.4045230050147792,0.39828077481733337,0.3849576549666147,0.37314451612879185,0.377686870774812,0.3892175269876412,0.3989640175147213,0.4046994723365849,0.39837034285051476,0.3923235688244333,0.3932839896987137,0.3950827902209295,0.3935872684223416,0.3872010825641752,0.3555693739817749,0.32826197247207767,0.3362492244009063,0.371556703577659,0.3958946211030021,0.3987992695898799,0.35364931605221583,0.2887857144655477,0.2268849617751254,0.15846070023700354,0.09562319055884005,0.032090656593614764,0.0,0.037315036932917156,0.10447862735207303,0.16723645021552058,0.23421508004060687,0.3041935643346554,0.374192761080794,0.44419195782693244,0.5141910872335134,0.5837358645315147,0.6396054351977583,0.6770387970000502,0.6457162162956775,0.5811642685897311,0.5221422600217296,0.47019879685132393,0.43348315983240826,0.4157440337499958,0.40955828808736805,0.40990235690280885,0.4179594110629339,0.4323888162470333,0.4443307703560959,0.42585724293563754,0.420176174420678,0.4201310461679424,0.41984646290642424,0.4131537649191792,0.40945996636182413,0.4097048966143888,0.4164008935977028,0.4200977039309388,0.41940754516321066,0.41159477801908073,0.40943326295584037,0.41013370786510506,0.4178479135616546,0.41066205362848085,0.37561292377817024,0.3535329436606578,0.3681011920586523,0.4013852844833852,0.42250966865353523,0.41680785924727615,0.367116734810492,0.3030664916579291,0.2401983589136678,0.1892309259314655,0.22055665390796664,0.2892414758406845,0.352143044817838,0.41589021207737575,0.45913666718678314,0.46492950275361467,0.4474972919062974,0.420879209083479,0.3996978258404591,0.4272891568613557,0.4452003050835631,0.44457701368732194,0.4364854032605068,0.43615265196514885,0.44425700960156256,0.45031618488689573,0.45446998814143624,0.44670844340896454,0.4457915910259789,0.4422863123736882,0.443995697412519,0.4518194315724857,0.45319895219513273,0.4560667213229239,0.45263161601832924,0.4686689388037102,0.4760235729033748,0.45953847375228807,0.4467810772751608,0.444800546401678,0.4400265898806277,0.4530263914379056,0.4868711263041299,0.5401226476289682,0.6002594727111674,0.665588014666028,0.7275450280900599,0.7948013685819812,0.8566451552455356,0.9180435184629789,0.936677693274991,0.8818356310464506,0.8189198741250407,0.7523579101335687,0.6867951793567781,0.6228497835149502,0.5536144634827604,0.4912076973096309,0.423730354611763,0.35374741137982757,0.2878031722014902,0.28775468089240364,0.34672739070698144,0.4037467265633963,0.44015457134020086,0.4366311956304687,0.4188677499887836,0.389663853604016,0.36811703601932844,0.3939932194681006,0.4192782911851114,0.42435462076067276,0.4244141403899613,0.4244163791030777,0.4257606136531895,0.4338518781243965,0.4333619135750093,0.4245013543109739,0.41769754430649986,0.40594525573234996,0.41374697416821915,0.4279094820574092,0.43494605511494755,0.4335881379938189,0.42552992679299617,0.42441581930696337,0.424410049107931,0.4227968534913553,0.41897202543779777,0.4256539804064512,0.43853593155107196,0.45811265502516085,0.49950292504155636,0.5587684652394518,0.6267601073442968,0.6886956950326704,0.7570759722770977,0.821657002416367,0.8865340518932825,0.9521030049347774,0.9999999999999998,0.9858265097325647,0.9285123417931065,0.860995009244321,0.7966398617518207,0.7315005679562232,0.6618231042886982,0.5982576727752131,0.5322445016544408,0.4622901304709557,0.39229102592126,0.3235193767044504,0.3013937770130617,0.35893228915940045,0.41723273438516784,0.4597414652177567,0.46589235075109237,0.45371981097260616,0.4241512152904543,0.39904383309199876,0.42426104708275325,0.4529028900722252,0.45653802852623593,0.4591943792383484,0.4667020292463364,0.4672448382689378,0.46704742431874413,0.46093219134048025,0.45659571100663965,0.455875821211728,0.4471307051152129,0.43685243735034995,0.43760552984745527,0.4472196650676943,0.45917935591521264,0.4636342084230669,PM
0.20239964847750191,0.18943025231199484,0.17862052800823203,0.15783892852495307,0.1275813381330353,0.10826515095831812,0.09299345252529112,0.04845989564683961,0.014781909456485609,0.0,0.06478840812670339,0.12207927827695575,0.17688740443028617,0.21559114754037978,0.24723457146593275,0.25631406790119815,0.24780305567918037,0.2382330014085765,0.2362334633012515,0.2401626786832194,0.23382594111834898,0.20797842219843554,0.1885604609388265,0.20630178349992367,0.2411900930591102,0.2617220606987416,0.23506984538607334,0.1711395743222499,0.1372310438530273,0.18327293223781682,0.2619987669020589,0.34374452135946965,0.41855720263961493,0.48193919068142854,0.5458939767158051,0.6158510208903567,0.659752977132853,0.605855142296067,0.5324617936794014,0.4676367331596558,0.40335548714691516,0.3350953700907755,0.272656055832591,0.23014175896520617,0.21311084716882056,0.1951914193717228,0.17951474164869907,0.17049241274134275,0.19306279172375485,0.22487556642840367,0.2465715195075302,0.25063593741188206,0.23980745387830815,0.23344527004171645,0.2332506512509851,0.23157855137493266,0.23585101257158647,0.21390550602825198,0.18396792483921032,0.1683503851223831,0.19287154886896785,0.21827888534968642,0.22345448515844035,0.18360642531369442,0.1205911789849885,0.0981936793307423,0.154389187700253,0.23543208525469095,0.31541132594692556,0.3890481993974704,0.46113100448226607,0.5285704921281775,0.599097720804576,0.6059191751621289,0.5346087665963122,0.4686386654421897,0.4028737200952739,0.332226401813859,0.26699748765106324,0.2108473036759524,0.17929801948148483,0.15909156535185875,0.1413716132231222,0.12495512817579857,0.1286191155392622,0.15968793075310472,0.19802950034191347,0.223616110159091,0.2273796333577358,0.22571766876850297,0.2114955026278631,0.21714564996372898,0.2327468161540731,0.24970172233873744,0.24093709871205182,0.21455656833664571,0.2109823342179682,0.23947941633402126,0.26077843940848267,0.28828857793269247,0.25218642397964675,0.18572259734153285,0.16614735983029227,0.2248572805699287,0.29873834906086105,0.37662033587761723,0.45423334854989994,0.527914148216051,0.5946771387012184,0.6658617893249241,0.7435539375965483,0.7869285159693433,0.7249690270134503,0.6488640914348087,0.5722280188322002,0.4986867256205585,0.4267792409290254,0.3613701812157786,0.30538492696484276,0.2817219228386887,0.2755597863691299,0.25911648214704086,0.24069285679128827,0.2505927014705427,0.28651298953306314,0.318163707642815,0.3405233948021982,0.3363679758760101,0.32934441688488336,0.3523046864520376,0.37555821271731893,0.38602365124036786,0.3754205008729494,0.3538635389468696,0.31923050661033137,0.2912555979852445,0.2870199501644153,0.3078271168401685,0.3271395287146599,0.35348796712915953,0.3951977326278242,0.4573953583450552,0.5306007668229507,0.6045136187964548,0.6855619793265735,0.7675897057924947,0.8463000077306657,0.9209916141808474,0.9900294133005239,1.0,0.9367460545197992,0.8617846225999357,0.7836637904219064,0.7032003291670184,0.6306319881218818,0.5638438637115208,0.48751763271082327,0.4055719421565387,0.32916500128024584,0.30805627607846864,0.34190761222220467,0.33343494151715114,0.30272167350399615,0.2696989622083594,0.2623937652637258,0.28652466185493775,0.2918084022403151,0.2803188900997069,0.2671584394450006,0.25410281242884514,0.26524473837081164,0.2689850733312693,0.26209399109184606,0.2446042678157283,0.20888132124609515,0.16884820926992528,0.16600481900394626,0.18345268401879156,0.193538371290219,0.21326516967088915,0.2405750734380503,0.2909562137734756,0.35749452939982596,0.4374245022050349,0.5117675613987915,0.5736334298895422,0.6452019993834948,0.7214287586057164,0.7939886296502672,0.8373266929000978,0.7977954077503941,0.7220582375816091,0.6479810470199747,0.5705715771799609,0.4974834098557446,0.424112414832563,0.3494233296555993,0.2730151735118205,0.24079559573246767,0.2663629113897794,0.2661912307957093,0.24050028379537514,0.21776877908582049,0.22692404726422577,0.25633695037077087,0.27128993500657206,0.26926529934515453,0.2683699816552332,0.2724083014916179,0.27808647527546504,0.2826568874603561,0.2723302089968016,0.24493300340558655,0.21454630616514958,0.21818167874131178,0.23355862035721398,0.250730777151853,0.2734407448951326,0.32472265426596025,0.3941275299268905,0.47189118401544783,0.5469540930603922,0.6236850533250613,0.6999674665815774,0.7754232881966869,0.8498527451314546,0.8905373449283815,0.8496035350136215,0.7778625319532315,0.6983414888768507,0.6238651145230065,0.5463906620539642,0.47392222556775954,0.40058776940280394,0.321634791393657,0.25462844371817916,0.260189668240312,0.2973854607702302,0.29321398522831954,0.268900643299117,0.2425046170956433,0.239037234960086,0.26314357177694103,0.2709622898138244,0.2634972998030374,0.26846469677273044,0.2751114132003454,0.28264539963947066,0.2805641030191022,0.2598456174912189,0.226332615307544,0.20459080713749755,0.20981826808315618,0.22270517804449996,0.23949722560261044,PM
0.47064653698977,0.4658307721680829,0.44190529139353474,0.3999948288238345,0.3707133277454354,0.3494842335246321,0.31392901486337743,0.3015926164190442,0.3560878040213914,0.40545863726759734,0.43712121347080124,0.4588418109529352,0.4622407885409422,0.45589077129187616,0.4476117602478201,0.46795447827036296,0.47532200602792984,0.42828276200052506,0.35455974559330883,0.28060422892328085,0.20529989418488792,0.1307839806821509,0.060717252815658096,0.052540099936041584,0.12146776868221565,0.1950691143768889,0.27212141008625823,0.35083898160919513,0.42900395327054686,0.5026150076518051,0.5797544371062916,0.6583404823810267,0.7195965753896038,0.6862891531471541,0.6130990338998804,0.545451861654988,0.49039021183918596,0.4597086837859802,0.4482496161306587,0.44585908735791013,0.445971634066208,0.44050890860153735,0.4618893327090553,0.4647321539274464,0.4584544316865299,0.4514293987826118,0.4542832971069345,0.47438393781356425,0.4656572125065296,0.40363577744775314,0.33095261685660937,0.2551566997624011,0.18368565787538693,0.12469441905677559,0.06710248883870862,0.0035777201103589507,0.007718322250330756,0.0790484473288271,0.15293485946113627,0.23128208611577505,0.30891689746113593,0.37666490244429884,0.44602482284977285,0.524340304471025,0.6026670710939069,0.6561329437195264,0.6160946564448521,0.5501077837543847,0.4943646696822003,0.4716909569173734,0.46340842764462165,0.45704257378046964,0.4370698903922231,0.4466398606256917,0.46107561812534825,0.4647248444662636,0.45733419648562423,0.45615735599127494,0.46858282802957063,0.46389472795835796,0.40883042499869304,0.33546124001381894,0.2621560799423134,0.1846241556873699,0.10590522916082612,0.02985415687793669,0.0,0.05410568199939281,0.1305454562688273,0.2053000385142293,0.28092336419662567,0.3595877663384951,0.43804766066692047,0.5122458744014552,0.5861627103942734,0.6520859564693354,0.6717386374663333,0.608810961827622,0.5369470017795807,0.48121926659444136,0.45049928955295193,0.441637670587924,0.439758990247508,0.4281465730763546,0.4331623008178257,0.450886220560636,0.4557219798039297,0.45348031354967266,0.4471573865077333,0.4673144149587244,0.47676486185205047,0.432228654242767,0.35990818922226653,0.2862399960594538,0.20795690801131872,0.12933449403834207,0.05736780432053146,0.04033635468796737,0.10198234796633388,0.17837873329556275,0.252142252372924,0.3304232501685659,0.40795460094983393,0.4814151287054732,0.5593340631796931,0.6379825098551314,0.7026672193196736,0.6766733381356113,0.6047692760408213,0.5330423011916688,0.48177373154052205,0.4680569354394991,0.5005340544758877,0.5536261061979902,0.6219817455420044,0.6961112746911043,0.7698017238499423,0.8465736007071117,0.925043530420722,0.9921478665590963,0.9889527164761897,0.9180551365208974,0.8430274544985904,0.7677306232195259,0.6890925454178399,0.6104038256531946,0.5343473637009294,0.45996246187482515,0.38183466871606797,0.3315863072120745,0.37777339986271385,0.45033791415999336,0.4979253120609074,0.49956813990066784,0.4799840635440694,0.47474535321520406,0.4809713410964064,0.47874475340822864,0.46911248258889315,0.45377179303896964,0.45940735030202384,0.4650792424688347,0.4700083782765353,0.4998601065583176,0.5570513463403733,0.6259089798421819,0.6985444925427503,0.7692703093832699,0.8385012475216204,0.9158527281227641,0.9823900304174417,0.9826805123099066,0.914721946753546,0.8404760262715943,0.7619917422212698,0.6834643409708209,0.6089893906195202,0.5330395117498142,0.4543569496452412,0.3756737219346019,0.3082041900365583,0.3279829095324579,0.3995023821903959,0.46763321934115976,0.4970100775779661,0.4912777713698516,0.47824053550460344,0.4870615938240873,0.4871246685318179,0.48313572435002927,0.4694181817983044,0.4693571866818954,0.48246683409041513,0.48992785201836686,0.5027929433993049,0.5430280874397887,0.5974396339011331,0.6716229542363624,0.7485406766881343,0.8221199369841398,0.8928835798514544,0.956808864289829,0.9972985653042751,0.9491048039438209,0.871387512055262,0.7954373190990339,0.720962326918695,0.6424369660108443,0.5637058296635323,0.4850580833874102,0.4111304279945497,0.3871708857190467,0.4498880102582722,0.5001661434880545,0.5028202894828439,0.48448876953137143,0.476154566171494,0.4838445670686006,0.4880900517259482,0.49316232322566134,0.48211374540848306,0.4668572561250738,0.4709195067162465,0.4743631595469916,0.48330352460724624,0.51395538166983,0.5744781866391319,0.6462592897033522,0.7205754298447146,0.7939234166473356,0.8687415664818977,0.9420889995727656,1.0,0.974918638330181,0.9004727247038636,0.8231208751297255,0.7496203313065543,0.6715950538978744,0.5928655310017433,0.5141343373885724,0.4354857876345898,0.3713665544548027,0.3983307258798586,0.46724918460496634,0.5038952397822113,0.4967427699773318,0.4772912606878327,0.48174226220263294,0.48391044717143783,0.48295537117255927,0.4719015944958359,0.4577163269448291,0.4771789695609677,0.49121123804097755,0.49168817863542136,PM
0.0,0.035540551424674695,0.07389864968290963,0.11226100862984453,0.15062336757677947,0.18898572652371434,0.22734808547064927,0.2657104306056812,0.3039573855945708,0.33964780698729524,0.3763188576071629,0.41465808474675586,0.45302044369369077,0.4913828026406257,0.5297451615875607,0.5681075205344956,0.6064539232605854,0.6433468173052423,0.6788511299282618,0.7170552050617566,0.7554091504282845,0.7914878383435795,0.7996699096021583,0.785569874252927,0.7801688236699894,0.7833724351859981,0.7923543531970576,0.808196139960244,0.8331472163463335,0.8607417703863733,0.8891190577514586,0.9186519785460645,0.9455507539117624,0.9426376474878708,0.912466939303585,0.8790383512213239,0.8458513850252757,0.8127356670922553,0.7792576274849113,0.7472892741493988,0.7151433812942541,0.6893177732551775,0.672285998902286,0.6634862084913414,0.6678524628338446,0.6755009343349205,0.6832542941151306,0.7011928150940718,0.7280917346774302,0.758121113620141,0.7907875228118221,0.8269669435166338,0.8603856694854579,0.8938451223488167,0.926983384672358,0.9568397683043324,0.9763439383094401,0.9677087431464976,0.9409179168559708,0.9119309495164273,0.8826156145000342,0.8526104697499456,0.8259487002664162,0.8082556176254317,0.7986908756295211,0.7955453261261582,0.8054693081410937,0.8268849246886215,0.8477839511669312,0.8317150976199688,0.7976853982179379,0.7599931354985074,0.722599392058384,0.6874428196580241,0.64940425398841,0.6110422913393485,0.5726799323924137,0.534317573445479,0.4959649115110908,0.4587995838494176,0.423498760498218,0.38536979999587084,0.3470075741693723,0.3086452152224375,0.27028285627550214,0.23192049732856734,0.19355813838163247,0.15519577943469767,0.11683371452719671,0.07938747274673777,0.06921378860578642,0.10281231301753829,0.14115943478710333,0.17897633485617995,0.21401648089573505,0.2517480057733742,0.29010841039303953,0.328351050215296,0.36403293028545586,0.4007179098641509,0.43905605072221077,0.47741840966914556,0.5157807686160809,0.5540741758430247,0.5901093626061858,0.6261769125379011,0.6614053797890718,0.6966711342879252,0.7230530358409378,0.7231305560932652,0.71051108646626,0.7102015696308731,0.7173295716419701,0.7175454703810895,0.7193274466268789,0.7181935160246048,0.7102472434673487,0.6966437662500132,0.6847859686458827,0.6825777024080746,0.6945739205248589,0.7176491604793697,0.7476035614838908,0.7795903183480641,0.8121308937574542,0.8426261949799256,0.8761037394605808,0.9101655653268417,0.94328905275549,0.9756632440721608,1.0,0.9959779130299553,0.9690091920404851,0.9387058130502257,0.909391850737896,0.879523489979545,0.849746007369159,0.8265063303432545,0.8092503210262466,0.8003558221236914,0.7995805723056665,0.8122233030577015,0.8369715797414666,0.8388874885765502,0.8086276478441219,0.7708145663128967,0.733282305815201,0.698190211015616,0.6602260216235715,0.6218642545397493,0.5835018955928144,0.545140117207322,0.507145496347386,0.47203583763478746,0.4345502681713238,0.39619189631670837,0.35782953736977363,0.3194671784228377,0.2811048194759029,0.24274246052896814,0.20438280679985438,0.16816008027243096,0.16568726040083726,0.19986577073620637,0.2378150480641894,0.27026130732262005,0.3010680975826041,0.3316300010060867,0.361457608150105,0.39849385913506535,0.43672379298516406,0.47237685464968315,0.509095192739197,0.5474345696247574,0.585795839707318,0.6236718342664328,0.6586826055037533,0.6941787307111666,0.7210019203330763,0.7220330676182213,0.7076175785805694,0.7032480807249996,0.708095364881776,0.7128023376116932,0.7105802673773333,0.7065046566908961,0.6971697338716528,0.6837451944484714,0.6745198219734562,0.6751152643727716,0.6890888964295655,0.7161488617405981,0.7486954453349742,0.7808317631559965,0.8138164668931109,0.8473679533120996,0.8806769660437409,0.9135902036824826,0.9466587956498463,0.972645840523713,0.9685237500410996,0.9433556938399139,0.9128168206960166,0.8801432975069715,0.8514138403756223,0.8240749586218057,0.7990129960000882,0.7789806429257357,0.7711338170432374,0.7709014155096219,0.7852862393055773,0.8086001857887046,0.8091806763950351,0.7827707770994955,0.7481080139138144,0.7099933451994677,0.671640668737305,0.6344670406472596,0.5991717926552234,0.5610457400334197,0.5226835216525518,0.4843211627056171,0.4459588037586822,0.40759644481174745,0.3692340858648126,0.33087172691787775,0.29250936797094285,0.25414700902400705,0.21581733645254672,0.18442738986580026,0.2000596868254784,0.23570507822253506,0.266667100931423,0.30123230784172095,0.33951853357346373,0.37704029369285963,0.4121367684881996,0.45009343240080657,0.48704413244505884,0.5225037697105023,0.5602260291571936,0.5952777268580423,0.6321882532259706,0.666989117459822,0.6984550677031058,0.7070705366412978,0.6934165098976691,0.6858680410825501,0.6933803384975437,0.6964352784516129,0.6995731500860091,0.7038417804721683,0.6973886467541814,0.6857444619612683,0.6792706142700796,PM
0.6655993886062599,0.6438992559276879,0.6369717707827761,0.6390013297666464,0.606307967199971,0.5638623036449698,0.5040375001377944,0.4381498319048931,0.3721837097825411,0.30621758766018914,0.24033228136831708,0.17712905365068665,0.11397567544087833,0.04893677006474223,0.0,0.005872977386405853,0.05975716313611279,0.11741437316714137,0.17347212224693376,0.22244192644936844,0.26451200774959727,0.30908536745895754,0.3602547454649283,0.40936865162484537,0.4499617634875335,0.4997511458176307,0.5564372246057127,0.6154039038421454,0.6755509519598797,0.7376146570662783,0.7893395237733367,0.7602144514022107,0.6980105655925715,0.6356503027219783,0.5751487006661158,0.5195906749446789,0.4717245048027787,0.454831998151223,0.462211135614094,0.49054074918258883,0.5334851174267826,0.578782565385146,0.5906932791560172,0.572068770998202,0.5743297742666909,0.578448332291983,0.5973767429736229,0.6141133905648789,0.6171319407881403,0.6220053934386701,0.6484413880294271,0.7039157262239053,0.764721805817256,0.8258887094814173,0.8463649072275767,0.7952863870308888,0.7309254561893583,0.6682698632158857,0.6109049440257994,0.5603155928214838,0.5293607581586645,0.5156128695088998,0.5252331805868115,0.5663414378733979,0.6039146349771151,0.5846730370298752,0.5377701481093912,0.5050913350586524,0.4928238241404348,0.45749767032662714,0.426811610693384,0.41655895924242947,0.40707262158724233,0.40897669030727046,0.41765708412315894,0.4480644239540157,0.49978472838145793,0.5580328722000454,0.6146121328389689,0.6145697667758174,0.5573773663932292,0.4939724883895832,0.43093253465169856,0.3766539376907245,0.33291561099236533,0.3284284230026645,0.3813716779056221,0.44628276746720175,0.5080947463801552,0.5733463323878705,0.6383024372024435,0.6919914438196442,0.706330050755984,0.6740965223094326,0.691689539623304,0.7313746661145197,0.7291318958133031,0.6887755462215117,0.6555990100332165,0.6405372808882328,0.6585248049549548,0.6908514742653256,0.6885818322077699,0.6625442378598632,0.6337243085608351,0.6224504568941832,0.6356683339867765,0.6784332954852421,0.7326589480728476,0.7950630837934223,0.8561790315697846,0.8880062180853292,0.8421018666978957,0.781238578073489,0.7197916796125698,0.6629214061433959,0.6142926027641279,0.5883096937764634,0.5737235171729159,0.57598211296722,0.6118716811013878,0.6520354359076652,0.6522525949071487,0.6136126426802987,0.5955865723328347,0.6074039958346523,0.6355800657180634,0.6889123474092007,0.741315940023866,0.7993181146172088,0.8595369461061464,0.9195189770929475,0.9785520844545523,1.0,0.9493998553863328,0.8877294571590861,0.8264188621507667,0.7659553556440695,0.7089169761014986,0.6619016248157503,0.6440853814475824,0.6572232888988245,0.6897192515057264,0.7128836577397673,0.7175613735737518,0.6856404975930601,0.6598462773270655,0.676908053077836,0.7112229526369007,0.7522011206517107,0.7600162102254464,0.7246165660848627,0.7004840601471749,0.7368413589950022,0.779561936814676,0.7588431749333198,0.6988705726272555,0.6359381873594787,0.5701616234246148,0.5069365383391458,0.4438028316228173,0.3792526365379433,0.35170869238219127,0.39192376491321224,0.4478895791087393,0.5090345054197268,0.5686697499331687,0.621345819944509,0.681243558987801,0.7453057895468782,0.7794160272441917,0.7413030039298041,0.6801309700553779,0.6184165255255277,0.556482216005676,0.4984269654452079,0.45031605925709073,0.43645239540020575,0.422090114815577,0.4344264067080439,0.4369529746076286,0.45937042819422735,0.496354303255362,0.5245582761030387,0.5396506454725001,0.5824662689571805,0.6253665318981932,0.6302085975339967,0.5891266679993843,0.5466420941541059,0.537122834015545,0.5543058787442845,0.5987357213671956,0.6532700521168471,0.7042574787195097,0.7554968934763442,0.8162595680956442,0.8772345434539321,0.9381756708859184,0.9894281355735934,0.9691895565382549,0.9086589776949809,0.8468973674474978,0.784817857597452,0.7239533105786897,0.6684139964332922,0.641644331654234,0.6364025765214758,0.6333041238969889,0.612656326840308,0.5983237692636156,0.5915739594382424,0.6071349988273216,0.6158831615661053,0.5807245019790866,0.5326241765341503,0.49502808773138907,0.4826235191952093,0.5032837723898875,0.5542997275657401,0.6139029693657764,0.6751945008386275,0.7364323704614002,0.7969102891259652,0.8573453035172829,0.910127151315383,0.8980439361843604,0.8389829999413072,0.7752627755884425,0.713198061626384,0.6507036178738348,0.5910068969257949,0.5326603993926563,0.4782324606970022,0.43475072794762504,0.39314231252879384,0.3378295288451063,0.29012759860271353,0.25009967839445146,0.20175443789646674,0.14889066336573453,0.11444923515687122,0.1546617491022616,0.21955514350809036,0.28137947760578497,0.34640962145875687,0.41237126199701246,0.47833605110987354,0.5434147772957796,0.5943246735772209,0.6351231374516528,0.6641990499496915,0.6584803939525277,0.6672680631881098,0.6924481393288817,PM
0.49184925724008455,0.4872411203601654,0.45076494019503777,0.41112217839777343,0.3636205485735664,0.3370166915466275,0.3164907961904413,0.2629008133870132,0.21901799796466892,0.21727932029866537,0.3036812956313113,0.37154157410785005,0.4365568254188754,0.47299751312112726,0.5148003190577759,0.507298304404765,0.4200082929896114,0.31700999526640294,0.22127142290973745,0.12532514542517803,0.036384560818301326,0.0,0.028148414804808564,0.11857915337215141,0.221138797788617,0.31546285323889456,0.41594325905198426,0.5193285935519589,0.610280657151054,0.5977511416983625,0.5455681671671293,0.5211186838669883,0.5109090942051604,0.5118661769954111,0.536043822219685,0.5874765645489877,0.6589677694449398,0.7327586701738991,0.8099634954543564,0.8838396464702596,0.8955759187318137,0.815040517015003,0.7277513348994815,0.643239512949882,0.5720361975939978,0.5068405139293057,0.4585080198574354,0.44158575822312374,0.4405512738095214,0.44840137439747707,0.46121285682288526,0.47107293390865523,0.47763073468529793,0.47890054416162897,0.47462068835562876,0.4696957822419119,0.46751082152295975,0.4421440863200905,0.4116695914302102,0.43376868231051713,0.46542385530549124,0.5133001750707575,0.5257043159958239,0.45656917544212927,0.3592311615304411,0.2644001926369539,0.16958658124195902,0.07605951000116318,0.017077915903810803,0.052572485833803695,0.1282423297314892,0.2218698094819047,0.32202169973547745,0.425239038486815,0.5216433292580751,0.5914160920358316,0.5563179729927343,0.5147838622116376,0.5014677609842102,0.5070323134864423,0.5272486222399828,0.5612041150060687,0.6218960323051896,0.6898940939028764,0.7619363997417707,0.8396856555066434,0.917193655146709,0.9120223985509583,0.8345398326308775,0.7494399544485848,0.6629056452199884,0.58077387968997,0.5019415660658679,0.4571052510675937,0.4433964759987723,0.4524532010192539,0.4634532579081334,0.47849178555150873,0.48717263230409413,0.4817396683192414,0.4791468699896466,0.4742931714216976,0.47643607057656556,0.4776830382325601,0.4503826240108313,0.41138359168970307,0.4304195172147933,0.45131264774778357,0.4967039866838734,0.5355088321606631,0.49933099064531694,0.4009063520996814,0.3006310637337044,0.20698779739485218,0.11453609555054278,0.04649852236011953,0.07082622143269623,0.13479564964590418,0.21433194680076828,0.3066920211530737,0.4091462698686994,0.512217041648928,0.5972512965271233,0.5884406464294241,0.5392728868262582,0.5096615965797295,0.5050259872934877,0.5168006324597134,0.5517867600588575,0.6029449461206253,0.6758403998775577,0.7186735000480948,0.6644115696640216,0.6033280065059659,0.5652539202702815,0.5493229531672186,0.5552516032615693,0.5927382215282209,0.6603363664809763,0.7364108773797753,0.7605670314020365,0.6797986982554707,0.5860483165027679,0.48474750706154657,0.3826067098767094,0.2888083761104816,0.2034573072180732,0.22523258400509105,0.3186719560633007,0.3952749794024131,0.4899024086970436,0.5722206868472797,0.5820609275191169,0.560093579840168,0.5150579395633312,0.48247417223214484,0.46282446283067324,0.5037920270797991,0.5219090968061515,0.5228343398153008,0.5228351543979217,0.5228351543979217,0.522832000388556,0.5213422551715206,0.5094290156730632,0.49724624083085844,0.48709582217328684,0.4962207448548721,0.5484814592931748,0.6273420853397162,0.716143386534883,0.8074315458175012,0.8899254804878169,0.9687730276065394,1.0,0.9484019809421458,0.8722569372837836,0.7986704716400705,0.7370883035599021,0.6678481178624587,0.6036377879269752,0.5652982081161988,0.5497307768373845,0.5531456917683024,0.5884532462631098,0.6647899122070902,0.7417267382251254,0.7433206416547655,0.6579347445237005,0.5642251454093978,0.46233010422192233,0.3589778612169965,0.2609664011575674,0.18913200951141063,0.23295679641924005,0.3262998443175691,0.42406132223462567,0.5173545659136458,0.5764117138751628,0.5666794146618943,0.5336291518165237,0.48980105321049416,0.46625219080746305,0.48381485575446703,0.5081660565458619,0.5149863963688244,0.5170403001455237,0.5205728591434804,0.5180148702758087,0.5192570634837987,0.5088535792539126,0.4933951440091495,0.4802389747574525,0.4768932318665393,0.48995516033719744,0.5395665882874892,0.6182281435015766,0.7005393705650724,0.787490522761062,0.8711757847879111,0.9492392196069206,0.9747745006089295,0.9203265406324501,0.8446245096013651,0.7624678052585514,0.6835607213154757,0.6169058498045614,0.5669510032572953,0.5505648392791906,0.5566876067180546,0.5678086156403115,0.6150766681552269,0.6913619437836043,0.761913617924062,0.7365947830988255,0.6461745008769175,0.5433848100096976,0.44351446164080777,0.3487745951205006,0.24594186448634647,0.14750660123456139,0.13070149864152603,0.21408928143607708,0.3079574570597641,0.40623901401784557,0.49968874792873974,0.5832806226293559,0.5856594977499814,0.5666337993983834,0.5295717420638084,0.49397891954683315,0.47387660874835635,0.5064837823720367,0.5334115149818737,0.535734360679843,PM
0.05012106164495722,0.11475599740224318,0.17652763341651267,0.1279407410662421,0.04905137933031556,0.060048319971204966,0.14088788722001433,0.17279295206653855,0.12663863221251814,0.08023930135854318,0.07522117308268306,0.1605085800000121,0.22530338112421222,0.21899486759064613,0.21117604819147573,0.28758076969128044,0.3934509387024354,0.5015747368594032,0.6022712004114406,0.7061982427032236,0.7483565299763366,0.6678559738532914,0.5715298711354706,0.4777576605483238,0.39486378812856593,0.34484724433524616,0.31775882344830886,0.2947030431748756,0.285083911826324,0.30772561291423006,0.3535954508547303,0.3590447885461687,0.3524420319220509,0.3429602468701589,0.32997304078660994,0.3209803293018765,0.29143892975704766,0.2523315331773559,0.2496682152145293,0.2790679818651476,0.29041423825639345,0.24100489474430398,0.15097558399844502,0.05850157276814194,0.052723901412723206,0.1338396936367081,0.2328900064543551,0.3331990181463722,0.4409888210061823,0.5435165169893283,0.6469794852328763,0.7421605655043984,0.7159943108838205,0.6209477268505428,0.5242159092812415,0.42586772339123136,0.3420223074975468,0.2939809033575891,0.2792750664985133,0.2741666883034546,0.2757310553493406,0.29037920696387776,0.32991013155915394,0.343626035084204,0.35041678110832564,0.3527958685588557,0.3441084779035988,0.3344913265535281,0.331915618649991,0.3201151564686533,0.29455736625996454,0.2947480075144433,0.325844452629372,0.3387814446794781,0.2939223571739584,0.19803861345693474,0.09595799402081995,0.04481129774261272,0.09946409479968898,0.19909009398532218,0.2995854947327412,0.40697731278610716,0.5076441003821064,0.6101363138457316,0.6333654931420487,0.5450573211393384,0.4536069980241122,0.377874647757537,0.33400949561541715,0.31406036441359597,0.29556920721814794,0.28678238089633745,0.31005947245541443,0.35073856932166225,0.35487050096532813,0.354429492261358,0.3531932495397849,0.3443926872423022,0.3417490749304757,0.31793576078593855,0.285401893920306,0.2992478504916338,0.3372526297451022,0.33042445830311706,0.24901239470145264,0.16454376749673583,0.07046853979764434,0.0,0.03240474985657693,0.12806323896662608,0.23594704493061203,0.3447437834155256,0.45354173159533206,0.5623260386008873,0.6677814191642486,0.7160955739307242,0.6419387567907806,0.545834026461095,0.45250300216840045,0.37679572292396646,0.33178460706990576,0.3128201341694241,0.29832602806923947,0.2880700847582107,0.3182986837115438,0.3573639616546995,0.3523921350225543,0.345266246640088,0.37408030215509713,0.38950431650115336,0.40575258896844146,0.3728914137352428,0.3339143616917155,0.3347767464212208,0.3540671329375147,0.3761284375371574,0.4372072836498584,0.5285616612302253,0.6240661938130845,0.7207294228090808,0.8178490191392791,0.9157625286991606,0.9745557900810524,0.9132513844586747,0.8103662005385,0.7089480472542713,0.6005478717737585,0.49254001378661205,0.3920598845248533,0.28601961874428117,0.18127618359234732,0.16022170117459456,0.2527914808282674,0.3513972326222299,0.4182112907207911,0.3930366100432596,0.3678512943790828,0.33302361357046006,0.34235555051902145,0.3732992878225969,0.3804398063205958,0.3853586926313486,0.3956984437470934,0.39752439355743885,0.4047109714632997,0.38089610068200797,0.3367412188913006,0.3350709624069219,0.34512936143258166,0.3623780859655572,0.41211147066331444,0.4913357715194373,0.5842641699932047,0.680766308812504,0.7768048020525076,0.8576810779424664,0.8508087999030753,0.7666960812247667,0.6597872966757994,0.555559400607516,0.4537036034805164,0.34579834511538343,0.25192299501011384,0.2529543792856366,0.3468352112954314,0.423192849563941,0.40658306699786295,0.3713415082782179,0.3385603661142167,0.3527040099235177,0.3745964075424575,0.3790620609782964,0.39556188668484404,0.3936696468149108,0.3943968726997653,0.3880932609487824,0.3458417634176907,0.3232972368448399,0.31983893212575887,0.3244627393750752,0.3503866410279801,0.4090380090804904,0.5009149096463961,0.5962038659646669,0.696698419981886,0.8018311468671595,0.9003263266021071,0.965924336695198,0.9151679076509731,0.8154276008344044,0.7081840400169497,0.6080490587794831,0.5012961305211949,0.393945778892445,0.29403871264164194,0.21308589365662556,0.2670847187357961,0.3551322512433863,0.3635144248203812,0.32733668118163384,0.2968392837046645,0.3093815129549573,0.34327142216104267,0.36038037443881366,0.369516337789501,0.38284224622583785,0.38845863865064945,0.3989424105233452,0.40629024503062006,0.3696202975607148,0.3285312345601781,0.33910241716731515,0.3594802607627021,0.3889481607477314,0.45226138049332865,0.5481717654308749,0.6434931745359498,0.7297908226974388,0.8195395754076047,0.9166815764036207,1.0000000000000002,0.9882436821450644,0.8959026788812501,0.7880882262955968,0.6792916497671426,0.5704937015873319,0.4617009432420669,0.3545346196388319,0.25458162468361434,0.16776905603869396,0.20883676642333238,0.30820369651212687,0.40358825848040913,0.44087519093778105,0.3974451968399575,PM
0.1189218808642325,0.171773444582749,0.15452910282183474,0.0967117655247669,0.04277234429915411,0.0,0.025937746441853093,0.06622136860459493,0.05708444810859792,0.034412523218375846,0.06003514797511733,0.08718590860451592,0.10959901576478992,0.16869191972987396,0.24879690485480332,0.3379374998031537,0.42792860689817047,0.522096819324968,0.613553913574737,0.6726303724652545,0.630897078183259,0.5432511950309487,0.4534533116762116,0.36570245695945913,0.2801265762214378,0.19982060058906215,0.13099204902973782,0.09476407045064361,0.09079816616537295,0.11815723652139032,0.17442481356722173,0.24288751866681668,0.30102248997998227,0.2859890515610781,0.22994634944391934,0.18298785095172643,0.15905737160456113,0.15722464818918214,0.14396062543740795,0.1433347426871936,0.13494384974752416,0.15264693445725874,0.2236549358228248,0.3087105782060642,0.3971832665206325,0.4859180602609048,0.5776373984897052,0.6674810266940874,0.7487576005994481,0.7351036814918483,0.6466011106898448,0.558040611675017,0.46448295616010826,0.3727686609743779,0.29287831639222683,0.21601089385030248,0.13873445355675695,0.08146264101935885,0.05307129688263523,0.05088739434569356,0.08462875163279726,0.1436133180146295,0.2115636239257055,0.2814941532655242,0.29454503646884334,0.23891365719563673,0.19589128777636633,0.18191222354665126,0.1760546710337929,0.17499216017716135,0.1944862487453698,0.20813212716024165,0.27067334332505655,0.3582273593331229,0.44601594012709667,0.5357463775847382,0.6246622112493139,0.7164173937946878,0.806175212896233,0.8820573485310785,0.8507758726006374,0.7635710905225537,0.6722448279445961,0.5891865143281922,0.5237991814107594,0.4582123237126372,0.3778970376319317,0.29335943769889083,0.21004262787295036,0.14858875767232305,0.10944938358103995,0.08884569747236681,0.11030220169995397,0.16935098987030117,0.23589296812361038,0.2994855225090063,0.30315050899749907,0.2485728283850881,0.19841559624517413,0.1699697129203166,0.16300000407462512,0.15001355713160458,0.14887985564877426,0.13463476935101903,0.15747578525655892,0.23292539065900253,0.3195272069109709,0.40837029385853896,0.4981647721303224,0.5923185424661963,0.6864727137842301,0.7586055110133896,0.717114852687962,0.6298022641651702,0.5379087547310275,0.4493849643629415,0.35975693205273185,0.27340836981338446,0.19018839971538593,0.1128297656782673,0.05738136559690399,0.05655574752044257,0.09187051289487602,0.16134588368895342,0.24628274465689515,0.332095544716819,0.42017438165466703,0.5104587211115013,0.5988720122278834,0.6894506908508975,0.778772530007126,0.8690367821640639,0.9395735682868189,0.9129090585152431,0.8295953506961427,0.7397584443911494,0.649354418656146,0.5591005902867314,0.4666997502893544,0.37868218058746383,0.2912596916372958,0.20757501762576513,0.16373622934504328,0.173316928993704,0.17857803997118915,0.19012679315788428,0.19557375296540602,0.23068590471630368,0.28441409020783515,0.34210395638902247,0.35074380207243894,0.2946346354913634,0.22650032182851398,0.15850616368571013,0.11633283754006407,0.12598258536375373,0.16440933765132915,0.22700620929902993,0.3065150197628339,0.3902910818446892,0.4818813192870157,0.575979548272592,0.6656758107276488,0.7560818990567535,0.8445805417762351,0.9350997154079883,0.9999999999999998,0.9673804706126228,0.8839621303309955,0.7961622450582184,0.7028487830117567,0.6085134207692822,0.515945743671762,0.4277327324345883,0.34028137211522136,0.26006840211816495,0.21961764078339652,0.20768716579715885,0.19774107748304415,0.20359381186786618,0.21923585722908734,0.26169497119391294,0.322410314009995,0.34745427189655254,0.296472955270914,0.22709183110542397,0.16041624552827205,0.10100686211317411,0.08177813928586786,0.09751335079298906,0.15471426109345154,0.23329756321163764,0.317934356532795,0.40427273421908705,0.49286152580517384,0.5836386956880126,0.6732942467420397,0.7633386755527056,0.8467897740572021,0.9135137787279677,0.8923338881979082,0.8117182572063684,0.7315061182772138,0.6503042097507037,0.5588420298690329,0.47027979796686603,0.3793877241054717,0.29128504233103514,0.20650192442728454,0.16413728069583589,0.17178891353329617,0.17764076176454702,0.1874385592825627,0.190783080438778,0.22373464325661963,0.2787830335322159,0.33305095407808993,0.3425025147234235,0.2868398566083603,0.215405745252637,0.15385634663825476,0.1184912766060251,0.12261776738739893,0.16871146045196106,0.247425197627809,0.33258823969743334,0.4199995200558473,0.5083004534391165,0.5968108539804067,0.6859527301008965,0.761213694782477,0.8360110072153442,0.870798996414899,0.8054034426963905,0.7180350582417059,0.62918275658519,0.5367770076628542,0.44837325217887747,0.35907027767102306,0.2707701692456521,0.18504513004185585,0.12580769774805112,0.10743290028891139,0.08006055728204209,0.07041695595845043,0.11887297320870527,0.17508510219676254,0.15256101633361063,0.08125514708218029,0.08403606013440501,0.10648281493170231,0.10869402075253198,0.1642433126816809,0.21127948743948344,0.19309565662357953,PM
0.032389611339329605,0.010973229873277646,0.07800165909261514,0.17128788111098725,0.25866583012177724,0.34575188893699194,0.432421775253391,0.5211234506600095,0.6076943064077258,0.6927673347504175,0.7582839105709929,0.7162163854746617,0.6234803161963209,0.5350148121030811,0.43698981976261075,0.34049562799538036,0.2562146498662954,0.1797229032595964,0.11769824169527343,0.06952666396855411,0.038290458100783464,0.025051099561471002,0.03253441778663868,0.044902746092813306,0.06378907350513963,0.08619621722385462,0.10877521557175651,0.11143177356739109,0.10162744673757684,0.09735518808791488,0.09819098003593796,0.10866282077318523,0.112000123089389,0.11201518437255853,0.11201518437255853,0.1120047940776514,0.10825626916207387,0.0763690662348453,0.04425745478101595,0.0495290591328299,0.07907542118696886,0.09675399647675187,0.08947039412020619,0.04408820957020154,0.027882912312415353,0.0988162053088959,0.19073351037166253,0.2788229875007815,0.3662237639080188,0.4493960517386846,0.5324732264061445,0.6162361241487369,0.7034754397288658,0.759335957950606,0.6977873248353119,0.6042547301660233,0.5287252009046814,0.4458509797238541,0.3491203930191382,0.2638330397014661,0.18372908041920422,0.11229826523997044,0.058842390164598246,0.020406373033012848,0.010102689279249066,0.017292701195731564,0.014959853567890313,0.02367420262325437,0.037965325250434834,0.06564127061847413,0.07327243377928472,0.06807352485055995,0.06786113196335597,0.06287547812134564,0.06540450400476328,0.06793824030071915,0.06794867312848707,0.06794867312848707,0.06782107324161624,0.05782627338059987,0.019315349114218616,0.0,0.028958492423079463,0.05960928708535862,0.08446585846991095,0.09395268604939933,0.05461536215053053,0.042433295686455264,0.11461969804566507,0.2015610908406451,0.29476598781812946,0.3813909251140579,0.46671106884289326,0.5502663735108322,0.6365255497382858,0.732831478302213,0.7889353933454228,0.7277102673079652,0.6382949324609788,0.544024376489209,0.4553740619399469,0.36605566633162034,0.28199352181213966,0.20341268847995453,0.1393527916187467,0.09025718673259098,0.0697215433283005,0.06841026562383412,0.07789529629073666,0.08392374932927948,0.09840128921409796,0.12119900528984084,0.13422829194573538,0.12410968423254776,0.11300008765756075,0.1120159354990804,0.11201518437255853,0.11201518437255853,0.11201518437255853,0.11201518437255853,0.11200519945982856,0.10880110648334895,0.08011180224422887,0.053032483621597404,0.10034009675994549,0.14000790870727098,0.15806591507806278,0.15258652260873617,0.1610809134270581,0.16014428298105132,0.14906834804147095,0.14727172493005902,0.14727000351021546,0.1486380813082966,0.1602021081093059,0.172369783768187,0.17118461078733116,0.14930309889020466,0.1322605381273294,0.11989055418606442,0.10918429091395643,0.10565512903148555,0.12781926619367479,0.17649577818903017,0.25218172381750614,0.3334318083306136,0.42005347699864526,0.5125421520039581,0.6021423278229188,0.6947696099696068,0.7826968030591077,0.8728648832038157,0.9567016769410328,1.0,0.9393278645350307,0.8519218311489669,0.7649093547263703,0.6772875812720147,0.5928044022936252,0.509884476242576,0.42559229708187774,0.34190852838590713,0.24860034261967767,0.16686132904706152,0.13347545705504293,0.12725926449389524,0.10935298398283733,0.07744057574167273,0.05515232962067751,0.07897908869503123,0.1018370054094917,0.10529064755294781,0.11266549813671034,0.1039288435904413,0.10320210599151292,0.1032018821237437,0.1033956197783148,0.11110055333379876,0.11776932458560285,0.11718735592521545,0.1056155884189609,0.07814088041300549,0.06076039312727177,0.06371724439591153,0.05932280470750495,0.06338827934395974,0.07759207725525075,0.1257491456290074,0.19539596235868384,0.274901724855535,0.3590929559913034,0.44917715253173096,0.5398175823138267,0.633211353207936,0.7225237757644272,0.8114120671463589,0.9048011920163384,0.9711693531693126,0.9382182950524731,0.8538078898002661,0.7654000352675183,0.681059212265033,0.6124613642226597,0.5334892737438777,0.44889681879506727,0.3589243330460321,0.26900939504462906,0.17759713774631702,0.1289567359906476,0.13896473454898395,0.14362644516576184,0.12072667687991467,0.09627332064793892,0.09553090039034906,0.13263590439835315,0.15606825429723648,0.1574962969383038,0.15781040439531546,0.14810555445111628,0.14726879874999188,0.1472214453596612,0.142360537083575,0.1331363494529798,0.13957449227148544,0.14753954702781114,0.1569301463512538,0.15196590800778775,0.12574503458600494,0.10204878628347291,0.08079025960604413,0.07395245418125418,0.07881864795092586,0.1024314982906529,0.14952429243764387,0.2165228637908303,0.2971663934496358,0.38240805574014924,0.4708767937317555,0.5620605062601371,0.6510602951091755,0.7447631017557237,0.8333010114952577,0.9278408457005582,0.9991965382972308,0.9744411681568379,0.8908838458044714,0.8028632072289534,0.7163464072440533,0.6305500575249714,0.5452458523396468,0.4567549964596389,0.3652874469053886,0.26816511778449925,0.1808858141595433,0.11537210475786752,PM
0.08990970939157394,0.07439429316522084,0.04677982586541818,0.010734209170160103,0.026346824741084962,0.06189368874717216,0.09680967002778651,0.10918257909667206,0.08955920217068503,0.03402932003272463,0.03299992853588174,0.11773777279218711,0.22159187221031518,0.32445078629108925,0.4229258932967297,0.5169038770026595,0.6075386393181201,0.6950395379452563,0.7701853708338979,0.7028924059643411,0.604420487225366,0.5017388599871118,0.41743141313564314,0.3344583797535341,0.24335295038101634,0.16373971798283415,0.09526562417401907,0.04394382080592685,0.024268543150603783,0.024935886855991907,0.040732248126203796,0.06329501856769415,0.08977765505289481,0.10970292285842254,0.111282485140352,0.10234504617043871,0.10793444017556597,0.10140465105322427,0.10957129631422902,0.11161538163922424,0.11161768537426608,0.11032376586175596,0.08866516799455271,0.04411732996404627,0.0036718000233690873,0.00833626158897216,0.04065910474914114,0.07562990894667365,0.09180386038717803,0.07510676574365505,0.02052590858140846,0.010794348836388856,0.09325193703538748,0.19522579744330093,0.2975505877942304,0.39953815995243014,0.4980700784579306,0.5892960513407406,0.6717677255774857,0.755699669585848,0.7297172543203341,0.6276731726218787,0.5289767510409344,0.4240682701912739,0.3276016243930644,0.23379551189774928,0.14887296606130684,0.07440343664571092,0.028661268230136816,0.007320440675058659,0.006144840622345438,0.01078477089773644,0.02731661232242244,0.061128620320296534,0.09502932694468935,0.11091046104904168,0.11161844661311182,0.11161836978794959,0.11080530341111272,0.09854350995062422,0.09406048845892068,0.0952278557601387,0.10744202422773164,0.0919739659306904,0.05295868175653107,0.02825217065326946,0.04105683587744391,0.06836822578079138,0.09296806598692431,0.09043650086002808,0.04969944545126115,0.0,0.052447215412258164,0.16084593473701192,0.2693615003359371,0.3677206294049289,0.4659837110784766,0.5581088662653135,0.6406547627242047,0.7200681047717512,0.7062725701406429,0.6092375136351302,0.5066042131065878,0.40800895171188056,0.298356910434618,0.20096451874164467,0.12457097593680677,0.0643703117677723,0.02717230707744056,0.0076935238766862035,0.009279544876315438,0.024610911948116154,0.047633718808111514,0.0812750672826712,0.10496906347641755,0.11152623463600486,0.10699221235915424,0.09482089143890082,0.09403540959202861,0.09404111393968995,0.0966569325914639,0.10924566518286438,0.0973289994520603,0.06794321160845485,0.025599734364385007,0.034541304934330164,0.0907808284362055,0.13007266901827164,0.15086300257560836,0.15298059715471002,0.14070889928566288,0.1362607970842662,0.13626824371784885,0.1413263117852721,0.15314180346895068,0.1538193196239348,0.15320032433489805,0.1365228873889639,0.1027772041731172,0.07238915751915176,0.0581284741230399,0.05635756139834536,0.07291361455210987,0.12013149434891313,0.1852837308291133,0.27242425065867826,0.3682888579880652,0.46678191553753123,0.5663611139341729,0.6661279628642132,0.7726021668198477,0.8830693957112956,0.9681881131552137,0.9714447824024224,0.8905506128297431,0.7934792170363543,0.7003233408238967,0.6173401583031781,0.515363865207306,0.4172510818584012,0.3209318279792104,0.2163041298409496,0.14041733898558162,0.1354756142723419,0.13619295184842883,0.12878896356822045,0.09285806007925812,0.07931154909308535,0.1078137118494138,0.14346756704240837,0.15371416747361666,0.15379906405770827,0.14997682366786647,0.14862079883436818,0.15376546153269555,0.1538196229762181,0.1538196229762181,0.1537911349800618,0.1487719654696873,0.12264111808950595,0.08855512067638571,0.06295145418486392,0.049020301985366554,0.05239000380984704,0.08219681448585137,0.13713919468628122,0.21360539587887484,0.3075921142264586,0.4151588045626662,0.514003269930654,0.6177068136494559,0.7173937276306703,0.8154562620197097,0.9145226232886556,0.9818481744034888,0.9490096461336899,0.8758956335642263,0.7893981996684287,0.687236997329153,0.6122944650840552,0.5229603459044818,0.42481160208197855,0.32051382047404386,0.22772618322876115,0.15954404690504642,0.13656228659610514,0.13618232675166775,0.1285802785661878,0.09028499134266399,0.06249005302088406,0.0891902396285027,0.13213652655133323,0.15278151392122785,0.15381889125886383,0.1538196229762181,0.1538196229762181,0.1538196229762181,0.1538196229762181,0.1538196229762181,0.1538189709950517,0.15287007503069372,0.13606513599944092,0.1091973125666712,0.08822345235109452,0.08357855328662733,0.09144922466962102,0.13259924050265104,0.207219836183973,0.2967653787356541,0.3897887726527398,0.4767717264746758,0.5561037227652155,0.6600669780711095,0.7601171289464523,0.8618942523907789,0.9553302588912751,1.0,0.9369214416894822,0.839414293596084,0.741782717264301,0.658276888094294,0.5712979728459358,0.47559975054330916,0.37736294758422106,0.278565663013016,0.18179266666130944,0.14625459846686972,0.15358504581933463,0.1524852805364727,0.12470212697194105,0.08147986810474217,0.06489358677824875,0.10169298458830633,0.1301033907807545,0.13618866170984267,PM
0.0,0.06266372244773444,0.08740544830683272,0.10278847016291826,0.09321362178934356,0.04183436584675615,0.012593537733692983,0.08541820953173485,0.16196126964134505,0.24187153484404855,0.3308655370806943,0.41819112530025926,0.5065757037825191,0.5863945915023452,0.5941190896183492,0.51834178446251,0.43570248993864524,0.34998887583655636,0.2735119618020978,0.21607521378710315,0.19282355607727464,0.19128303140486902,0.1802310461422565,0.16655662074203126,0.12755550649494496,0.1268497904947512,0.15784630864240135,0.17761159414480576,0.24879924158593103,0.3357036349502991,0.43895901482128896,0.5488451967885215,0.5919696180703027,0.5033648459546973,0.39813093653112275,0.2951133556149679,0.19849976879501474,0.11633564272657226,0.07027524215147185,0.07028900735376098,0.11004038667077087,0.17645508321592307,0.2574732545399441,0.3442088845143141,0.43278972192102216,0.5241178532203494,0.6115618830878411,0.6242284526211126,0.5501585750244096,0.46008705507234593,0.37682540656200003,0.3030709657058217,0.2406701704145655,0.2122042769695307,0.21022175439568414,0.20379874922558106,0.176749117811263,0.15540867108646106,0.18496527336452218,0.20629045331371,0.2674893589730398,0.3535482427426764,0.4580516843805804,0.5668852277740015,0.6191803234790192,0.5375829540658623,0.43373398963940035,0.33057387645348624,0.231106054194524,0.14285526768241374,0.08957176738549077,0.08231677914569357,0.11723436318696234,0.18616319173980633,0.2648084470436092,0.3493239031679598,0.4411570160064755,0.5365925953463297,0.6164992345566405,0.6129977418192052,0.5325640312346356,0.44678643269828777,0.3657735585193025,0.29250654882359206,0.23305255999292807,0.21464528628032342,0.2150459690280737,0.2111056476724853,0.18964148802469838,0.14574416997876272,0.15209250017693843,0.19128182092071722,0.23683140030952843,0.3173444015366669,0.41125562277915884,0.5159829732052472,0.6242359225587895,0.6978973597848532,0.6310135246977877,0.525239570186522,0.42008877821623924,0.316115985513965,0.21783527614545561,0.13371975349999587,0.09067744685047963,0.08309653038768605,0.12125960805157754,0.18912503653124957,0.27263821093604523,0.36750122520075945,0.45801895747492916,0.5475479857584196,0.6157530600650052,0.5868282999013781,0.5046372338203455,0.4213472179178719,0.33735715948563905,0.26102410610354476,0.21642710273872656,0.20388688253701903,0.2010420833395814,0.22378977024945645,0.23510869266066514,0.24876897709762802,0.27294202931649725,0.336328784093495,0.4200554585889289,0.4995079120370636,0.5756704530090886,0.6516822858652973,0.6760386057229693,0.6175588551596731,0.5342991453844399,0.4383573433852148,0.34424862260439326,0.25779976269717664,0.18104775896413172,0.12533520445000845,0.12917278386813846,0.18176374181927435,0.26951931633951665,0.36890655267764694,0.47883654614204785,0.5911866735616744,0.6967846969774687,0.8038624874816436,0.9083432066982637,1.0,0.9826578967769777,0.8798508461741505,0.7742610814850162,0.664965388169934,0.5561201050307787,0.45146781317914564,0.35629388696845954,0.27424253212140615,0.22347688344189165,0.18451816397496867,0.21299186148846516,0.2398821052806428,0.2501765384781105,0.2505155220704087,0.25864305724078873,0.3115091700246393,0.3896736366928466,0.47158358981905524,0.5539478376149791,0.6367391559166777,0.6829560774091155,0.635389800843051,0.5478968280655785,0.4578720990763343,0.367265036776939,0.2825453307733232,0.20024510437426057,0.13827423154484286,0.11989238869369823,0.14944897009979563,0.23738379768318163,0.3363451663083088,0.43895907491090735,0.5449706980097959,0.6515423297776382,0.7573908727167917,0.8636040520519637,0.9516556948297654,0.983972661075708,0.898348801386017,0.7862242349585911,0.6801024009019976,0.5712987610399094,0.4599461180305848,0.36449599211673256,0.2913736396378872,0.233802098368749,0.19980487919092105,0.21795484228675033,0.24176556634294655,0.24354383750446829,0.24802225927615384,0.26685284813236065,0.32775671694686115,0.4042397270522522,0.4863939668760202,0.5717613445540128,0.6548687464476743,0.693659428274108,0.6391595742904586,0.5536952018243997,0.463537602787643,0.375152903403412,0.2864903365773752,0.2017254793346055,0.1364839766779704,0.10412341258854307,0.1302740486944658,0.20916760613482,0.3063718125608621,0.40945444244541385,0.5061764688278982,0.6006123210771235,0.7062192585570055,0.8124910723696894,0.9145982289444308,0.9589894492999278,0.8809643387274044,0.7716208607098247,0.663176185259057,0.5567880218301116,0.44707526233909833,0.3466601430921963,0.2685931631374523,0.21348969359938907,0.17880110377913638,0.18425506821420923,0.21124334777773135,0.22210214241237058,0.23083570452120128,0.2357363137747417,0.27696441041756725,0.3465137352276637,0.42840012144586836,0.5175085731697076,0.5989496603369369,0.6626524592339464,0.6422398942494274,0.5684476432972634,0.4810976437464598,0.38969319608074215,0.30854529148797405,0.23118261068164947,0.1626614556877799,0.14457359791749003,0.1713913394059896,0.1750772112580068,PM
0.37066803701382,0.45307482977407054,0.5265845972647203,0.5343790070961767,0.45028695942517527,0.36352062403373053,0.28348624393221633,0.21908376285891085,0.16745020065448046,0.13236575473725964,0.117503924369464,0.06846265974844479,0.028925905066096158,0.0,0.06624197892980033,0.09045897489273913,0.07871232471795442,0.08628704846642132,0.12101458516849095,0.16983695880611704,0.21892122209789044,0.2537840170419725,0.27659975875224574,0.30337804727486906,0.312850713879784,0.32923934410798394,0.32110807554403986,0.28728730117392653,0.2706597005217908,0.3021862561283968,0.34664052654116184,0.37520350271459013,0.43417164868946645,0.5159062159814194,0.5989860780965814,0.6721030048648247,0.6921887007493257,0.6117548070760221,0.5249406034505519,0.44180333080925993,0.37849590820667545,0.3281512609913426,0.28977680267339756,0.2679804114302422,0.2492981374186114,0.22451761006937176,0.22732756861956793,0.2560764042856707,0.29596575237928957,0.3442862421334938,0.37237634731215086,0.3752908178699379,0.38085808304040314,0.39747967089929737,0.4011184001975525,0.3797507782097125,0.3393451416224844,0.3267580624485025,0.3587656576914824,0.3998107217102518,0.41796821346114554,0.47428781469764814,0.5579102084511469,0.6514824901897385,0.733472199959021,0.792764683861072,0.760316694642903,0.669921675045227,0.5818309453415098,0.5013193228016004,0.4355784483686722,0.3871385839246073,0.3573092731924514,0.3209573156407972,0.29348005931018206,0.263328382422767,0.24443866787136925,0.2543314126699825,0.28694217029516733,0.3324081436761548,0.36996640195429253,0.36608041756171095,0.3474744730517243,0.3459754485436519,0.33920415554402106,0.3064750776488163,0.2621799404177365,0.23904035098553078,0.2648896859281662,0.30626142525090416,0.3184982844991471,0.3812432895864075,0.4743708157069706,0.5461794010030101,0.6084463592445288,0.5819727330436291,0.49231337473470815,0.4027877171780212,0.3181963835459529,0.247787077608576,0.202346195820595,0.1769053839634973,0.15926308392783395,0.13444436219665534,0.09660352986703313,0.07193265611750754,0.09321830102293815,0.12464308076243902,0.16968034934071308,0.19705598724486717,0.2184923473375482,0.23356972793061348,0.2641887002993817,0.2888914861519869,0.2892876415224841,0.25487761307559054,0.22734974112467454,0.2526318897620141,0.3040031965315195,0.3363674998771724,0.3581534542895486,0.43408730658354355,0.4999283762811728,0.4515455616024877,0.3970805133213877,0.3660099530886731,0.3122798347691653,0.2825172468908963,0.31384622446776045,0.34562932136045066,0.34884692837911735,0.3343685325397774,0.30002405835246493,0.28176768336903835,0.26009311965333937,0.23430893209979575,0.1971657646159255,0.15505187045278412,0.1334758714841604,0.15332594853161363,0.19367660199099057,0.2150073246306794,0.2286229579287411,0.259557240578302,0.3127779085543423,0.39737522114825174,0.49413443518628974,0.5820219435782221,0.6699147905644975,0.7599903029621065,0.834973442597885,0.8304054929780749,0.7497266634436557,0.6634185964256172,0.5879699101851601,0.5058301713912587,0.4195746477949991,0.377243376566067,0.35276238949273764,0.31052253633373383,0.3202640746001062,0.3604546020323125,0.39092602534293497,0.40538362802132855,0.40607135942047656,0.4127584677731615,0.42415500695488473,0.4363299092860189,0.41101167547985384,0.3621977492115376,0.32152630361914913,0.30383367372463765,0.3211888364516262,0.34951190379543573,0.38145379982404415,0.41572505805939897,0.44629276814266405,0.5020266941062752,0.5834892046343898,0.6719776455436286,0.7614877056534344,0.851928609089404,0.9364405642323377,1.0000000000000002,0.9708320688423686,0.8866933410004021,0.8023159796232433,0.727692670475167,0.6476229824897326,0.5760397031623616,0.4929252860980584,0.4597753001780924,0.43174770751247693,0.3864806194817192,0.3912969622748703,0.4276682812515842,0.45644899846301157,0.4505495807308575,0.4393805759228775,0.43626718107021545,0.4317061511925082,0.4067774283096883,0.36461176918695837,0.32112960966900705,0.28763776048333356,0.2783854781351851,0.3017679019024133,0.31523904284868576,0.33826397332845093,0.37996031033446154,0.435992635922825,0.514342525910725,0.6023805470369241,0.690685328132145,0.7824970763571015,0.8693355034212822,0.9494694896648517,0.9601684309534286,0.8818961859371763,0.7888297954862697,0.7124449820306455,0.6487170409109166,0.5803453915160108,0.49409762653647626,0.4298549747664768,0.39666787904916423,0.3501903104815367,0.32772451705877237,0.3564692402922234,0.3755301421706283,0.3743953694384292,0.3642328210528867,0.3442617961770644,0.3271941073959945,0.2975897351681793,0.25393447421463633,0.2030380443797617,0.15754021136903806,0.13052816754779362,0.14041652728321208,0.16985054223198381,0.22012897535123632,0.20336338647627827,0.21972384365223196,0.27055361626307284,0.3417882552295135,0.42955649180763955,0.5177061699927139,0.610773479684336,0.6976745558673423,0.7824178442861232,0.830316296423318,0.7719966991534777,0.6836988346173312,0.5996650825352325,PM
0.8629205530579576,0.8663787889145733,0.8500766548953576,0.8413973585016739,0.841605933790234,0.8449454304649318,0.8466263234621543,0.840751266776379,0.824376513814205,0.799398934648196,0.7806973956594885,0.8017550672014064,0.823817278965189,0.8284472777177732,0.8139071781193794,0.7548591393547832,0.6934533035342143,0.631373661163473,0.5659724067684244,0.5005179392875534,0.4371740467368041,0.376822146233087,0.31171220098992974,0.24624217853457303,0.18153585111817633,0.12164868614524266,0.05750045945451948,0.0,0.003435776683303249,0.06289022097173352,0.12459849131523032,0.18636370617830716,0.2517440288262894,0.3172157515861726,0.38264235085817194,0.44517716849705763,0.506190092460862,0.5714757402484691,0.6369474630083527,0.7024191857682358,0.7678909085281189,0.833257409086767,0.8904952679971796,0.8946319468134092,0.8765443559997201,0.8693816033984059,0.86050322244442,0.8500849199058309,0.8405407602305317,0.8440871627018349,0.8439996846114486,0.8405024958944214,0.8389059623435153,0.8390732441018491,0.8361825152152362,0.8336795121800518,0.8268058484714855,0.8037374901613219,0.7932835831223093,0.8141781744001819,0.8369802173949714,0.8409676328063203,0.8158986834438808,0.7543831749073551,0.6892671917003976,0.628844213607417,0.5655929447058807,0.500141770955495,0.4346701832495236,0.3695187893591126,0.30905653607424305,0.24586009469960451,0.18041005953331452,0.11499904467631311,0.053997262471639884,0.030143619827517454,0.07501794728494476,0.13958124480825135,0.20389226110775122,0.263745672522476,0.3283739063259263,0.39384305066369446,0.4587661103142198,0.5188190011156264,0.5826410376832181,0.648103677073878,0.7135753998337615,0.7790471225936451,0.8445151987074146,0.9069356871307772,0.9190759177120884,0.8914967145588819,0.8793135820640074,0.8714657993703518,0.8619438167140709,0.8507312251105377,0.8537170284227049,0.8560589310688307,0.8451648653901433,0.841453656758308,0.8415072321265806,0.8444180556754426,0.8416535539046948,0.8301787073232696,0.8089575955548054,0.8022557709478908,0.8252097730502359,0.8463113218938261,0.8441490986410907,0.8004784660429671,0.7356188914590966,0.6705825516803503,0.6103667121273844,0.5468165459092869,0.4813587583228292,0.4161824498824113,0.355658394919323,0.29254693621137634,0.22709949259603274,0.16223998178896176,0.10340594636102945,0.07464203185401841,0.11938756438077863,0.18441674597208774,0.24917733011574777,0.30908939412257047,0.3732119641078117,0.4386779106212963,0.5039811337655609,0.5651236162769078,0.6275174964269798,0.6929217907520708,0.756378691977798,0.8166566593494722,0.881029912203718,0.9155583543209207,0.8940353321190837,0.8788118192491872,0.8700266109631498,0.860808057441292,0.8481112788773753,0.8487725838036977,0.8636449610366941,0.8573786845675646,0.844195445400195,0.8459478547607104,0.8669592236500965,0.8690222685562208,0.8778951786709455,0.892675097236932,0.8837881093105211,0.8714485386367385,0.8814796852458866,0.8896072547099134,0.8969045782042371,0.9129438945182831,0.9481903307983717,0.9889447589865756,0.9780742773746876,0.9211081506898773,0.85644692222193,0.7962474198918779,0.7326739336501928,0.6672542615599721,0.6103049817016388,0.6251356365130982,0.6806963991248705,0.7328709521759751,0.7968105926795959,0.8605998530313337,0.9071102894312066,0.8926714409617027,0.8732408529794371,0.8608849434434742,0.8354125149080429,0.8318927735942361,0.8506588298601621,0.8621034562643493,0.8670673830419104,0.866841259375472,0.8618216543172279,0.8661315177596183,0.8799163242737995,0.8832940155728828,0.8712784055104572,0.8791730446478856,0.8905041736253148,0.8987840188796796,0.9095852130648665,0.9402412478080266,0.9850021853753386,0.9969697387531842,0.9479200659452296,0.8845123841135798,0.8233693167175378,0.7609894809562021,0.695570792505783,0.630697444273635,0.57266209639582,0.5604982012488242,0.6190401040548563,0.6811153706503559,0.7425361717595538,0.8074958102877634,0.8671544025038265,0.9018565628307458,0.8764516221707257,0.8630993244438645,0.852542067712043,0.8275906283781698,0.8252208537476444,0.8457857382796237,0.8519801753676053,0.8540473636229662,0.8592693941364784,0.8596827140572247,0.8600646298627195,0.8681357948614794,0.8679092641417065,0.8680101838775007,0.8777652502396094,0.8884607451288582,0.8918990913226175,0.9077767669779322,0.9515143384864524,1.0,0.9975960614118333,0.9426399080298866,0.8808353219015066,0.815466810845014,0.7521853868036843,0.6917840100662425,0.6266584558566284,0.5614581735221369,0.5195346569057315,0.5617806412050692,0.6269876257863134,0.6924348663223938,0.7555288666925852,0.8160084128677163,0.874292921824813,0.8808013060061097,0.8563885221246064,0.8474025942559038,0.8269769520402119,0.8172254078130274,0.8406330141703695,0.8600946893126555,0.8683343945569701,0.8697979770025248,0.8674236297003557,0.8696424216533565,0.8781683770040796,0.8955213937435396,0.8882146049743886,PM
0.5740929309356981,0.6070982209512192,0.6111900753542154,0.6091603380039752,0.6132438908409403,0.6009824031959181,0.5814426194174542,0.584194400165118,0.5925789955716909,0.580362633174706,0.5671123637693087,0.5687621353257013,0.5989748472762431,0.6199178200631392,0.6201179906418024,0.5800777852381396,0.5674449157006678,0.5379213252627322,0.5088354887517696,0.5437730472300562,0.5442947470981627,0.4655792419413385,0.373365476044472,0.2942915448429071,0.21371191901683328,0.1195237283090087,0.029408200223519643,0.007076137518991832,0.09153458574077122,0.18199338071373372,0.2831701584102766,0.38441114081400407,0.4749040232972104,0.5729409707189097,0.6103010897432446,0.5948813490605152,0.5789351912898018,0.5540640756601767,0.5223059334124911,0.4827178922510331,0.4318731712737769,0.40813868432470857,0.4058404599085246,0.41821586868448346,0.4157783929655352,0.4059235391715128,0.3767671202098728,0.37060668586425916,0.37344674593861127,0.38486959865778037,0.42049703993689835,0.45156226590234816,0.4802094843340434,0.49903673193453013,0.5099346412823036,0.515841165209391,0.5212397243609437,0.5052015967641657,0.5282553328673112,0.5682536037881722,0.6005802749343099,0.6431155120885594,0.6668126507957362,0.6103583621007984,0.519755849263766,0.4309745879821416,0.34366426891353274,0.25336655532840036,0.15651812489909656,0.07373136347263509,0.08783895397877206,0.1803164667832835,0.2720715611127136,0.37048864495963496,0.47349132860472487,0.5762527587781374,0.6699841936144364,0.7476681234783826,0.7160779701104341,0.6614060787303595,0.630159898474123,0.6062122388333209,0.5906454953135318,0.5612724229865464,0.5329733060432376,0.5080171767130617,0.5295862414807253,0.5613400496332113,0.5949718644208755,0.6097866056750019,0.621403005623788,0.6193095080344975,0.6196127055198901,0.6244910828558039,0.6116462898830695,0.6065908009767247,0.6291696293436626,0.6465948982019607,0.6610893189095135,0.6475829491727954,0.6105034852566629,0.5471465057367704,0.4983843630782867,0.49581720292304743,0.5027830215290616,0.5239718088473366,0.5594205888582033,0.5121397150717963,0.42346482902142224,0.33093593301097624,0.24895252135014712,0.15621575857815984,0.06555547683927054,0.0,0.040922475097838085,0.13665069621891668,0.22763084861520833,0.32959219948770846,0.4296891966525944,0.5194379822416182,0.570531512052689,0.5368249390798265,0.5297698945711198,0.5161124383142317,0.49489600471861594,0.46312973697021365,0.432434977714796,0.4263264465102026,0.44250203325473114,0.4803583296960654,0.5120828106197064,0.5466820475700884,0.5887602455667085,0.5878914313418466,0.5569284646309374,0.5226024916135197,0.48905505278831773,0.4805472588231643,0.508535906317408,0.5399552398920324,0.5583331690056572,0.5772025524629574,0.582893952517801,0.6108885078399746,0.6976577352939599,0.7668459093334588,0.755783079631728,0.669677456394969,0.574431508293674,0.48014860185287755,0.3785691839472025,0.3323991982814545,0.40364564954932547,0.5046974628615124,0.5933997939249047,0.6179753405747599,0.5995328745439581,0.5724595013711804,0.5657614523093266,0.6135293150177832,0.6671129586767814,0.6988687787318391,0.702650149439386,0.6999570989586448,0.6801708292298541,0.6599743267229452,0.663833772870654,0.6820503611081237,0.6832493344770572,0.6709264710117857,0.6685369687867988,0.6551369226014585,0.6332489713594516,0.597467910768402,0.5746614198092357,0.5909864971040331,0.6229161727907688,0.6500890833802497,0.665256756386988,0.6860746925638375,0.7326292772073058,0.8045088135656906,0.8866454311002361,0.9799946742944754,1.0,0.9278959643948705,0.82962259860594,0.7325284215652603,0.6396498654684226,0.5370808985596343,0.4509898070609486,0.4839633594674835,0.5755678865422116,0.6657727939551896,0.7366322355243557,0.7290117953280308,0.69645156749506,0.6561985520889535,0.6240271667019885,0.5784381641928569,0.5662078201814098,0.5812142004627248,0.5724450492011242,0.5766186764370875,0.5540970451793781,0.5317840090744466,0.501664802619636,0.47136258514913854,0.4345690419506183,0.4319194968322746,0.4277382620943446,0.44138859277273745,0.46810117524768113,0.4714743104094685,0.4699135846356053,0.4582070430163969,0.4809379115814276,0.5300515899130129,0.5707296444797052,0.6011502726679159,0.624151310165634,0.6410718286067674,0.6586240337141214,0.7117957251963554,0.7586083422885808,0.7177828009267766,0.6222914702211,0.5288027522074303,0.43255697077446476,0.3547439461796458,0.4005235456721761,0.4928762279301595,0.5766266346935027,0.6155799303095253,0.5999347547871956,0.5926136959103392,0.6385518836204391,0.6265917205368114,0.6361390495927615,0.6670584826409769,0.6664038536436201,0.6499953961151612,0.620559561109101,0.6186028276599678,0.6363137604879161,0.6473903812150748,0.6380342895064994,0.6281488298390765,0.6338502724920851,0.6592331741071398,0.6692843873587018,0.6640176209259079,0.6649213110592154,0.6534536115397338,0.6314167562210238,PM
0.6132099016105493,0.6648968465005959,0.658789768207862,0.5820578296940943,0.49648800824813766,0.41409945889906985,0.3279031977686644,0.24537820750564343,0.15908312610171327,0.0749312971933993,0.0,0.008478557196454017,0.0860940052592839,0.17222244270246845,0.25939328671539663,0.3418376856184129,0.42846687889488766,0.5152857732315875,0.5964220720160577,0.6620517928816397,0.6713788641068495,0.6337190881053351,0.6289585656978097,0.6910316649262204,0.7239249885206148,0.7288258434643381,0.7914085096850759,0.8283450113008414,0.8576573985671264,0.8878449418727167,0.9206952619549821,0.9016585364168647,0.849384921157834,0.8282741409647661,0.8365628102604578,0.8216199677853177,0.8267935801602669,0.8411859978279485,0.8292412481817247,0.8129706104954589,0.7466681778248699,0.6640110098995319,0.5800051329059154,0.4956351263279779,0.41168681779730343,0.3266746228506433,0.24401209456373874,0.17685843239700605,0.20484095354359788,0.2892577339092812,0.37171231419120965,0.4582968712913087,0.5457011826872121,0.6283143407468371,0.714461897540002,0.7987526222142386,0.8679677234949722,0.8766708598016039,0.8863567884029412,0.9138558034069687,0.9457482479699596,0.9131010398485256,0.8532993519965492,0.8145034672154906,0.8049126868018547,0.7973809044840435,0.7879561922803952,0.7538058916090694,0.6777910851279255,0.5904331499371579,0.5072711655166852,0.42194208792822396,0.3377421686870924,0.25349571321799147,0.16684763387971857,0.08565902418733429,0.04005043627468402,0.09477699200847889,0.17810897110455393,0.2652107117494591,0.34769024501934287,0.43422533353084236,0.5216516809107131,0.604292404590789,0.6904812974727706,0.7747583683167819,0.8082418816592293,0.808255981682,0.8181578371302992,0.8511227980078923,0.8607984597544031,0.8090685689060243,0.7588921964954561,0.7532122246326477,0.760530895838644,0.7472421158668544,0.7413309736202914,0.7567867972983772,0.7763122787693298,0.7914599071256915,0.7925871357628721,0.7439629030105658,0.6645437587968249,0.5798332801664784,0.4974644092554288,0.410757281291789,0.3272709351260735,0.2422694078214681,0.1571591414562855,0.07900427095996854,0.06353668736137663,0.13328190346393676,0.22017570060966363,0.3081643292046148,0.3961565381413472,0.4841429721207785,0.5708943201926965,0.6533093971756617,0.7397904090522333,0.8184627272296544,0.8561040228766067,0.8759685015976354,0.9043943558391586,0.9457998281968992,0.9695882792284664,0.9257757544102309,0.8723948111921963,0.8508720991088831,0.8506687219756596,0.841707977830456,0.8249366643424884,0.7605516541810201,0.6770123126957398,0.5945549609150343,0.5101891867026914,0.42667617765485444,0.33997702254259154,0.25758412325992985,0.17160270073655626,0.11109316631406707,0.14722055828269098,0.23137489117284904,0.31455299084591537,0.39994767741404624,0.48790340430731227,0.5758956132440448,0.66384614759955,0.7490836239448774,0.8266413666131035,0.8576650048060622,0.862095675336125,0.8804377311046926,0.8831537803059842,0.8904855110207016,0.8534601179095328,0.774061209354043,0.6871421018199974,0.6034619138887757,0.51863269133686,0.4316310809039269,0.3884670912363607,0.4548825666728251,0.5369814421459846,0.609625500756228,0.6799242784912792,0.7598767632450935,0.8345071474928679,0.8606943559553589,0.8668329550042896,0.8779563301939542,0.8826697130302096,0.9257463876851161,0.982721578868862,1.0,0.9623658577547342,0.9226381536340406,0.8944315192096856,0.8924131126643172,0.8632348839542955,0.784681156092997,0.6992282809486242,0.6167634288063036,0.5302546677454794,0.45060513264379,0.4601011854413243,0.5425802158017533,0.6248394563559069,0.7077533697277,0.7850141073939648,0.819607639539938,0.8153070749701724,0.8029598003389123,0.7849461558854393,0.7707684603130257,0.7775044916512756,0.7907901359728123,0.7839613216729199,0.8065739183775019,0.8644240929593886,0.9063001873161599,0.8825318509215933,0.845100063953293,0.8394111517618222,0.8480875691556621,0.8381024532458096,0.765984279379666,0.6822127139954984,0.5997605852951972,0.5125150111268229,0.4314321297087871,0.4330978057690408,0.5138948526410928,0.5962130141146283,0.6796495677057063,0.7585360592235458,0.8045996102986489,0.8206028258955452,0.8305542242590706,0.8394642900877182,0.869625823406876,0.9278489655009831,0.9726146505688519,0.9543796042924347,0.9162605338706086,0.9024466204730209,0.9250688422703562,0.9058790400937903,0.828688923906025,0.7446101961534074,0.6568137051817245,0.5827127924954395,0.6094849615475623,0.691724473260593,0.7729085997191653,0.8426197614509746,0.8553557261804864,0.8587703504912999,0.8647777027045117,0.8425997010738343,0.8540611913980493,0.8629494080353096,0.8541047352758883,0.892751768699748,0.9451109318509688,0.9476162735131363,0.9116320632416693,0.8869726646563748,0.8580897014300773,0.8388887347394393,0.7839415889477673,0.7009788539108307,0.6438054024730314,0.6895555889253194,0.7611820888499415,0.785963154868257,PM
0.020412326252185142,0.05100165181881566,0.10896873028268583,0.18771551749761706,0.2847297848454087,0.3761426911721566,0.45951841416931716,0.44508033872955144,0.34083424082731284,0.24353146229210187,0.15979444517895347,0.0932150262448781,0.06161242207707174,0.04774976778366735,0.03929568689591578,0.05732457130520707,0.08458394243776457,0.06537869785396211,0.06002576499944334,0.06000760379332526,0.05924797605538856,0.03797460567846356,0.0020747359152557543,0.02054880582778784,0.05072123501345294,0.08980221771633268,0.07783872078989917,0.015365960379037702,0.050093873732294014,0.17288956515719578,0.300729701413716,0.43418639691312233,0.5567912497410061,0.6313881202121601,0.5369900606430806,0.40678674634623624,0.2875107053913939,0.19286759190896374,0.11862204079347949,0.06100568553240171,0.03479120326286722,0.020079179535883007,0.041332938172792044,0.08940484138112881,0.1634593926487078,0.2474382394210779,0.3439479346589529,0.4345637345132527,0.46797556770556303,0.38570500560301024,0.2828865435022654,0.190914966759693,0.11106711109712597,0.06607801875093289,0.06003238101543262,0.059875208391520385,0.050945486348193736,0.05061759216052142,0.05986253598453484,0.0600076526214508,0.060019099194094316,0.0634244053288664,0.06333405258124136,0.021397861760465098,0.012154512773077997,0.051147287635413985,0.05691646884170076,0.09715017392735126,0.07732875665284755,0.07607216922509119,0.18707394212522077,0.31660104677525513,0.4430810273285579,0.5618673928922422,0.568308974161396,0.44850393954955825,0.3296336890038849,0.22864856256285426,0.14495545212022432,0.08479374233073145,0.04659074848086009,0.038229130901150654,0.04629367098004833,0.08928885662681907,0.1644371832186704,0.253010203798826,0.3460256456430839,0.43253716929052466,0.4667008461863671,0.39138914497118593,0.29655342790088257,0.20601325290258155,0.13337187395235306,0.09516115415536097,0.08221779655410044,0.08190823324130436,0.08307615878053909,0.09859282833596206,0.1042593819071751,0.11105240541861283,0.1044934334796217,0.10348608109460322,0.08112646311812499,0.02435188727369031,0.0,0.01635425282582048,0.046236911216430254,0.06339233237172115,0.019666083394425105,0.05290382320494125,0.17640796367710632,0.30856517253969784,0.4377674410988095,0.5503808062539517,0.5649906315448581,0.44329631502273203,0.32200224319939474,0.21994133921738834,0.1340717183000515,0.06348116106992974,0.02472112174751251,0.0012559986264357725,0.0033954939064098077,0.055392149761076315,0.07019533204557993,0.09040735504148056,0.13509333142956637,0.2107788369425312,0.3146360741137628,0.4349539853760591,0.5600181797396209,0.6951081103296883,0.8200206432573078,0.9229520133153986,0.8926574844660347,0.770988784410862,0.6451279143921149,0.5087726883911312,0.38287972522163827,0.256088565978994,0.18653184840634252,0.13930119108274575,0.10184122125907358,0.0822746534983887,0.080175513661497,0.12380997023381202,0.1575368038275986,0.17535789805157975,0.17790899619036527,0.16580751532880056,0.1564876443347334,0.1523841487872395,0.13617937483772113,0.13529656936098267,0.15122020907858102,0.18104671023330665,0.25204542636923977,0.3435477994970615,0.44022729249481163,0.5284081495484831,0.5638129901088855,0.508099798160714,0.42624676534805594,0.33316354576937757,0.23434406983968703,0.16150548460569203,0.10685227066314873,0.10173753765784266,0.12268163064974758,0.1679750318062676,0.2399019086758849,0.3315888196440815,0.431892119338118,0.5568879697272227,0.6827770322244793,0.8157748993733294,0.9366969321310559,0.9907444739014566,0.9114022731591285,0.78199153595344,0.6576496577631157,0.5364793249365696,0.4136445526168009,0.2838584354628826,0.20990562368408527,0.1568551537760734,0.1207503590229817,0.10409807906698587,0.08789665807479263,0.12625335258531667,0.13386803004545866,0.12026059376615938,0.11263848787269692,0.11256729360986117,0.11256729360986117,0.11256729360986117,0.11294411110689184,0.1254505972861497,0.14198230211581953,0.19689434135327266,0.28643139923056005,0.3948660320402819,0.49074874892031595,0.5627006279270064,0.557327008101288,0.4825886559301411,0.397004315227961,0.3037937564588047,0.21251663225639472,0.13648691147459502,0.09629356630364105,0.0930186428890778,0.12117989389849093,0.1837266480823363,0.2659356824728287,0.3673769346284339,0.4895754832620507,0.6156626281094462,0.7516067191704496,0.8779721478845395,1.0000000000000004,0.9916644400623276,0.873965492239678,0.7432184982523489,0.61911548115711,0.4980802801892925,0.3681350019527123,0.25299759379938225,0.17933541652325014,0.1505103425253762,0.10407713864335166,0.07753955766203058,0.07775967756872415,0.10966368003973459,0.11256196492052384,0.11256729360986117,0.113499510223396,0.13888524413493686,0.14975045977292245,0.11980443563487286,0.112610981665755,0.11448486283034542,0.14379225713197608,0.2149645191361449,0.3048192151458968,0.40422477277147406,0.5012663613806856,0.5769397677936969,0.5521701854958017,0.4704424096194444,0.3795770019228044,0.27606468467291023,0.1915932234452713,0.12489346171152516,0.08038234556085389,PM
0.0,0.019456012376193044,0.04304448056282715,0.0666944976284741,0.09034451469412104,0.11399453175976801,0.13764454882541496,0.16129456589106192,0.18493334145239088,0.20693706620732336,0.2274624411660993,0.25100747503554605,0.27464162011587523,0.2963217272959913,0.3161287691236223,0.3359545720117151,0.35603383592890614,0.3759238276873441,0.3957918070055881,0.41480496224391367,0.43474849816911376,0.4580353844681709,0.4783895315373341,0.5006037776716814,0.5242475830622305,0.5478976001278775,0.5715476171935244,0.5951976342591714,0.6188476513248183,0.6424976683904653,0.6661476821527564,0.6897344721936691,0.7105421525407198,0.732229358382727,0.7558217224662419,0.7770823771605664,0.7980392440966609,0.8171296627000872,0.826838722553688,0.8330735419201463,0.8447504671263046,0.8586721490479603,0.8734171330173962,0.8726781663459224,0.854724131688616,0.8353061770041309,0.8275232275929064,0.8364117124479418,0.8365141313470594,0.8282659183364006,0.8233350541162134,0.817867547330348,0.8116385136999585,0.8081851051008576,0.8044479675137313,0.8014476930710714,0.7979501490167039,0.7951046427442015,0.7917945372403642,0.7870630385014706,0.7757060074641325,0.7640466571633476,0.7557086631771902,0.7486076737671121,0.7500897460334586,0.7620616906590314,0.7751499651144372,0.7770986497528283,0.777341584488327,0.7845984937226621,0.8020945001306088,0.8227954621025556,0.8385770881085413,0.8527813226569951,0.8759008137078453,0.8926085362084488,0.8780039915552458,0.8581685851167475,0.837015604733929,0.8171744880812899,0.7981648198766678,0.7819881060323568,0.7696893668085661,0.7578640553697785,0.7464941628922508,0.739126201761902,0.7380108749397192,0.7380236061379178,0.7404477659245187,0.750064676679941,0.7643114732172277,0.7787704701524377,0.7935363496664969,0.8074564359798602,0.8130104239120484,0.8041250917094069,0.7956849156163999,0.7886722628433409,0.7829482473699949,0.7783321653025345,0.7762640757994673,0.7725515888156742,0.7722184305309292,0.7722176760331878,0.7717140490955383,0.7678944432501824,0.7672069942472337,0.7631208371615426,0.7549420703033416,0.7482652445296782,0.7481141080029288,0.7547096871473632,0.7675960525182897,0.7764975778236887,0.7771067425929706,0.7780088633261075,0.7864366222138254,0.8039057377028064,0.8246066228980223,0.8453298087244745,0.8654613397772951,0.8872038016820976,0.9025172872486305,0.8944053311066629,0.8749666103676824,0.8524516882798071,0.832289909659241,0.8107989189631973,0.7957621513623255,0.791607670734568,0.7924144219410612,0.788406530113799,0.7786168902401731,0.766076791902211,0.764712792599158,0.7716546390621732,0.7789111809763015,0.7832998918665908,0.7839521652660693,0.7853504271660591,0.7886413013463541,0.786449545843082,0.7844270617690191,0.7882118369140052,0.7896699906806698,0.7957450176720813,0.8010171552205105,0.8079047232731679,0.8161114149992901,0.8260473624213365,0.8319368599168673,0.8242556644599067,0.8105875385240116,0.7979948284551607,0.7829666274575285,0.7685556567144454,0.7551201114186746,0.7499621723455534,0.7500314394684007,0.7559860294414508,0.7657076635521906,0.776445151776193,0.7898205869600641,0.8064697522526649,0.8256064141777758,0.8462667890786915,0.8667068953493189,0.8864876597469473,0.909211818396278,0.9290895937416708,0.9519755328110081,0.9734650152904608,0.9929969693448532,0.9999999999999999,0.9836691738569868,0.9637475026150262,0.9412048721144758,0.917743573390187,0.9013336831273149,0.8880025417414807,0.8662142200424496,0.8454553479446545,0.8238936989863035,0.8042246295264519,0.794162774987969,0.7936233988078779,0.7892569495038401,0.7784112873781027,0.7647181926054594,0.7659840820687212,0.7738704371723185,0.7867612135970657,0.7972562774577939,0.8032485195968116,0.8059802494622276,0.8097450957116482,0.8131325391684291,0.8152741111536661,0.8190976755986304,0.8236895624019948,0.8284621467290151,0.8351057933711046,0.8416300790393185,0.8451910788839667,0.854112322088466,0.8612889574217998,0.8622169898504,0.8776159077156459,0.8968163537550237,0.9040109195343627,0.8943218097632697,0.8830176967353863,0.867830110548762,0.8520824831820522,0.8432984132414234,0.8391402299533067,0.8250715006935679,0.8030489561517402,0.7877917138588625,0.7696087235004812,0.746259903921417,0.7283826628605959,0.7125755243506428,0.6897965482070672,0.666147685456113,0.6424980005583936,0.6192750075361939,0.599378230044625,0.5764338351598756,0.5527847592459817,0.5291376085081709,0.5065670963263762,0.4864853891309015,0.4630807271112255,0.44091847626728264,0.42080398480927034,0.4011593260987282,0.3821029087485207,0.3622671448751737,0.34159452802900275,0.32176288246739004,0.3015773372348325,0.27953708287468615,0.2558946341536502,0.23224461708800365,0.20859460002235597,0.1849445829567094,0.16129456589106284,0.13764454882541519,0.1139945621641261,0.09052140813412299,0.0702889478685762,0.047926583687270714,0.024282684100730638,0.002144275019284705,PM
0.1860139737119788,0.1996593307002894,0.21081402599426902,0.2327201095364393,0.29004203212221524,0.3541141812611308,0.41820210319010287,0.4814370286135323,0.5453507854827007,0.6062687445843109,0.667258335301455,0.7322110726459108,0.7518138825891532,0.693132790313228,0.6277949182528741,0.558940560220736,0.4936847173697212,0.4273064696262292,0.3619601816154079,0.29685160736001426,0.23002803399809602,0.1658250519447798,0.1051684788264392,0.05324158957221048,0.01928501845450359,0.0,0.0016205009324473663,0.031074195409185545,0.07821892907565353,0.13182413007440308,0.18451588959313958,0.2380607600687059,0.2855446025061086,0.28682470909624413,0.2556424276689355,0.23053689338279737,0.22222100552633917,0.2219789255859279,0.2216361781008913,0.2114765822627136,0.19736336070609006,0.2082156113419149,0.21659697047182314,0.24158973513483994,0.3036458807797626,0.36729381362817026,0.4312687741724941,0.4959235524651706,0.5607546874384333,0.627469790560869,0.69256095815006,0.7278317462732371,0.6799407414939453,0.6117185440608037,0.5463966480471181,0.47887703331605147,0.41371811211657783,0.34472833319493,0.2759767124200665,0.21132115779782779,0.14789387576646218,0.09117173351041152,0.047858455395623944,0.024750949176621018,0.0187739855633573,0.03734706144980093,0.07953081119596073,0.1304897997357708,0.18644116860583604,0.23934688426731787,0.2790485682508026,0.2684908800295047,0.23910848017083297,0.22102925761863235,0.21576163099064183,0.21421462567214844,0.20807746696528984,0.1929136124181341,0.1817598706768253,0.2042656348360341,0.21710643401548757,0.2373115932155101,0.2932518483862452,0.35696814981308145,0.42280714029301225,0.4808040000893661,0.5447467615558732,0.6097138130971249,0.6763187207875534,0.7416857495380706,0.7778170755410401,0.728058599946056,0.6597026787893219,0.5944806986508924,0.5267173736565747,0.4614226906844461,0.39472984255846044,0.3291515686915374,0.26441598705653924,0.19986227171350457,0.13344086866653204,0.07802579025518286,0.04081544499724632,0.021845990661931824,0.019142604898805482,0.04487978461301212,0.09076318246445803,0.14158766250089105,0.19730071961103635,0.2506582310276704,0.28169033390764975,0.26248562835552014,0.23808513026545297,0.22407044513258012,0.22199056030450692,0.22183412647382883,0.21537093355249382,0.20441451559655888,0.22083156666385162,0.23573731398668496,0.2376598658516349,0.23928919517022695,0.24237610392671538,0.2598941970011075,0.2880466488681255,0.3075215826483022,0.28463265625663503,0.23355980747206617,0.17989763440705064,0.12795483760803306,0.07826628750672593,0.041063468862562624,0.039340054813919,0.060201177328907285,0.1019073388729026,0.15906186329809202,0.2220786355816904,0.2873458644807254,0.3524378592456239,0.42162491554669934,0.4909517999078097,0.5562655407531665,0.623790091993784,0.6888259021038676,0.7523636454100344,0.8133317787221379,0.8786613960513316,0.9472308809164733,0.994341255585204,0.9651253856891095,0.9026958454677352,0.8448675800302394,0.7819772811219166,0.7123249049693816,0.6429031156509408,0.5775078690058708,0.5115703983211206,0.4478680362885257,0.38352276662060203,0.31944352705470247,0.26013468628617376,0.23565554749534234,0.22189243364317313,0.2059932170346852,0.22063728803700933,0.22954142766484176,0.23441447921588576,0.23753586964276563,0.24525554822682105,0.2711093159303517,0.30172986186018536,0.3018840734369146,0.2610721262951894,0.20647139980077567,0.15247803463648302,0.10125004107320901,0.05601706954418373,0.03667312818937285,0.04486977682768145,0.07248293690678165,0.12240053217296598,0.18264335032085377,0.24692871376402703,0.3113425680191666,0.3688304369406794,0.43237396851266996,0.49822039359268877,0.5645569598996376,0.629747160167969,0.6989631330751633,0.768800364856983,0.8386237290641994,0.9067734872063593,0.9706458409679548,1.0,0.9531107613288261,0.8883416214019455,0.8226512339702097,0.7576021160932376,0.6900940198844596,0.6247709122933398,0.5576039468920095,0.4917424031782567,0.4233922502196137,0.35903608978894086,0.29545713075258306,0.24447546802012532,0.2329415001966335,0.22079839446083183,0.22744428099815428,0.23702953916400893,0.23740977211440417,0.23800481564740927,0.2475547749611624,0.2717912774657072,0.3043087479440105,0.31943765069691343,0.2878023976835855,0.23717592289798284,0.18376345033376973,0.12712295923732597,0.07585344960244222,0.03328890819148367,0.018804180391176928,0.03571749408788705,0.07053065790443191,0.12729930117211774,0.19043685328437454,0.25529342863930604,0.32083453223687974,0.38628796159119116,0.45169717760989525,0.5190135441769332,0.5842373259318141,0.6527404555992757,0.7194584413116034,0.7861504074426984,0.8542816804246709,0.919647915812982,0.9814106410004619,0.980966219423117,0.9200522743718238,0.8548910222660955,0.7891913155591084,0.7232633184344328,0.6580164563988791,0.5907987877065675,0.5251946096828481,0.4597221636683366,0.3968071674428688,0.3335420849679276,0.2705089600767647,0.23264436728926596,0.21828396846146325,0.20604606313255291,PM
0.18347135690781902,0.1668283153825212,0.14477328967092884,0.17234508206388854,0.20499706330945933,0.23646524299670912,0.29997165195227726,0.38648253760267015,0.48478441246163584,0.5838512847706137,0.6771567087518957,0.7696511081141633,0.7726707790954259,0.6846472686972576,0.5910096777855514,0.4955321395028389,0.40245112844801767,0.3096184053150606,0.2202542150770217,0.13742605796473906,0.07124832101409617,0.03614737350613528,0.01915506704641534,0.03827737727873903,0.09677363357960478,0.17254556176740565,0.24019833245577593,0.250152819580191,0.19188018945336438,0.14229616594913796,0.11942791175048395,0.12870588286053186,0.11595874325468025,0.0924442293939709,0.11354768694902084,0.1518283148432431,0.18314758589087377,0.24576374090839082,0.32738216315222846,0.4180082282547908,0.5140833826261604,0.6081811431975388,0.6783233840225569,0.6260937155276065,0.5328994917189755,0.433264882647719,0.3378031688676708,0.24508437080259338,0.15462434337998765,0.07649177269870866,0.022492061396287566,0.002170488395113912,0.012595272999961216,0.05749502909539772,0.12231391992606455,0.1956486697831077,0.27550197459007597,0.3294402132538563,0.2938738298731476,0.24013380961997433,0.22639617427918224,0.2418956953695619,0.24232857007604358,0.2074849658079172,0.20454833641511483,0.23918800728900824,0.26116458315918045,0.3013682242587723,0.37820131462008066,0.4691779747645757,0.5599865942772086,0.6557533182762396,0.7499723223545784,0.8275076576859657,0.7848770352755026,0.6910939188865501,0.5960846122962133,0.5024767444615008,0.40770778770261606,0.3177598863636142,0.2278908272817577,0.14537326415937768,0.09450381371838534,0.06401733522631736,0.05434888276973315,0.08567726968256162,0.15214730602983106,0.22517113824773927,0.2970665110640476,0.3216308844184479,0.27174221744028126,0.22292812059360712,0.20791985487071174,0.22029928964115353,0.2196678672656016,0.1756399762642804,0.15860927009000259,0.1848771913265732,0.2031135075029351,0.23737587903719182,0.31237445306983025,0.40087245563262663,0.49407983933584765,0.5876612062603095,0.6825542961585309,0.7637386148501577,0.7364676067795346,0.6441262863397132,0.5494363306149859,0.4553365830809719,0.3618213872828526,0.2641217336230437,0.17995276917250314,0.10731748284478582,0.046652413621582234,0.011889984969955858,0.0,0.026967071860733105,0.08777062141862846,0.15797372510637375,0.2290582924259612,0.26324911508967697,0.2093338610905484,0.13820585008308983,0.06919275090806254,0.029399095038147083,0.03982810304337758,0.07821510906897311,0.147063835058596,0.23484266246588414,0.32526045544719095,0.4168631128765654,0.5100371454242238,0.6059979967413427,0.7006271981999361,0.8005497796288548,0.8967703852661384,0.9431591538354553,0.8843347080144757,0.791793126008226,0.697155959374202,0.6021087111815278,0.5091490079560044,0.4159836186791479,0.3218055172151131,0.25278249202856573,0.2289218795064023,0.2034703078554383,0.19222502425565002,0.22948818369174417,0.2583017651591306,0.2454232810722501,0.2345289275816822,0.2671555970198214,0.3244416840810165,0.3667976512361828,0.33729443960133376,0.2665712216572207,0.19024102793173436,0.12104095328366116,0.08521635924856485,0.10074982190938209,0.13916693791879897,0.20768384060181622,0.2940164456615888,0.38037861630656167,0.46776101614442056,0.5638914560913786,0.6573592298799147,0.7503967251136789,0.8458166385569601,0.9383583573457253,1.0000000000000002,0.9577061972723089,0.8809451904719972,0.786035798923767,0.6858670251486438,0.5875398987542608,0.49581621578254387,0.40789511711781823,0.33083941803907235,0.287590791552482,0.25779970823017084,0.23253596688728773,0.26314499488035725,0.2784332061212076,0.25936707430850303,0.2654401692744144,0.31780516545449466,0.37181232158440625,0.3589174376364912,0.2889036063431176,0.2118470824830445,0.13809103043891136,0.07076019775723097,0.035555442784669156,0.038947244918424495,0.07949225430318951,0.1560365618165762,0.2449519210679003,0.3359651292141099,0.4291082004473712,0.5167055708077728,0.5877489189861289,0.6618358913877029,0.7541054671932461,0.8460442704779021,0.8926851739402324,0.8304363510484423,0.7377410539577196,0.6428706540132025,0.5484609393081075,0.4527999485747429,0.36133669559858084,0.2758437357954211,0.2084885188607113,0.1755675829905763,0.14006152678980643,0.1327825824921871,0.1610549398857315,0.15809041196363682,0.15661006796771404,0.19708788607170757,0.2566339692612114,0.29443622616477216,0.2562487936474167,0.18298956736172411,0.11096174225500399,0.0587433963691415,0.052011489860840365,0.07957140416566522,0.1340982310161245,0.21860203736529105,0.3106168135970946,0.4031257171985765,0.4972000734533697,0.5909225499268265,0.6836464173857559,0.7708395263965964,0.8556730021126315,0.9495934198764455,0.9984525800231514,0.9360751585963809,0.8421872683257192,0.7444460077699258,0.6508467158377851,0.551679252502975,0.45756710452104565,0.3662219590748126,0.2893237162309259,0.24174312354027472,0.21385016118349043,0.18402727825845044,0.19989821229420013,0.21205431509154926,PM
0.1827132588314896,0.2687526313784193,0.35639265038240187,0.4313086087042094,0.523895608864798,0.601108818358305,0.5888266064816786,0.5284976977038099,0.4695189819563118,0.4174927921606367,0.44945676379094823,0.4865488350973616,0.4749030752635869,0.5522010571931558,0.6579574092209249,0.7593291703251935,0.7800028512635385,0.6882271048779157,0.5834304237286873,0.47550370996146707,0.3653282359713176,0.2558673546689655,0.14904368446764293,0.052131600741001205,0.0,0.02733484248660012,0.11150499808689573,0.20815301336208336,0.3093294755209576,0.4091923025192089,0.5044099792162943,0.5852414992090104,0.5931592042258166,0.5472803016983857,0.5029890952024162,0.5185857624120583,0.5897596896256013,0.6323147465102575,0.6249923703824573,0.7055242220676902,0.8104861504509263,0.9074423677816669,0.8951239928237663,0.7938465820706474,0.6866188545422299,0.5780247631873431,0.4692819384411281,0.35980560963191166,0.25434200586797917,0.1731148242480477,0.16020244625096935,0.21965919780354815,0.3041412059438625,0.3987841500050707,0.4993675224486426,0.5938795270150533,0.646027645847043,0.6006364881189842,0.5477315997391817,0.49350224002413146,0.4761363950953451,0.5319312205789098,0.5587155748212661,0.6039455407449875,0.7073803532119362,0.8143744168694403,0.8925303712072613,0.843993033075492,0.7365986005343851,0.6271729078079494,0.5190462293924302,0.4083237622791479,0.29851816022821465,0.1949755496387945,0.11524532304369484,0.09109158818458918,0.14541847103876682,0.23400444927460506,0.3294003840736405,0.4294625011622085,0.5280901277390794,0.6041064373216635,0.5871456003482011,0.5276203494160828,0.46535277595563784,0.40947869476211574,0.4321562072467774,0.48513588428908616,0.5170858584983481,0.6121795345809126,0.7183237133522647,0.8104517104247301,0.7919460155822459,0.694295300989792,0.589039791797436,0.4749131385440989,0.3611006368808093,0.25294030253674926,0.15122804733399897,0.08201054104123273,0.09084639578448506,0.16036133258545882,0.24951409072904018,0.3426281440487057,0.4372872294126654,0.5357759173919593,0.624278690039172,0.640036756930776,0.5826015125708258,0.5354603344532484,0.49575915831040207,0.5294423889668697,0.5526753494188746,0.5753644495409714,0.6776250632550923,0.7886245641478143,0.8837671423105963,0.8654207484855073,0.7661308917864061,0.659778857457158,0.5529422042879933,0.4399880415894707,0.3251585175742594,0.21967960001280462,0.1334251812704853,0.0908101688987587,0.12893113304289316,0.20184389461453855,0.17375848579542919,0.12910826374449502,0.18074263103534627,0.2789673778112244,0.38710317579888087,0.49611587018461945,0.6046631188942936,0.7132198518449243,0.8247849783138702,0.9218775215448795,0.9896025535165639,0.9557642038177209,0.851394312906446,0.7435488335022006,0.6409884446101918,0.5936676481824193,0.5509953677426574,0.5451500083367841,0.5888655717505841,0.6448960962406393,0.6868545550233541,0.6405399625858069,0.551519008389585,0.4564287398723236,0.3610845148367291,0.26551678800635503,0.17500021850914538,0.11553441055649871,0.1491214197937566,0.24661231444101273,0.35583515260795295,0.4657054849445622,0.5745351277539293,0.6722553907150289,0.770548047287101,0.8626813875403038,0.8839798975399115,0.7973064944494767,0.6902691273555354,0.5892095387568513,0.5229434888624968,0.47034712803395606,0.4635478976271671,0.5209971861558104,0.5793386283289627,0.6394093173494898,0.6475279232961989,0.5715331234274045,0.47599732058258304,0.379616043634842,0.283296176450366,0.1894482613713494,0.12624504842599926,0.16438345025036682,0.26021312482262193,0.3685023268014077,0.47878918728238873,0.5874226782040587,0.694094697056801,0.8000295333838255,0.8997845210603949,0.9770874603750886,0.959893764300174,0.8602065807493905,0.7519883345731836,0.645320944626928,0.5903692309106975,0.5392774388188072,0.5332058680032502,0.5805105862732273,0.6368222739557768,0.6900631829957148,0.6620228278882633,0.5746476886485566,0.47564732777052965,0.37992091594481703,0.2888619773682385,0.2099393548865992,0.2015601487547981,0.2828888417585954,0.3787597320047901,0.4864370245075901,0.5952681679899462,0.7050903064318085,0.8116481217984558,0.9150073933754751,1.0,0.9887462008085143,0.8909863295127226,0.7840071185276684,0.6975317151201027,0.6582326864624931,0.5903579853907724,0.5440544077424619,0.570637938807078,0.618842712984215,0.6372175576724407,0.5774500054069708,0.48620676811989527,0.38462701500916363,0.2874042129312274,0.1902049286025912,0.09477948729992847,0.033126385059587204,0.07755536123293194,0.1810504573662478,0.2913453490873902,0.3991409072066773,0.4967328276779496,0.6007956320917797,0.7058727655108857,0.8044446701606597,0.8557915372797246,0.7978586637040707,0.7136462212860454,0.6150374617286353,0.5351725345911457,0.5090997381847372,0.4688350410372276,0.5042352335235462,0.5617120056355945,0.6246243726881807,0.6472516675618581,0.5833140228484451,0.4944677637159355,0.3971329923466279,0.3085383009022725,PM
0.4257265623606137,0.41018619797709954,0.40568678295035054,0.37298201885120896,0.3305922471721958,0.2652210368181511,0.23449326655682334,0.21484230382893976,0.17730792961902564,0.1045752070257353,0.05976391302639383,0.0,0.05271235983579858,0.1707250653250214,0.24831922744781965,0.3291615577381135,0.32379640842256663,0.2660273123837733,0.25380820808505744,0.3009216056620523,0.3624084379538637,0.4261139526071558,0.4585942042575857,0.5057281902733677,0.605061624230343,0.6870414295903111,0.6853206497327338,0.6844403116752922,0.6042718952527428,0.5233838166183573,0.47767820255656,0.4839794982434653,0.5169648228059733,0.5311857183948065,0.49984043255153976,0.4668577804451597,0.466517050479609,0.4943613452045068,0.5588819099799305,0.6433843141332698,0.7103992839924769,0.6989913102682341,0.6104523376026485,0.5253103727451176,0.4641623721860997,0.4549070563816997,0.47967353875490115,0.5159805020884392,0.5646904501599641,0.5823400183377685,0.5663619057884208,0.5594180025541329,0.5712581518817563,0.5623061532113045,0.5517124841265022,0.5582942656795202,0.5467533685661525,0.49627559548000066,0.41643396861475335,0.3500368101796907,0.3324977311365629,0.3798780976374685,0.42847677585407684,0.44948016600733265,0.4888036123381405,0.5834454221084933,0.6221079275790404,0.549969063142949,0.51472805435625,0.46192289699427924,0.4190218476944958,0.40744258526175736,0.3956807701159901,0.3609435014481108,0.319561401999104,0.2718544580880038,0.2674414630720561,0.3179588169746306,0.3882500762669916,0.46407121916050054,0.541336180983758,0.558067406669787,0.50891051185826,0.4766195462734326,0.4572028992349302,0.4246208552609909,0.4083012102734318,0.4200804468287145,0.43421614361458793,0.43623334418261894,0.42631168339238945,0.41529380922173464,0.43172941645886853,0.46036757675998174,0.5021813074663521,0.5240422805696325,0.49979783139146106,0.45693495108067594,0.39339802787651346,0.35999377890655193,0.3927022165497651,0.4563607856702774,0.5134550074882136,0.5320225838298818,0.5727332311719424,0.6693502428897595,0.6995468490785024,0.6072460807529576,0.5282319418405654,0.555571401179856,0.5437435917937492,0.5028014330975306,0.4625308222586888,0.4474242881323276,0.44106919273047085,0.43671736404582573,0.4039624189951323,0.3936010084164523,0.4392707045450903,0.5122204812339404,0.5995443212822806,0.6676020305612318,0.6145611822029702,0.5320830774707677,0.47035033443184204,0.43264748109178397,0.4203537087438485,0.4234701613846039,0.4710723837484876,0.4794150277757989,0.5109389807819595,0.5679448743295823,0.6501442683855703,0.7329572844180063,0.7757085499943637,0.7249278441454727,0.6351152353498559,0.546921827388422,0.4740011830730859,0.4675395070206174,0.496097215028954,0.5102283019353697,0.504241483789388,0.5306687904133347,0.5750749969528348,0.6175580024017755,0.6691837185554346,0.7306759157437535,0.8143595086297721,0.9218922965940779,1.0,0.9592894317730694,0.8579988825980318,0.7453170387686625,0.6395501438433495,0.5823847055155618,0.5636583455683635,0.5087376039973002,0.4513411859238361,0.4502242130027918,0.5127482734296147,0.5534423892725626,0.5773182281627292,0.5738485129022819,0.5383427879516622,0.496276978529953,0.4783699487313178,0.48770184691982754,0.4905470156245797,0.49753051618724076,0.49053001578328637,0.46514609437122134,0.47935299724654046,0.5130515374719713,0.5292740926543038,0.5669705923998496,0.629193155299709,0.6531248542623684,0.6003020913139396,0.5240569651449878,0.44625684851284797,0.36944950019405454,0.32360740947185285,0.3557937447087265,0.4081184297800009,0.4405956974980101,0.45610042535933326,0.4620883089709511,0.5072560252496419,0.5809097967065404,0.67261508568934,0.7211827815224088,0.7795155334287607,0.867939833640587,0.8567250836504119,0.762099135223969,0.6544247809017145,0.5487529558330535,0.5077594172636579,0.48945833636232017,0.4474538571661073,0.4136223913765509,0.4566633068176289,0.5305479393905883,0.589893044016712,0.6185827626228897,0.6123037856083138,0.6060778462032306,0.6203165424821311,0.6212459025389738,0.6221072539820618,0.6421099498206879,0.6582771775162,0.6181297566472792,0.5709129669457811,0.5290740020790006,0.5120565187859376,0.5675297407793023,0.6497541672689269,0.7337372384040082,0.8095025567761169,0.8053803135359976,0.745792292597526,0.6644486692685829,0.5807677917352456,0.5346341084939521,0.5432371948611521,0.5699096530313148,0.6067698179768879,0.5959651370677181,0.5595336726814697,0.5555780923372784,0.6186862132703843,0.7010317041294409,0.7944807311869968,0.88569422677811,0.8755882198618612,0.8818089480093887,0.9151969650435041,0.8352061867062313,0.7250570373441767,0.6150861620878718,0.5315377192781483,0.5001937090988702,0.45223231494355964,0.3946530341886332,0.33730842439713893,0.3499246097790256,0.40473600995670944,0.42216002876145575,0.43724653848478523,0.46958499523909714,0.4732602814808957,0.48527429450274306,0.48131935478903953,PM
0.19552200590133606,0.20369994532873736,0.20499665049250915,0.19671222983583148,0.18526966669694156,0.16953094099353816,0.14996198120961957,0.12221529808049914,0.10331205288556511,0.0809503129914142,0.07305836532878529,0.07649164420595378,0.09742387995950552,0.12324222097611193,0.12872490082528065,0.13920678295476985,0.17405513851156096,0.23701070104996713,0.3069555503525352,0.377812882027059,0.45439640504795475,0.5259094826896007,0.6031981803503808,0.6748410291870353,0.7509957655906159,0.7895357691514726,0.7372446571950952,0.6668508465832308,0.6058792417186996,0.5511796093786425,0.48848737837710043,0.42202168511313864,0.35414596368137885,0.28575438883295057,0.21460377088061677,0.14900644135907548,0.10601033753109723,0.0890190154807462,0.07766270599470038,0.06793769075919243,0.04852519795796484,0.045137505824755175,0.06336086163778143,0.09978861816236595,0.12798541283338527,0.1545758082771047,0.16982915374761554,0.16479449012228264,0.1613894947016712,0.16274253237823633,0.1719044774952747,0.18311654127847365,0.19288699902205853,0.1841471773477441,0.17511144905204534,0.15871144845060314,0.1397295724929879,0.13152580200218655,0.14049143838858513,0.14946934553420688,0.14864903068614588,0.15337043189002642,0.19132978201674655,0.2537732320393713,0.32348697814572724,0.3962335195461524,0.46764004090106814,0.5448124295908126,0.6166325160367117,0.6939680964261137,0.7697207217856898,0.8346836744378661,0.8216005143136829,0.7508975863554355,0.6816791731472867,0.631831189184044,0.574195555487734,0.51865492367053,0.45197348564856643,0.3829203672528605,0.31387176721180654,0.24361361657103897,0.1695694274944679,0.11151904756791775,0.06753309230845539,0.03997886463988998,0.025107241831903604,0.008210095454146193,0.0,0.01662074989564033,0.0482113733384375,0.0862461358769977,0.11901607800181768,0.12979766828073025,0.1402729181257547,0.15248767634585647,0.1516335775160762,0.15975544202414182,0.1713329760586706,0.1888030188125518,0.20241665762928673,0.19208879038855486,0.18773822392358563,0.16649521948065726,0.150616307549712,0.14449657973444752,0.15425829546906678,0.1512140175475074,0.1322297961981087,0.1130455827762129,0.12424100590091536,0.18405561731546305,0.25444182625877887,0.3252805839383832,0.3986906599361597,0.4717940951011146,0.5438750659093388,0.6204882658686954,0.6952664145120311,0.7332916585820191,0.6836002827840262,0.6180283097025887,0.586463392425002,0.639238422215842,0.7115628009036845,0.7824099243517755,0.8531532635229189,0.9181800479106044,0.9183745139998005,0.8559231952604747,0.7818691940380766,0.710371778189252,0.6331916355681049,0.5613844674735677,0.4839845316857021,0.40429723803352013,0.3288344811813393,0.2577758709096889,0.18962041320668566,0.15273701028249675,0.16831939764861348,0.1867871304776958,0.18745480887310562,0.18030549473489477,0.18494419818620456,0.20901632886101007,0.2213104919894684,0.2336252094532607,0.24097001197773715,0.22175553923728275,0.20193090050807516,0.19356200157020798,0.18364874245332863,0.1837608108779596,0.17420599102489898,0.16585720786262126,0.15215621471518537,0.11903404599730383,0.08279561562945137,0.04775012091409048,0.036817128772552055,0.050874747298080836,0.06340630822359228,0.09226452879428715,0.13567169786584077,0.1954884227618785,0.26251926785378954,0.33082023531898486,0.39412575377523806,0.4577800332232864,0.5275272638631612,0.5832885304429878,0.6422858253811556,0.703957419211815,0.7730100437517908,0.841447070207094,0.9099724906800608,0.9802872553300377,1.0,0.9421563871287688,0.8710508472862033,0.7980299620008027,0.7378466103768209,0.6700487968530955,0.5966971975275945,0.5187664041347508,0.44730106704950323,0.37177744344721564,0.3017271881052459,0.23285036157730388,0.1897791316854156,0.1837046230325643,0.17941406860134923,0.1745480535419046,0.1674141369224702,0.181534602732093,0.20178590370276028,0.21384015976133863,0.22071547383416124,0.2172571872213458,0.20847821840489522,0.199973356432104,0.19893730515764463,0.19893574911752543,0.19837511287338971,0.18713105315632395,0.16310173263660932,0.13613251570074714,0.10217448362849968,0.08293745955286935,0.09896892764726628,0.10569831982949318,0.11171746057723064,0.12804747016766793,0.16293536085687266,0.22161187793525539,0.2875777550615408,0.35723150935441006,0.4300512410406876,0.5013077237206014,0.5643868771424332,0.6183126782463879,0.6772676558158595,0.7415705882107391,0.8101070701835913,0.8809801565024333,0.9552135908089547,0.9834220251881574,0.9309720363820579,0.8564336191185182,0.7847885217630663,0.7074776387879815,0.6360083077957635,0.5594079796951217,0.48780368334145274,0.4113591174832858,0.3398244002466635,0.26738082504972116,0.19820639949300212,0.16778082765165214,0.1642184590003839,0.15014694844640308,0.12362098182463477,0.10274202329507442,0.10320617809061927,0.1256107696610118,0.14542589836338693,0.17096412584776877,0.19134427569980805,0.21268592479233983,0.22551005675282343,0.23233900112244754,0.23803697934130108,0.23709580867075042,0.23337538640401734,PM
