0,1,2,3,4,5,6,7,8,9,10,11,12,13,14,15,16,17,18,19,20,21,22,23,24,25,26,27,28,29,30,31,32,33,34,35,36,37,38,39,40,41,42,43,44,45,46,47,48,49,50,51,52,53,54,55,56,57,58,59,60,61,62,63,64,65,66,67,68,69,70,71,72,73,74,75,76,77,78,79,80,81,82,83,84,85,86,87,88,89,90,91,92,93,94,95,96,97,98,99,100,101,102,103,104,105,106,107,108,109,110,111,112,113,114,115,116,117,118,119,120,121,122,123,124,125,126,127,128,129,130,131,132,133,134,135,136,137,138,139,140,141,142,143,144,145,146,147,148,149,150,151,152,153,154,155,156,157,158,159,160,161,162,163,164,165,166,167,168,169,170,171,172,173,174,175,176,177,178,179,180,181,182,183,184,185,186,187,188,189,190,191,192,193,194,195,196,197,198,199,200,201,202,203,204,205,206,207,208,209,210,211,212,213,214,215,216,217,218,219,220,221,222,223,224,225,226,227,228,229,230,231,232,233,234,235,236,237,238,239,240,241,242,243,244,245,246,247,248,249,250,251,252,253,254,Target
0.8314786488986976,0.7770952304570211,0.6996703082497429,0.6171170103237382,0.5353477524609569,0.47207912431170795,0.39495456120735684,0.3124019723656022,0.22984371084985122,0.14728544933409982,0.06476633148812416,0.0,0.034854848989958054,0.10632889031508563,0.17106249520130312,0.24637235624873055,0.3225476492415855,0.3861241896521057,0.44623041355529347,0.4643103556461283,0.46460938541464136,0.46460920814357953,0.46318733361796083,0.44329527593947793,0.4390942136467708,0.43908836370171267,0.43419250214746485,0.41426028816878313,0.3976957962850274,0.4030818293146612,0.42200465416241917,0.4386652796900301,0.43143156401209604,0.41396579053178373,0.41357336920490395,0.41357336920490395,0.41357336920490395,0.41357336920490395,0.4135667256944413,0.4080488759870895,0.3744518516119242,0.35990870151800136,0.3387522986086178,0.3370018116726299,0.33147000690845063,0.3298566917513601,0.3135365151072089,0.3103958090606054,0.29080496353811247,0.28598758318605944,0.2859833286805613,0.2883697941463166,0.3199493498421311,0.36925904844394397,0.4165904592852052,0.4790778480996596,0.5338827878199282,0.5808769850486448,0.635668533292645,0.690747058422795,0.7398534804354049,0.7916925716887646,0.8348472219866863,0.8842767356582732,0.9150202414518902,0.9177824204846963,0.8890910399842604,0.8402635128165961,0.7909245398325333,0.7487186974275004,0.7009560628311164,0.6433552080766733,0.6066081551452753,0.5669607118598283,0.5352251474167091,0.5135261079955371,0.48853915101001677,0.46598415474432686,0.46271254751017876,0.44236867159770865,0.4390892500570245,0.43442178229521256,0.39911352420096113,0.3478707037664459,0.29329372669924103,0.25374743361822416,0.2805179430161888,0.3461167532076179,0.4082929430680875,0.4706415913967503,0.5436116770465937,0.6251053630159054,0.6880624946986464,0.7657248946601505,0.8452486743656462,0.8892446357045025,0.8731107952785311,0.8179930811319118,0.7499018936653346,0.7079165622582342,0.646387236071829,0.564579934813715,0.4820216732979632,0.39946341178221223,0.3169051502664604,0.2343468887507103,0.1517886272349589,0.06955851608833186,0.027667881361869373,0.09052227256396028,0.15218747443396863,0.21244692905115814,0.2742427626270012,0.34866350840499427,0.40902939400486416,0.45518375213389595,0.4684638624009021,0.4861832556014014,0.47332569624584897,0.4895529690387961,0.48443967888995365,0.4655793107409756,0.478068800482641,0.471125119685738,0.45208922015255704,0.4391983160914026,0.4392576188097679,0.45631600743353795,0.487448539703053,0.5011132578528126,0.515414203302496,0.5156454016243788,0.5156454016243788,0.5156454016243788,0.5156454016243788,0.5156454016243788,0.5156468197928779,0.5192067710037622,0.5321594402966583,0.5161365871436616,0.5230315645706267,0.5281695838567972,0.5137036222238627,0.4988440588928422,0.5150116463992753,0.5094820276170675,0.46824331736335667,0.44237008976620684,0.4359291522021391,0.41551947478472373,0.43018248611514087,0.42963140382809106,0.4455174209946873,0.48306886149253225,0.5318431810215993,0.5665057172843162,0.6196254293078449,0.6745408594444142,0.7302206096613646,0.7932871656409728,0.8562301220231396,0.9122632759686433,0.9562676291529502,0.9932506069266211,0.9999999999999996,0.9792297014433742,0.9382786137297736,0.895248077923704,0.8337737686180904,0.7889270720462274,0.7468057566566206,0.699001395163338,0.6653487381629808,0.6348224548142025,0.6073858134502497,0.5870605119993741,0.5672456726973008,0.5501489954431853,0.5411754641614901,0.539899619968494,0.5201261155407262,0.5075925867615765,0.4872064197819115,0.455030412816781,0.46230898952040667,0.5273190095294082,0.6094217512349647,0.6758894594653619,0.7492489167779293,0.8268091046956703,0.8681577027261436,0.8577650644324204,0.7892541222835949,0.7448090200368216,0.6938488075709413,0.6126138324228791,0.5300562799913764,0.4493941472958398,0.38717976169255897,0.30789808538049135,0.22534053294899037,0.14278227143324163,0.06085019274251913,0.02912285814237725,0.08274511204310464,0.16154809568738804,0.22431105817538066,0.2807168058590137,0.3430508417881595,0.41274079681306786,0.46937500378928343,0.5033994550772642,0.5122715378799101,0.5004884576473843,0.5149499380584355,0.4996134477481795,0.4901626538434196,0.49909376905850644,0.5317605247043553,0.5168351469915158,0.4924795016341741,0.49012739351951007,0.49012739351951007,0.49012739351951007,0.49012739351951007,0.49012739351951007,0.49012739351951007,0.49012739351951007,0.4896298330008535,0.47180678074434246,0.4816879588498293,0.4897606266441561,0.4740488672064225,0.4550013884247597,0.4391048715807506,0.42556052510979514,0.4112849628869415,0.39034858890210566,0.3770178189582851,0.3569921587782603,0.33785683763703345,0.33435103681393885,0.32824201416375365,0.3168941354339396,0.3115070094594272,0.31166757828542524,0.3287380213414388,0.3693585836017843,0.41158156488342934,0.4764559614754664,0.5313976980973183,0.5754097681374142,0.6381866134139549,0.7008056997388947,0.7549246245840915,PM
0.2546832466802955,0.24258957394824643,0.23778502888346575,0.23362383151745414,0.2229659866107414,0.21577242576836375,0.21472348252897588,0.21962504557307572,0.22573473706690006,0.24566371192125303,0.2607265046685989,0.2739294920105546,0.28715842893406607,0.3051797447820843,0.33480010975269914,0.36755379932381316,0.3963899669575157,0.4168306025061197,0.4131489079816051,0.39139540602229084,0.3566760471992383,0.32003944505259296,0.28456293522262954,0.24749629880021273,0.20987106008662226,0.17227108388126622,0.13509223436460216,0.10123731048462958,0.06923503849050916,0.03665036901382246,0.012619446807963453,0.0,0.007420021950820699,0.008303164551113129,0.014960281494530214,0.02481435365669582,0.04525995117276027,0.0799873443628274,0.11789110876688413,0.1608016150272349,0.20190351675672158,0.2447801279774191,0.2919193679467602,0.3344284254287673,0.37590171605641953,0.4230230520016176,0.47024210901895724,0.5173828114578805,0.559237294527247,0.6013614593997483,0.6454952828591183,0.6854455990332959,0.7310771172207637,0.7699785499948368,0.8162254775575128,0.8634382838730943,0.9080997001418387,0.946901301130386,0.9700009360334141,0.9494361603345087,0.9039341151916513,0.8645135380649132,0.8195842487430722,0.7731250360113995,0.7340884023442324,0.6885677676092388,0.6458921611807815,0.6045613376415262,0.5574558312484852,0.5117896063842262,0.4727897857071932,0.42638656688601384,0.3791678855897356,0.33194882857239616,0.2847988870484479,0.2468912620757695,0.2411443721216413,0.24102919042717375,0.23339468671908126,0.21346686901780343,0.20163763852884564,0.2029965077989604,0.2269939455887331,0.2386419730567173,0.2376610718767289,0.24123286223088236,0.24755635412584343,0.2530321050136033,0.25872094838563786,0.25029100914542735,0.24167582959989864,0.23541985296360446,0.2305786583469871,0.23055163164431192,0.23395729882075877,0.24563501081219896,0.26251182243114357,0.2748950748784189,0.29020488038144987,0.31697970712388757,0.3417262638070653,0.37369404667782313,0.40386703257000556,0.42603548321136797,0.42763939599147305,0.4057034874140215,0.3746380974398571,0.3362002745781896,0.29694796644051213,0.2614937932449817,0.22605150692563591,0.19063475324354484,0.15739509837436705,0.12296517660258277,0.09147840199731405,0.06673684020544757,0.058309727590228455,0.06141656924269423,0.06899089993370544,0.07438958048657662,0.08955428202538451,0.09832732578837122,0.12522045700410245,0.16643141160079433,0.20647535030802833,0.2502637834169996,0.2904997711141122,0.33397266716645424,0.3688833831484133,0.4018468817446066,0.444256855727609,0.4914175336635176,0.5363249232980012,0.575760247520055,0.6224894127176888,0.6695764845278855,0.7106211402083118,0.7522973990388078,0.7911586019551216,0.8374055295177971,0.8845881550697441,0.927061421103716,0.9565982207346733,0.9434427578436511,0.9061566797679261,0.8610772276171135,0.8158779091326216,0.7766647919810392,0.7307647346780706,0.6917282984236643,0.6462076636886702,0.603532057260213,0.5622012337209581,0.5150939837583817,0.468047042798553,0.42722360279392824,0.38400047909113244,0.3376520691151246,0.2988360205461922,0.2660871049027951,0.2611039680014402,0.25257140013130885,0.24212641072242125,0.23107173657866364,0.23827252136342625,0.25687523883584307,0.2775758292365851,0.29021130493309255,0.29404828025734453,0.29502070002841463,0.30327580112282493,0.30466237263924056,0.30442887244539785,0.29752933967015016,0.2922798763139116,0.28163329141607396,0.2698619536182154,0.26312728184265577,0.2695620998251478,0.2693774581711923,0.2817986975239928,0.2944093871054352,0.3066077860591665,0.3193575029524012,0.3439142991026254,0.36870000838903727,0.39695213769340687,0.4249417860312199,0.4401412752469158,0.4233346086800265,0.3965691345070914,0.3673152444495851,0.33293121889796073,0.29949048752133356,0.2628303568666561,0.2276382601424407,0.1933987127304102,0.16122489820237118,0.1297991452938949,0.10550274787143299,0.09838902382120951,0.10805058112548083,0.10479627595989816,0.10917610335165051,0.11433538045121727,0.12559902056935024,0.1512445710814707,0.19356440821117404,0.2406900608858078,0.28283255669673557,0.3246696153190667,0.3705700536049894,0.40945152059347967,0.4556660731411144,0.5022763600698261,0.5414007909848499,0.586735823653799,0.6329785491181306,0.671906478112263,0.7136394682398253,0.7544545016985764,0.7953425223882675,0.8383169445432324,0.8854956905088542,0.9322994316227073,0.971624415410937,1.0,0.9847856202839447,0.9447939336469648,0.8979776561470652,0.8579089461669018,0.8138430890661303,0.7666382479219904,0.7194204255354921,0.6733386127611083,0.6344284539693366,0.5883515109078763,0.5411406124655773,0.496234125722538,0.45682003230764257,0.41006587558432783,0.363377045321555,0.3240262350137848,0.2837221571829349,0.26681407006866564,0.26113054775344935,0.2520725871572498,0.2424363432248382,0.22979563166293704,0.22787783703040687,0.24505719530923953,0.2516099249057686,0.25115134152262675,0.24326906950299176,0.24492263797749558,PM
0.0781580445378749,0.08737339854616999,0.12233620703303205,0.15613528786958653,0.19147056254449768,0.22692434114531568,0.24090391473421224,0.2683323684039096,0.2948648257656068,0.32694443290080555,0.3529091420845658,0.373541370445335,0.38537744463182677,0.3804552513177848,0.3462429989721041,0.30179447876975884,0.2612300944937729,0.21277805011953022,0.16697506452887856,0.12462366664188407,0.07497463046890251,0.030878385265880715,0.0,0.01638610086558523,0.05890150515840675,0.10871713167965602,0.15860538838837424,0.20404825916751168,0.24670938340929016,0.2964924974606127,0.3464133793357289,0.39633426121084514,0.44625514308596115,0.49612843338430146,0.5406643230448891,0.5842026646405456,0.6340305088669176,0.6839513907420338,0.73387227261715,0.7837931544922663,0.8336947034461288,0.8787469505009287,0.8812498523208974,0.852362552678791,0.8128988729567466,0.7678758373070247,0.7179947236578053,0.6684729876609876,0.6270918131638039,0.5801547879204194,0.5347812853946339,0.49233165557539493,0.45071744814478487,0.41095633882707894,0.3811842056035204,0.35646221981891113,0.34045795844915006,0.33676408455162243,0.32825803526068564,0.32782734120283097,0.3279033191645566,0.33393646104564545,0.3505984672575593,0.37350768332585904,0.3904025136802234,0.4053099118977286,0.3943389835820619,0.37737600886292233,0.37223759411574764,0.36390578616839964,0.3645595776090058,0.3739959118862972,0.37514363827001773,0.3657205205857763,0.3528825651469214,0.35164469377544694,0.3528941329051791,0.363820816153563,0.3745749471101356,0.3827494501156199,0.387342623525573,0.3852617250684629,0.3766487120886053,0.38459455456006064,0.3839702459382637,0.37576295452591535,0.3754599541966477,0.3754599541966477,0.3754599541966477,0.3754599541966477,0.3754599541966477,0.37480175009813843,0.36562828099124633,0.36355573322227275,0.3635517924771392,0.3635326098560743,0.35743322799302324,0.32610860524401675,0.2939029343006285,0.27190766373994024,0.26023667579840826,0.27445059639237046,0.30715784956637737,0.3392563096987615,0.3607180498638418,0.37082276105436573,0.3735844831400774,0.3496596565179726,0.30721016428099923,0.26407943904441544,0.21430283225929836,0.16438383195483963,0.11648369981960083,0.07995350364874043,0.049796055906802694,0.025518693832284445,0.036435835369972525,0.08003304364755981,0.12051101529222352,0.16900621131946902,0.21892600092687275,0.26862310111008947,0.3107487905917212,0.35679644515778586,0.40670136670782964,0.4566222485829452,0.5065431304580619,0.5564136995908782,0.6007722021430681,0.6444839112098193,0.6943184962390183,0.7442393781141337,0.7941602599892508,0.8439426623609254,0.8737077136732943,0.8413388350377353,0.797743728754094,0.7479285733135104,0.6987031597316715,0.6579679025782625,0.6100703505732357,0.5605795095723591,0.5193313168668228,0.47221652401870484,0.42469048705506296,0.39014246754674153,0.3657252905483044,0.3433468118590477,0.3302878292225875,0.32778819950439186,0.3226494664280737,0.3179466175851955,0.32784030855980006,0.3404881937702724,0.35453693881634507,0.3734917959279316,0.3908904338486885,0.40374519409562315,0.38420974662534046,0.36090895128527634,0.34093128817588503,0.3295035348336903,0.32990459585454324,0.3374269016554263,0.3286876699126735,0.3292369831910329,0.3385778866670157,0.34174954496968857,0.35094500817847774,0.35433269780289023,0.3631073225815631,0.36520203513358984,0.37448501908968623,0.37771526263745714,0.38682130840966455,0.3873681159161564,0.3873681159161564,0.3873681159161564,0.3868946972043217,0.37889720611921485,0.38135391311469413,0.3791064312586947,0.38659774877211506,0.3704822903002618,0.3390101759002788,0.3133055150596429,0.2942930226609499,0.2967696752142197,0.3257332330439513,0.3596092338907617,0.3813908869574678,0.39826374780511364,0.4117085097770439,0.41043170213947566,0.37972634291616614,0.34043433100038945,0.2914499238760144,0.24675256403017576,0.203345345459927,0.15354955635034573,0.10543632966882388,0.06483607500117117,0.019792193805763247,0.009227455695198117,0.04203543068839788,0.08400779346150555,0.12993521348043102,0.17983921128283842,0.22975980613870295,0.2789123011154522,0.31955548137556966,0.3676163230975842,0.41753545893891175,0.4674563408140284,0.5173772226891438,0.5672981045642609,0.6172189864393762,0.6670293232980273,0.7106038005903743,0.7551281696778869,0.8049943522203327,0.8549152340954493,0.9048361159705651,0.9547524762370929,1.0,0.986451303184567,0.9372449953169912,0.8873241134418755,0.8374032315667588,0.787566961336855,0.7438119104023286,0.6994952225306648,0.6496330964268102,0.6022768002040308,0.5618571531484604,0.527974024990495,0.4949850547088275,0.45503890392890867,0.4200561986533491,0.39521247514279834,0.3727705122134144,0.3598655610188852,0.351847970584773,0.3468340543632027,0.3399196537096867,0.343970713225757,0.3537633033547358,0.3659804494811052,0.3870917609529021,0.4114536148576733,0.42139514134310607,0.40555244409238855,0.3897600304948161,0.37998618035065457,0.37549274943589106,PM
0.21606802342337628,0.25889873067590763,0.3032858047151086,0.3506866070392114,0.3940126213678077,0.4437888820153526,0.4922624208604405,0.5349891767066792,0.5844407011944275,0.6345974432675037,0.6846147884766032,0.7290489858364004,0.7752851563707617,0.8254025455391722,0.8753146407576275,0.919117431807263,0.9648506641111585,0.9853096424838175,0.9568671245295859,0.9103490026607204,0.8678010643868082,0.8215492097854937,0.7778750467792916,0.7299185622099575,0.6870469670906998,0.6374954784726714,0.5896801184035507,0.5465839397371297,0.4968387019544642,0.4466815763421659,0.3966086254718253,0.35133208097609536,0.3059586550027247,0.2558765793633304,0.20614542380051515,0.16567588107612385,0.16173404926572887,0.18080475338154467,0.17525820224937938,0.15949912799016341,0.13821383042500512,0.1238788954208887,0.10914773355337726,0.10076410266261204,0.11525199048169577,0.13058094284594723,0.13928525024787408,0.15240967808311745,0.15447736661939437,0.1442605592003101,0.1446547706183563,0.16244169798764263,0.17385392018466206,0.17061912391505873,0.15720649220452887,0.14292399743060313,0.12467716753691627,0.10037107310795479,0.07225491817076102,0.04690153129268593,0.02150158707056571,0.005502379996512152,0.008719947971525421,0.022624016343655518,0.03785137307793773,0.0580346282334514,0.07730833422765127,0.09274683469292477,0.10804994750580588,0.13695164002999016,0.17559799056066594,0.21739035804002493,0.25980103738451077,0.3079272494605394,0.351358244608607,0.3987270130204872,0.44669380424982186,0.48968596499997297,0.5393683787176247,0.5894622868390893,0.6350873304297211,0.6801195810127771,0.7301733485241171,0.7803298265288892,0.8295756637959901,0.8720925185214903,0.920971155425715,0.9684972670665568,0.9999999999999998,0.9927633735807262,0.9537532253591714,0.9113775374582074,0.8624985783930932,0.8125184974709667,0.7684007467528302,0.721830071638834,0.6732873963442476,0.6306071131355353,0.5812039347810918,0.5310811963870388,0.48460542680791296,0.44038153367453203,0.3903992717956488,0.34024417066340606,0.29148000931615115,0.24890789175969208,0.20019610586537917,0.1780409707359336,0.20224384079927327,0.2127312408883104,0.2050602118181668,0.19278330749394157,0.1833481992792707,0.16925295202609814,0.15380202846203628,0.13955291505997414,0.15238112584404262,0.17568460964659804,0.19218962427342023,0.1922534456458993,0.1807373263423946,0.16489284900936751,0.15106879212717472,0.1390975803178327,0.13236248812941742,0.11931164407513295,0.11555152121654633,0.10777701670029471,0.08742764944461157,0.0628219021217018,0.03564888097333063,0.01333635563110791,0.0,0.008985887933641967,0.024284481188133533,0.03878183106995259,0.049475062265079695,0.059760197247085145,0.07701324109385554,0.10383619282766832,0.13939069836877804,0.18068024482659384,0.22330541808071347,0.2690005156828197,0.31343609502920766,0.3587689279461366,0.39229665703089567,0.4346431406574285,0.4844728278846753,0.5346299002844666,0.5847870258967653,0.6349441515090628,0.6850998078740813,0.734042101288441,0.7766300607837373,0.8257504690296906,0.8756525781666331,0.9190979363020662,0.9530544126757612,0.9460848149275314,0.9041515607675199,0.8596168108585795,0.8158922900187526,0.7721264111680426,0.7284152117693228,0.6794620374844558,0.6368365654618782,0.5880209407460109,0.5380331465033168,0.4938152089625085,0.4473481824452772,0.3972178672129876,0.34714971218239654,0.301934241164836,0.2564979107871508,0.2064128770272382,0.15697546546621122,0.1326540172848909,0.13544357667466245,0.13363615080608993,0.11718908264231653,0.10614690191338738,0.0980973747343501,0.10539446920307949,0.12568962370264547,0.15172163555361684,0.1709935252521675,0.1735866064663456,0.1659171073107928,0.1605193488595511,0.15372390588569163,0.14611611616112596,0.14533480523590758,0.14533320438549846,0.14419045432549527,0.1283205594888348,0.10052755300043437,0.07762507004699937,0.05149191983468615,0.025718304183665053,0.005781628047889065,0.0038126185460569673,0.018010988031341713,0.03144511606658584,0.04407337315313087,0.05566834709218704,0.07070060470733042,0.09807524570376946,0.1345752858340341,0.17564811490890198,0.21880445173854923,0.2649489223030803,0.30892566902209184,0.3556410376459811,0.40574848161223387,0.4525996772255716,0.49647727572725064,0.5464179804974958,0.5965357403929612,0.642664019218117,0.6872076819758235,0.7372227340574173,0.7866943215802726,0.8294577838805257,0.8777776710201397,0.9193285259065076,0.9184216071321056,0.8789784899432787,0.8338020453693267,0.7887740034346742,0.7437064883502542,0.6985879069012249,0.6581368460717749,0.6252309024025038,0.5773170985844149,0.5313444164255181,0.48667561591499253,0.436627037336937,0.3864922826329258,0.3395373149642711,0.29573403028372525,0.24582321775015248,0.19672965676704846,0.15416523707430363,0.11058052678258279,0.11122981063957993,0.11925054097749443,0.10785012327340793,0.09912179713965674,0.08298211553250723,0.08299117614801932,0.06317287835071017,0.06048916999597065,0.07713355614635775,0.09325133100100103,PM
0.14967326678277526,0.17426282258536518,0.2084568297876398,0.22620077104172331,0.2099410088046323,0.2286628028460842,0.22469590660744765,0.2049256248829674,0.20317931790090393,0.22801005975043998,0.26028189518389855,0.2928902096335908,0.3113494301819886,0.29525625787215803,0.27540274669695575,0.26110173293140204,0.24748392978204703,0.229527819320007,0.23258379024892273,0.25289974904430945,0.26687697073925976,0.2954995175950028,0.323591487576276,0.3308779431931268,0.34227522287303636,0.32097724278191975,0.27859430727547174,0.23469112915924417,0.18653120494408415,0.13722430326105295,0.08791353098889321,0.038986806161041,0.0,0.004978515259914773,0.04681920960499453,0.09586372050585046,0.14170554471735386,0.18799617248676337,0.23725217595427495,0.2865631574433334,0.3358741389323918,0.3851741961665254,0.4328004366142595,0.47751521467058033,0.5264792272595247,0.5757900282785757,0.6251010097676342,0.6744119912566928,0.723722972745751,0.7730319732919084,0.8214980972374475,0.8658461395073369,0.9143298691451929,0.963557537001094,1.0,0.9726808081282265,0.9236745766718166,0.874365623698856,0.8258896549530494,0.7815418607927893,0.7330677503379541,0.6837586873256323,0.6345529931755123,0.5888169929790446,0.5424117474408965,0.4932785317509534,0.4477469750025316,0.40115153927601965,0.3544129354438452,0.31721534669719365,0.28662017183405997,0.26621312782396145,0.24343746907311758,0.22496682245519173,0.21621002987915605,0.2227912939252168,0.24267001724131632,0.26748756034951127,0.2980110023943179,0.3243324743418037,0.34004067952174655,0.34520603010430784,0.3390206092043524,0.33245215627757063,0.32401448163245106,0.31090380896289593,0.3289000194221112,0.34807174530585017,0.350591962257393,0.34408415278782667,0.30751654004814344,0.2636768510574532,0.21798273054740258,0.17766434746792703,0.1319853463571079,0.08281898698278001,0.037777023509914076,0.014379583257451367,0.04338414675909208,0.09140377769999464,0.13281201915620466,0.1711167936578989,0.21970496246910098,0.2690153213696136,0.31832602999457293,0.36727745024967096,0.41195541161897165,0.45962949955761645,0.5089312107157977,0.5582421922048566,0.6075531736939146,0.6568641247128371,0.7059915061078255,0.751203502234143,0.7981728314508989,0.8424253447367698,0.8351470291521139,0.7903304689046935,0.7410885612638094,0.6918031660624953,0.6448409766839593,0.5996148758124966,0.5504840496377379,0.5016064467671677,0.45704446709725843,0.4095831284575766,0.36504079104969644,0.3208329470949054,0.2861110925810726,0.263996496618746,0.24793602526026337,0.2330674691889023,0.22055472588350322,0.2149882834794038,0.21985483736491584,0.24509711169631565,0.265055800614036,0.2749149247298053,0.2811080885952226,0.27771504524556634,0.2720452826287849,0.2611173451912885,0.2503071072694718,0.2640618298342372,0.28930487012434236,0.2914325460569773,0.2952955948205569,0.2675705260853636,0.22394502990240728,0.1763935150871755,0.13191798994737558,0.08334628898777696,0.03857494307805209,0.008447332387616968,0.035179358834273255,0.07909501041553957,0.12730830719681163,0.17661581064909138,0.22592679213815026,0.2751960859201308,0.32178903533007097,0.3673433080171631,0.4165316999952762,0.46584268148433483,0.5151536629733922,0.5644646444624513,0.6137736075289102,0.662234939568872,0.706583658041886,0.7550715168776243,0.8043805338086361,0.8536915152976932,0.9030024967867523,0.952042163533444,0.9801778412354865,0.9452320273310635,0.9009709098667196,0.852492007506306,0.8031829070142869,0.7538720597023274,0.7048515216646272,0.6600175534601658,0.6125649482981597,0.5632818653271945,0.515854503701151,0.47099887191246936,0.422390814145601,0.377870954326863,0.33320753502117784,0.2889011698815447,0.25506663295749066,0.23459240651508195,0.22005586101462016,0.20009069229604382,0.1794249039098842,0.16865732985890647,0.17940350666586202,0.2035388037696656,0.23253824082582875,0.26410058093242283,0.28070284590488614,0.2881237479682257,0.2885164475724269,0.2844756302298175,0.28338702224927714,0.27574207506384796,0.2711994423776629,0.2970414998522781,0.3146148524234187,0.3157669550208706,0.29742231203343916,0.25606051292190046,0.20952818466445233,0.16518790265588468,0.11678407348285513,0.06755514187708889,0.026266455046060733,0.032201640804437104,0.07414801563091367,0.12026515401977222,0.1695081559782824,0.21881913746734116,0.26812454443985434,0.31612344524836367,0.36060728086872773,0.4094246351955606,0.4587350268135262,0.5080460083025835,0.5573569897916422,0.6066674770656026,0.6555015594420686,0.7000167426623143,0.7479682927063986,0.797272879137827,0.8465838606268845,0.8958948421159434,0.9451046525098994,0.9803572003007426,0.9548689951440552,0.908850662857801,0.8596015431741546,0.8102905616850957,0.760981768607262,0.7125922643442477,0.672547855963942,0.6339380969613273,0.595163795788701,0.5557348432590334,0.5160132387337497,0.4689124147321002,0.4216489226185285,0.3770504211589858,0.33277577473574427,0.2917600172889432,0.2626504639741172,PM
0.637894119413433,0.6572113754095393,0.6836710843215602,0.7041933905842063,0.7205423525563749,0.72117276938259,0.7192665763228577,0.6961391208242398,0.6771354459124668,0.6542744562310204,0.642759154572762,0.6361030058321678,0.6524804940726011,0.6803021571488932,0.7090379683225565,0.7330568382274424,0.7408052459532668,0.7426421606084828,0.7472530489227763,0.7469268032206026,0.7371905171843065,0.7323622118268325,0.7354703407653561,0.748961557378796,0.7349020296622026,0.7088429258572134,0.6724590934481457,0.6379326680067426,0.6008204906342249,0.5632849777661362,0.5288651909854111,0.4914162011306703,0.45385247779192994,0.4194288108709426,0.38200812070061857,0.34419074296809715,0.30959322894436275,0.27259922745139753,0.2353071833727538,0.20086240380810444,0.16413530644978008,0.1296481948970022,0.09296474531228367,0.05918372235322006,0.04459862626490696,0.07193717770219636,0.10960926867081909,0.14774250882106182,0.18587631511526975,0.224010121409478,0.2620667952835651,0.297533518453393,0.3334581969774906,0.3715509343597957,0.4096847406540037,0.4478185469482119,0.4859523532424199,0.5240861595366278,0.5622199658308358,0.6003537721250436,0.6384875784192517,0.6766213011146976,0.7145156400127417,0.7492534867003003,0.7860374289156408,0.8241600082629619,0.8603488408483924,0.8637398390453154,0.8353697964596768,0.8118598370180068,0.7966153657322713,0.7923452924350367,0.7982639405955138,0.8099315287607346,0.8287559244309457,0.8539608247119249,0.880199431856515,0.9089042419504176,0.9385586104688898,0.9686998811437714,0.9966268514204836,1.0000000000000002,0.9717203681104546,0.93910836611388,0.9059954076987823,0.8736173345900016,0.8404618933925988,0.808609334512261,0.7786121890767073,0.7520046760259583,0.7302621695186443,0.7209966894134408,0.7235715575717617,0.7268723341807903,0.7358273146631057,0.7408619949039685,0.7409589215495359,0.7413778160798581,0.7424028836788419,0.7316408411370511,0.7257583546182305,0.7246672664542423,0.7395002211143404,0.7425427399238924,0.7149243327311173,0.680659888424084,0.643052485614395,0.6071353217990544,0.5716624812605138,0.5336055670819319,0.495919478397291,0.46145970655732393,0.4242304603100334,0.38820925900387426,0.3528342963647371,0.31486431049018515,0.2793413022069741,0.2434721497329475,0.2053964083111991,0.1687333500054226,0.13391158748675658,0.09710965515654495,0.06252431503188223,0.025647383552353395,0.0,0.014695036869940434,0.04846747222782741,0.07971950515491087,0.11509818379815633,0.15320698337477773,0.1913026360685383,0.22612096932034215,0.25797421177222857,0.29575351427163665,0.3338871903927892,0.37194386426687676,0.4074105874367042,0.4433352659608023,0.48142800334310687,0.5195618096373155,0.5576956159315228,0.5958294222257312,0.6339632285199388,0.6720970348141473,0.7102308411083547,0.7483646474025633,0.7864984536967717,0.8246319248910338,0.8623636959697235,0.8882191251210602,0.8695994198617844,0.8378834036881018,0.8124503861989852,0.7945710394454795,0.7878501032228592,0.7935370311785787,0.8028455907341645,0.8212933234801991,0.8418425187772539,0.8686067879699936,0.8962834971342044,0.9253373062410198,0.9555073741395087,0.9833680694021508,0.9924346055087053,0.9644830188885457,0.931804012521691,0.899105162464257,0.8660312065489219,0.8335037303713012,0.8018625351006264,0.7720135557905863,0.7452751905367009,0.7224939082169448,0.7116875907056404,0.7079179883369388,0.7087557469329614,0.7210850288014401,0.733663657288644,0.7415281423088583,0.7486035105989345,0.7483952418413922,0.7496345985633797,0.7419048978304478,0.7388174090808982,0.7430948653544277,0.757423424510213,0.7484337046634807,0.7155693603735382,0.6793015832844431,0.6418643709284052,0.6074537200031085,0.5699175497714889,0.5324293663888414,0.4980173398886397,0.46057191919556073,0.42495576552664927,0.389184550957107,0.35116081247465886,0.3154927341290596,0.2797835846324836,0.24361658325835467,0.21455578281447407,0.18035331892821904,0.14490659765466746,0.1094070663454758,0.0768390797797316,0.07332612357341879,0.10452495185307754,0.14233699372282838,0.18046582262722588,0.21715553337610183,0.24794651315429772,0.2848865105340242,0.323016999076258,0.3611508053704666,0.3991349669443386,0.43218162111944114,0.46346815013083975,0.4987865086980291,0.5368366001619646,0.5749704064561719,0.6131042127503805,0.6512380190445879,0.6893718253387964,0.7275056316330039,0.7656394379272122,0.8037732442214209,0.8419070413490564,0.8799068786272829,0.9125352029453075,0.9093065007914574,0.8772218954001844,0.8475296423434576,0.8248733188675316,0.8116703969055128,0.8118639952489015,0.8166252267971097,0.8274581418178609,0.8450127404696868,0.869725114869831,0.8956636593612993,0.9249059824984017,0.9539329446219892,0.9821778120524974,0.9939467863011943,0.9686068790054697,0.9362378667172301,0.9035304203975285,0.8703034976576987,0.8384448448306432,0.8073658497029621,0.7784368755259449,0.7541872437292314,0.7351532991302203,PM
0.22170640124877106,0.23975310209256495,0.2575613793844789,0.2656560859354098,0.2561641829228565,0.2700599358617173,0.3061846852130088,0.3486646523620429,0.39275713214576125,0.4358847919280455,0.4831889601650654,0.5250471025524488,0.5708093267635388,0.6186129325961267,0.6661332055087941,0.7081946376185937,0.7536629079084367,0.8014631889546213,0.8492764235019794,0.8970701143018294,0.9422622649026942,0.9839119224687412,1.0000000000000002,0.958598257514143,0.9107983154600989,0.8638173988548876,0.8223916413676353,0.7757588052572733,0.7282263285041919,0.689492186868848,0.6490787297457545,0.605579895769877,0.5618287521834089,0.5140895909519587,0.4667106542648771,0.424953461122513,0.3790453544064425,0.33123994325212935,0.2842433634346542,0.24308579922020024,0.20259273436326963,0.16710279483165325,0.13750309745455835,0.11230430539613345,0.09121352855054243,0.06655785934601388,0.04205837326336459,0.02000357235303407,0.0,0.0003697336551080621,0.02674803518558755,0.05934026678586557,0.09508771872054456,0.13222047287960348,0.16539450856844362,0.19695267557253038,0.2071480344600607,0.20292419872421563,0.20817395921428816,0.21038607054074832,0.2041723794500967,0.20306629587746317,0.2138750043223583,0.23251403890621258,0.2540635205567021,0.2663833610948054,0.2606563130278703,0.25023469538502896,0.23126776661678305,0.22316485315410017,0.23680492722539337,0.2540270873084811,0.2756742963791434,0.2865258227090681,0.3019660835416358,0.3358497769843023,0.37882443518342956,0.42101338902987795,0.46622328934122725,0.5127282343376565,0.5541752131136481,0.6012478713906901,0.6490605633298574,0.696650718863371,0.7379118453791755,0.770795068021122,0.8151227397793588,0.8629185179903371,0.910721290354455,0.9561446056079987,0.9780056632558984,0.94288448655926,0.9014030718509949,0.8551369737857077,0.8073286305462337,0.7595153959988756,0.7117021614515169,0.6638889269041579,0.6160756923568,0.5683123701794566,0.5241870693920696,0.48093738171282174,0.433640115758015,0.39183260128109043,0.34655601502778355,0.3051808678865895,0.264897689823997,0.23062628243505356,0.19972804900223462,0.17719532723413667,0.1540071878427942,0.13268268416938334,0.11192497061733886,0.09019500506217093,0.07894256865338067,0.09586733108552625,0.12532345698063097,0.1592490274329823,0.1938960554532312,0.2275421651883447,0.26311903909057843,0.2701242956863741,0.2570342773610925,0.24575301044691367,0.23952725500600702,0.22640772617378313,0.20897426982372092,0.19817455500862513,0.20763989077051992,0.22392990092519915,0.2426507079605842,0.25971728239017056,0.2725533772791966,0.26755501664910897,0.2610468739148628,0.25400361417313233,0.24074376887240012,0.22043348538088892,0.2061355326006098,0.21742445399411592,0.2354369303585333,0.252250430480949,0.257635957095637,0.27309241883686375,0.30321544228560504,0.34301592286058447,0.3874325147134845,0.42968773962475737,0.4767650617013992,0.5184725748216217,0.5644790650953861,0.6122861193938893,0.6597093070451279,0.701560784195711,0.7473326462402838,0.7951364204962528,0.84294965220273,0.8905271065442821,0.9317212905290251,0.9388134401596606,0.896040822724337,0.854643874022126,0.807887305004783,0.7600755786227931,0.7122627332760743,0.6651259173208441,0.6291349810372726,0.5937311778013918,0.5554093347018352,0.515083323100513,0.46739663358513783,0.4196190403377018,0.3750783467922387,0.3323694167287792,0.2898827883915407,0.25047907940010883,0.21450903002658173,0.18332603539278325,0.16221232570583055,0.14240041350570665,0.12012106958379554,0.09644271687696815,0.07207948026795874,0.05666585363042098,0.06550258406165388,0.09584426823691672,0.1276846329547583,0.16448760999859147,0.19832047312527679,0.22560836508539173,0.2581315922011225,0.2671762357386158,0.24826697712126555,0.2326730017669778,0.22716467115264982,0.21660708573560927,0.20003895157765927,0.18491346157509958,0.18311827210065434,0.1953313273299675,0.20898445010128675,0.22008156422269587,0.23229608409265645,0.22544286764687715,0.2066545326593907,0.1901776226552352,0.1967509726242369,0.21137171847528613,0.22588398317451075,0.2224917565361515,0.23752099391932635,0.271019981024091,0.31132566866304856,0.3575239929784755,0.39890270124456517,0.4456567234555333,0.49048360309275907,0.5330836489308293,0.5807182832118547,0.6283342207461682,0.6709335980935824,0.7157793621615449,0.7635684820425175,0.8113817165898762,0.8591635824362527,0.9037155608988272,0.9461737527151255,0.9684169213756262,0.9292534311419438,0.8814704484177398,0.8337339145507763,0.7901657275784701,0.7463623531446166,0.6986202495870768,0.6508107853135632,0.6045537546406823,0.5629917126706578,0.5166056370107079,0.4803844048357462,0.4369205231912945,0.38913582583188133,0.3413728695794118,0.29726779107532364,0.25607999802036874,0.21727334198119763,0.17925362813924206,0.1446134993125845,0.1159099207771277,0.09664151186151693,0.07780484209266447,0.056054329656542556,0.03170245630858348,0.012875840918603165,0.017621450059136734,0.0414326482382994,PM
0.184047459099975,0.19593283483551227,0.22966873219671835,0.2618006952520082,0.2965974034181462,0.3203783882841109,0.34003687340207356,0.3578977779975354,0.3652382744867346,0.3641537151388037,0.37080437612680517,0.37497121554809176,0.39636373559058025,0.4237048514210824,0.4652296644472762,0.4982341667363481,0.5333598295038311,0.5717721873586563,0.6110767179854639,0.6468308908612921,0.6834388973605667,0.7160164163915168,0.7033287559064116,0.6663747312290351,0.6290500092443794,0.585388653549882,0.5459387772447979,0.5102243444256307,0.48127204846923743,0.45167241901475563,0.434992130303661,0.4192142423951959,0.41046716861599974,0.40951226006635344,0.40207270781263627,0.39964228579399763,0.39963268713679656,0.3997239258028533,0.4052134351014536,0.4100162400149654,0.41587273658578905,0.413803945123022,0.4163960142376706,0.4133852659360364,0.41671372440340093,0.4127171765315756,0.41422913909149783,0.41087561811496043,0.4082145775383934,0.39234886210999753,0.36803950644572647,0.35219312257823776,0.36657117296540886,0.39091471517834453,0.4046034622842376,0.4030018302090821,0.4278673013893266,0.4510700892521371,0.4592955192105923,0.4418145979326453,0.39938937398218477,0.35514858021884166,0.3142579175398823,0.26691331943795515,0.2193232541955783,0.17184164616249342,0.1298918584707791,0.0867924173173793,0.039345620026367545,0.0,0.0017001481579215216,0.03768387684066132,0.07968094178636886,0.12716925875936802,0.173712786252459,0.2132433608913371,0.25964849245725397,0.3072377258647012,0.35482779110707807,0.4024178563494547,0.4500079215918309,0.49758921602124895,0.5428127456041871,0.5829222308478055,0.6300751659058614,0.6776652311482383,0.7252552963906151,0.7728453616329918,0.8204331724666867,0.8665238273918185,0.9061155332184012,0.947969038303373,0.9353508829672252,0.8964585835039647,0.8502226830959847,0.8028775916545334,0.7622190827754531,0.7177351801068546,0.6718871730625042,0.6326518910434242,0.5933333698835859,0.5481501217816789,0.5070374159970326,0.46312416956592295,0.4221785799536675,0.39507646217731884,0.37005054777738255,0.3521429098137745,0.34008288158558875,0.3311011835326769,0.32526637607729514,0.3157934289280655,0.3076193007718153,0.30703818073462097,0.311616250279408,0.330365439584249,0.36237606521106813,0.3961754284363648,0.43134764242367396,0.46903897306763986,0.503183736686833,0.5411571420832118,0.5793398088832666,0.6193672412793538,0.6513869079019445,0.6518598775604436,0.618149314538009,0.576622891888019,0.5342365011669579,0.4990221359730318,0.46522354003269295,0.4355773559465941,0.4178025934210541,0.4012488149191895,0.39952238092159464,0.3937816724439669,0.38468806079538376,0.3862218921013767,0.38932511515745327,0.39005481239227247,0.3979580339249902,0.40355210930142693,0.4097657820765732,0.410284825694498,0.41477428113148984,0.41023166939504985,0.40992574354908906,0.4099257037922728,0.4098594232182513,0.4056025649443846,0.40855426706453213,0.4097012760245786,0.3984845086326101,0.3696442461888474,0.352100147354111,0.35809555100488777,0.3777779676159887,0.40273869782303606,0.4042246330688788,0.42493106073252607,0.4460498565555555,0.4558575627893482,0.4500750545342813,0.4099945325110046,0.3698625282901711,0.33156317884119346,0.29516702698656383,0.24859154698165953,0.20892483483142965,0.1630117657060588,0.11542517719986511,0.06903343896585357,0.030605092272863788,0.010576006355646372,0.03506988450787407,0.08085015205466939,0.12038992826228023,0.16676913252326653,0.21399636613699546,0.24989983553799933,0.2825782411524047,0.3141118901153166,0.34490226029924065,0.3764839634176329,0.40914900837714696,0.44214452549692296,0.48218115600133893,0.5294457913093862,0.5770358565517626,0.6246259217941392,0.6722159870365161,0.7198060522788925,0.7673961175212685,0.8149861827636453,0.8625762480060222,0.9101663132483981,0.9577511992541274,1.0,0.9860067138442776,0.9470843651452117,0.9007192869625817,0.8532056388973266,0.8108490629838996,0.7682905369850985,0.7265038333387623,0.6833423549394193,0.6399606343010249,0.5983446464818769,0.5536123134108029,0.5133165310790306,0.4718774791776359,0.4395935136991409,0.4081302824653672,0.38583789399434987,0.36770081412086997,0.3588814689582207,0.35371394872265705,0.3424739704470918,0.33269796147835606,0.32244171978655123,0.3258615954471469,0.3336754479690658,0.3494662729763285,0.3792038214858182,0.40814756769533256,0.4433960608243115,0.48016780602618314,0.5158762856050587,0.5516563966592711,0.5931910819827046,0.6356098981712346,0.6706821557628311,0.690227827296183,0.6617685426883235,0.6236944078202726,0.585631965259527,0.5493674344653678,0.5137166413353389,0.4790091646459129,0.4509671012935945,0.42298520777141446,0.414229873380104,0.40993140243976556,0.40562293686151674,0.40342245321603687,0.40195546526928827,0.40833474340575404,0.41194971942776326,0.4146949322867246,0.42073264500522845,0.43032000331866116,0.4393329835820958,0.44013294526651836,0.4357828202947831,0.44061941617976497,PM
0.0986467850780135,0.09024455573881252,0.07814118346983001,0.08517365496852136,0.09553023869679844,0.10358066846369995,0.1098190779346293,0.11027080259942212,0.1289328089483297,0.14828829213944372,0.15445873199604487,0.16218132486138126,0.17139035272528091,0.1792313602378497,0.19066112861854934,0.1970793973557814,0.18799859778787886,0.16513869208656162,0.1446547865695882,0.12073427085709798,0.10359405915507058,0.11276927492195865,0.134100981812592,0.1538629265056366,0.1705476631352747,0.1901434139380569,0.2086680598403603,0.2119024072262099,0.23030453697213038,0.24901590861647982,0.27044947145042664,0.29686002197993644,0.3280949861161735,0.36210075630464633,0.40205136873587577,0.4400404716882551,0.4741709630211093,0.5139582709366772,0.5487621821301945,0.5859499750107002,0.6261649644666958,0.6643311200596358,0.6983113764540352,0.7382267316594098,0.7775763888648146,0.8110350464384708,0.8502850022754487,0.8902314536574742,0.9242910061438145,0.9552417812015457,0.9818452144247329,1.0,0.9796900702797746,0.9466429077170813,0.9078373168952969,0.8676014821813558,0.8273668465009507,0.7888627516632498,0.7550790995871763,0.7153945981563381,0.6800208982992633,0.6434545924608945,0.6032502299495468,0.5630238454303409,0.5252476120878167,0.490953466936632,0.4518642259796215,0.42920574308532133,0.4096002937115959,0.3791178359832963,0.3698291117403756,0.3842468785982658,0.3805966140347057,0.3850092854922229,0.3947661585474256,0.3968847379220899,0.4116566478996393,0.43365464364627426,0.4551891107603716,0.4700505348831847,0.4879315748967257,0.5072005743799783,0.5252016715420955,0.5302710540281284,0.535145443221622,0.5390703185057935,0.5225399009160436,0.5106968972920745,0.5074573969633496,0.504811970829818,0.5069409860518019,0.49727827071572595,0.47727438387766297,0.4463449537467763,0.4200296736906328,0.3936548018441641,0.3626120666618846,0.3328249137294743,0.311275885007551,0.28649271866540893,0.2798867987278726,0.28582893567936796,0.29223220288682183,0.2845968480507064,0.26338919122602644,0.2505673126530459,0.26033683401553964,0.2886767404167767,0.3227752178621439,0.35635852018134595,0.3943138187590354,0.42783667624656085,0.46674725836928355,0.5069835889633971,0.5472220262009941,0.5874604634385912,0.6275255445042023,0.6621486511356658,0.6995325908368446,0.7397168795997482,0.7760708904129747,0.8116512842164849,0.8504854935936939,0.8840388646592596,0.9178535120892253,0.9187175619577332,0.8853990238312024,0.8472684964712984,0.8132699195393527,0.7733722304224255,0.7331365223227275,0.6944974391714096,0.6607997570376851,0.6210939098385648,0.5838081560937154,0.549094619044727,0.5091131836078497,0.4773351222410056,0.4547539798623277,0.42829036809385435,0.3913504633957592,0.3521131230071408,0.3186544654334844,0.27952686169936847,0.25059693608231903,0.2293127692171819,0.1958122850716586,0.1684024328129925,0.16214773739757926,0.14767242001670722,0.1283317639689996,0.11566829368690201,0.10270984722558207,0.0944569489651379,0.10459384945329187,0.10673953954489224,0.09768286794855863,0.10168239811931934,0.11002591971556397,0.11155280321239269,0.12338724444126781,0.1261782401285907,0.12416260383473787,0.1282531675597396,0.13302238211085204,0.13660481014727743,0.12675953265866347,0.0982862497059298,0.0666568054411163,0.038225709001201924,0.01354931317598651,0.0,0.008403648526471796,0.021344418193516512,0.03619359376696174,0.05039205758393628,0.06665972004896914,0.07670696847462599,0.08848391271286404,0.10990245226989481,0.13653075827221461,0.16960173330169992,0.20538535639664923,0.24088524750334472,0.2749598930107606,0.3121701923264024,0.339907800295812,0.36858122191455833,0.4076625039090882,0.4478869958842513,0.48543714585778797,0.5199432245367777,0.5599557088711202,0.6001941461087172,0.6404325833463143,0.6806700639429666,0.7196924626075625,0.7532345256616144,0.7927269224969089,0.8317984121883266,0.863000814138867,0.8758391696819343,0.8552454853588616,0.8176787288840299,0.7774627287780125,0.7400787890768339,0.7054556824453706,0.6653906013797595,0.625336719387346,0.5906052883006749,0.5533292439317139,0.5157679936705708,0.48132574787415927,0.4412797374054269,0.40230128053985337,0.36878895522589983,0.3292209849774643,0.28912609923795696,0.25414971045946433,0.22185514515913463,0.19983616618034605,0.1697971212065068,0.14271015343644855,0.14199764864566,0.14007722572637094,0.12253217455792775,0.11535431746422908,0.10436798651047385,0.10700815405253206,0.12346206206207277,0.1281764118908817,0.1265489994293505,0.12764055880184677,0.1345602097836529,0.14403707929271614,0.1547272904809487,0.15833980998310881,0.16103496342244683,0.16440834827343642,0.17597282227531963,0.17283049477210155,0.16636052537537482,0.1622202380613489,0.15420993764690438,0.15421697885320462,0.13084051451548628,0.10230420617161662,0.07782039350519043,0.06470859015955632,0.0752975165775458,0.09879451880070311,0.1273284906541834,0.1484116070841135,0.13523423321471983,0.13798498218228294,PM
0.04283156708496394,0.05967800894376685,0.086435070731265,0.11320723363538399,0.13018729075648883,0.15282255737155503,0.15528109697439374,0.14513895325576853,0.13081961441693313,0.10618722253618607,0.09177107986687216,0.09645271998847105,0.12388266454116759,0.14526333652824708,0.1590979717590909,0.16946186342295455,0.16446873875132983,0.15920864475576457,0.17241437768967816,0.20167501320902126,0.23666960095426548,0.26784571436940663,0.29693477203794294,0.3347646615881128,0.3699625148760788,0.4061663574718335,0.44483696066048983,0.48352226116531716,0.5202283018061256,0.5549826724810523,0.5935032761566885,0.6322051171369276,0.6709069972728707,0.7096088774088134,0.7483107575447563,0.7870126376806996,0.8257145178166421,0.8644163979525852,0.9031181873995884,0.9412627373547913,0.9571666782742541,0.9266658494191313,0.889902657040323,0.8552458602051682,0.8167554746451373,0.7780536461370959,0.7393517660011528,0.700682223273164,0.6645166400435305,0.6292824248634501,0.5906854811945599,0.551983609524715,0.5133400669870627,0.4776131724291366,0.4419592811995867,0.40332274190559647,0.3659370843089129,0.3316819103189794,0.294385907260744,0.2653235888885759,0.23357767796832274,0.19592658854173228,0.16152143090288584,0.12764486370969363,0.09720864308471011,0.07348536244351078,0.056112199602614266,0.04408505202321322,0.038471890446062584,0.03123416577767424,0.0366722833279165,0.05680405429085478,0.08470353662461416,0.11228736912782422,0.14126950550410355,0.16866074742206738,0.19194236927866126,0.21921117661344636,0.24649387973570525,0.24929691474087656,0.22708885061463047,0.20489613263813533,0.1835564894135191,0.16415970658555024,0.14847591302709873,0.14576527689322283,0.14673778480023392,0.15194855216159076,0.15474637823295745,0.1584947072532792,0.16250337757502953,0.15566227046978942,0.1485443107648463,0.15645015315876065,0.18824810939605685,0.22071730080638852,0.25543611695540624,0.29212610139229245,0.3267680517627536,0.3652657638137171,0.4039504229351296,0.4406193664917626,0.4754054130091163,0.5139320121102626,0.5526338589109441,0.5913356035324586,0.629771937094695,0.6642394453951748,0.7013095470579935,0.7400020153873819,0.7786986943435268,0.8160756116121883,0.8451429143346114,0.8349008729183449,0.7974874337901208,0.7587869976562283,0.7200851175202856,0.6814809420399273,0.6462758527084072,0.6100861634312509,0.5714188411797902,0.5327331987307624,0.496029521963377,0.4612717712430632,0.42275253428197224,0.384072031882573,0.3475352655456396,0.31271148449380104,0.27901355632305824,0.2475714843072414,0.21310405670425436,0.17638924311762627,0.13843756120843653,0.10460157583430418,0.07275882576032833,0.04854468164265602,0.03660481559804618,0.027795679229282166,0.0195178815200866,0.007292692985619853,0.0,0.008030178742049698,0.03065513024689437,0.058978990004277865,0.08738962257240102,0.11881550862189905,0.1515516106716206,0.184295197148852,0.21396319725405055,0.225221858485257,0.20943983485483209,0.1885729778788292,0.16857292900543497,0.1527764162227231,0.1400043968346707,0.13629581359140464,0.1394888752312804,0.14145622623635778,0.14008673027910945,0.1387736057033374,0.14522414597232192,0.14020195449429196,0.13461831906745247,0.1470377690444935,0.17601428530180918,0.21088323145944488,0.24496291130358827,0.2825648272446022,0.3204015820190609,0.35447485387525046,0.3925288186355811,0.4312271670423613,0.46895795261887985,0.5030478200595312,0.5411949341833768,0.579896166511372,0.6185980466473147,0.657235147129019,0.6928402449052138,0.7271571565046422,0.7566763830242569,0.7936675537472575,0.8260547437793397,0.8136191660429353,0.778173895048275,0.7395203491753606,0.7008184690394181,0.6621165889034755,0.6234366343798432,0.5869187635633386,0.5520098525060946,0.5134502898103417,0.4747507541141167,0.4369699250290364,0.4029004967926155,0.36478363925127755,0.3265441223858576,0.2924025439405149,0.25481760096015726,0.216956625308645,0.18291238438998625,0.1460364176381076,0.11267236179156914,0.08170781128905336,0.05601574504520068,0.04018873878944684,0.03506211548698712,0.030292332899047314,0.02438084360115289,0.031118272043245132,0.05219686126386114,0.0815142658926109,0.1105979985290656,0.1404607587850194,0.17128430141882267,0.20076299977944356,0.23079107731973858,0.25893654943491917,0.2652584232343653,0.24461308869539966,0.22339290001296908,0.20342145192107752,0.1868512806635958,0.17352526234823362,0.17078095234612256,0.17445892542368258,0.17099236697478482,0.16788031534234638,0.1693136914822604,0.17583018345692847,0.17476072386033392,0.17179065000777072,0.18813541063106398,0.22029108223803262,0.2540943792963901,0.2919401236909851,0.32796406017544455,0.3633281067941958,0.4019436537265142,0.4400440031211388,0.47410758588970237,0.5119111762810526,0.5506108608204536,0.5893127400304166,0.6279294125462396,0.6633476395326257,0.6993175135393483,0.7379790172968912,0.7766808974328339,0.8153827775687765,0.8540769890472912,0.8912722084891811,0.9256535582823202,0.9640466450942933,1.0,PM
0.13864640260071925,0.13864637820697912,0.13827383786714953,0.12996602429730686,0.11559955379064735,0.10886468144735839,0.09865145698009137,0.09644830025526674,0.11011252347098166,0.12414851928795079,0.13724311139620848,0.13864564353275965,0.13864640260071925,0.13864640260071925,0.13864636426769894,0.13826514961359537,0.13095401735207135,0.12680255071564028,0.11938460106265625,0.11903901552379459,0.12266775011371256,0.12874617946300249,0.13371017924055972,0.14518718372604522,0.15424098971017797,0.15841100152710608,0.16497015262474846,0.16617978008581558,0.15861260938716715,0.151861122206294,0.13731963338243847,0.11743364039668647,0.09308351069350018,0.0702520316194657,0.047397007420892034,0.029376153375542335,0.02157111811967849,0.030169891335834143,0.04220245791880606,0.05607313963016747,0.07309981346390826,0.08990916543966265,0.09910975790260634,0.09939596260148753,0.09942399107037536,0.1047491112558574,0.12193684513335068,0.14569857762483296,0.17117059415735847,0.1993128872181451,0.22942710378997044,0.2617935326180052,0.2960922022483088,0.3225236054515572,0.34353642014670105,0.37719190499437505,0.4072838415233371,0.44002579961973654,0.47625647208354693,0.5108655007240195,0.5394250798555862,0.5751922898170454,0.6114401348323697,0.646486313811951,0.6748794563900788,0.710375555296384,0.7465608686675549,0.7775017453359401,0.8093543354542283,0.8454784483664173,0.8762081392696226,0.908261642075602,0.9405731720626989,0.9665678419186063,0.9675503238874823,0.937355473037361,0.9053972718680723,0.8745770727797906,0.8384009380576063,0.8023097208072913,0.7723619990491679,0.7394519665065937,0.703217805001429,0.6669694372630999,0.6319870224612978,0.6035145739636061,0.5680346719452531,0.5317857361812566,0.49553705480912336,0.4599125348766928,0.43144055393114655,0.39660687139226747,0.36252494360318455,0.3336022106691632,0.29772417256426764,0.26625123574203946,0.23494832633334517,0.19873460929502373,0.1634140500062331,0.13756997891287814,0.12977124510196347,0.1347568658465761,0.12903665514846074,0.1288337926009111,0.12853356882083555,0.11935733970171736,0.10906330013185328,0.09997575856306717,0.09205948294920008,0.1030496072849687,0.12309966486119905,0.13548053956409478,0.13986247297267873,0.14629786383518328,0.1412957733595286,0.14805038804522663,0.1484589324496659,0.1484586815426232,0.14767730667912637,0.13980623808015968,0.14095663370939304,0.1480782120411761,0.1438204381536845,0.1271303165205091,0.11974721338289607,0.12733499366878243,0.1340725580695219,0.1392413665251151,0.14700633596960833,0.14845736474028537,0.14845292077887473,0.1461219567784362,0.13843046270639747,0.12689011249175186,0.10570125789241613,0.08450971447160227,0.059483271160598594,0.03335219449516602,0.016080524668151686,0.0027254564248000435,0.0033512551821703873,0.012247878828479442,0.02682876797383149,0.04025708307336484,0.04900830503083142,0.05033462037187042,0.05273443657961252,0.06036682989476572,0.06990886267842833,0.0919558994861267,0.11125998865793418,0.1372907490300601,0.16439877764623967,0.19213967126781895,0.22736439078782622,0.26361287701003766,0.2998603212710562,0.33442333408636005,0.3630150039219002,0.3987961808223959,0.43493178777605457,0.46528110313873783,0.4977560905352918,0.5339779861621374,0.5688170939284571,0.597289074874003,0.6329135948064346,0.6691622761785672,0.7051864786189848,0.734350045535749,0.7681032318866117,0.804345311659783,0.8397577087057488,0.8681978279429887,0.9032741876463146,0.9368736246111617,0.9655868403157069,0.9918962248314274,1.0,0.9802881738326761,0.9482792393596644,0.9120631034803095,0.879079680059216,0.8492097098129685,0.8131190369992773,0.7768701012352821,0.7406211654712851,0.7043722297072885,0.6681232939432933,0.6318743581792967,0.5956254224153006,0.5594576091258605,0.5288705299944385,0.49666897413041045,0.46044228935912423,0.4242572703868064,0.39306907353662357,0.36147943616727685,0.32564953314612977,0.296743807637625,0.2625719293362605,0.22633371720926565,0.19307570951401498,0.16445772682740634,0.14979194917610306,0.15736143292604776,0.15827122881567046,0.15827162260033512,0.15827162260033512,0.15822943930281785,0.15379601217537853,0.14081309057153368,0.13015439165247478,0.1407506406996597,0.1511201502214099,0.15770984145938316,0.15092964395112607,0.1484524738171875,0.14521123370101385,0.13880703949292728,0.13853886529536208,0.13253779957923162,0.12612897633975462,0.11922692438946147,0.11902118260110339,0.11902118260110339,0.11909635758481785,0.12455742424398197,0.13103369386705666,0.1382879592537425,0.1386463991158995,0.13864640260071925,0.13860693598997198,0.13438444969756036,0.12502145461547332,0.10835808292353466,0.08732159470296885,0.06574145699454004,0.039026867651218655,0.01646531616400937,0.0011052298318334763,0.0,0.010375781733832135,0.02617053584760498,0.04427975800971229,0.04493789237414303,0.056138629974930465,0.06003125655578079,0.06014552260225603,0.06021357576026265,0.06561173921601648,0.07669538656884711,0.09334913987526416,0.11050688151470967,0.13052308007436975,PM
0.09331742055150682,0.08760775051075642,0.09135883503456865,0.10019883858848155,0.10051129314271856,0.10250510970073057,0.1127384608535702,0.11346587939199626,0.11346556846909417,0.11235544390320351,0.10121428849353942,0.08756398157027068,0.07134516700351146,0.05506119647541574,0.036999326700001944,0.021222188557711963,0.01058360486658616,0.008509529301578667,0.0,0.008990582861905683,0.013015113583677795,0.02511061616338761,0.04549345641889557,0.06986963489968145,0.09452766377686839,0.1279760944202497,0.16653929890408392,0.20722299045314774,0.25077303276389706,0.29661413164175965,0.33584138391428286,0.38404083024254154,0.4258220042780332,0.46878205651025384,0.517498359671364,0.5644350305624766,0.602926231768866,0.650883045176283,0.6996372087898042,0.7436745682937609,0.7844144200684635,0.833005816003018,0.8760076703455555,0.9177497406950703,0.9660411440695258,1.0,0.9980507951245015,0.9681108832752483,0.9268075711792969,0.8883634287165587,0.8415157433074216,0.7993695519046407,0.7567818860665101,0.708169625609516,0.6670364498528456,0.6234132859902224,0.574664443090342,0.5265482343228105,0.48791477372798564,0.44127942858690794,0.3927801914964264,0.35272163087512576,0.3078864555187777,0.2607084349551121,0.22219207473846536,0.1745172216055928,0.12635309362842007,0.09391574457588359,0.09003420727094902,0.09990951766333644,0.10050897665800873,0.10050819935075417,0.09904332697299134,0.08269742957826587,0.0739898306134843,0.06194780302301073,0.055434944682617004,0.06715733944573765,0.08671290584144709,0.10288521923118576,0.10574084541709627,0.1005452192741143,0.10050915391797322,0.10050915391797322,0.10050915391797322,0.1005110696471676,0.10235420459573019,0.11264280922901371,0.1134658016612704,0.11346628984413654,0.11346167905987681,0.11120803486066588,0.10104973157655683,0.09329360269201858,0.08100613221204434,0.06309977772330555,0.040513977211606544,0.02380248204936164,0.010917401835348617,0.00980942367955473,0.009809202434829967,0.009812147747833677,0.012257966312632984,0.022689539722065444,0.03727946902556356,0.0614853818253116,0.08656022797590257,0.11836762267834722,0.15838484739878922,0.19725219387174286,0.23545829575531307,0.28060163120731696,0.3192340595041969,0.3673502682717289,0.41612974138998693,0.4649095472296607,0.5136893530693345,0.5624651840121953,0.6081966732309239,0.6475426838389864,0.6958400286390258,0.7408244292987805,0.7807642315845422,0.8290523251133011,0.8697850636788247,0.9138068901671694,0.9559173971255768,0.9887343065676513,0.9868419665671175,0.9578286435982379,0.9187442296526993,0.8802219163762692,0.8334949171845074,0.7981115790364108,0.7703273228524083,0.7248959646813691,0.6827553285691708,0.6401676538098817,0.5914321686263149,0.5426523627866411,0.49394099352948784,0.4511839275723273,0.40921023098502207,0.3605929601023865,0.3188601700583318,0.2796058286141343,0.25042626174005944,0.20423784720541382,0.15590238934773515,0.11801489072100901,0.10095405441593908,0.10788799652683512,0.12288932538174091,0.12641233439492705,0.1262092957584997,0.11716675477646943,0.09844483779464541,0.08405047292822143,0.0687904920292568,0.06318244272986684,0.08131498896691314,0.10169058564799771,0.1129299148304761,0.11346623810141843,0.11375188455718899,0.12233255874786053,0.11665749580137597,0.11347052213690167,0.11347026474094957,0.11651858136189475,0.12611643880774892,0.13447238710724063,0.13935745520561715,0.1426198236753624,0.15713113035873238,0.15573312189970157,0.1523270801775558,0.14778744483000583,0.1380855978838067,0.126436045272591,0.10928813917702263,0.08989392852867617,0.06502148906557981,0.05513026471629212,0.048727668956972,0.04866585209232932,0.04449029207047195,0.03597942712746338,0.04028212490333294,0.04991500680429617,0.06802223283827713,0.0942936016192637,0.12648772881271908,0.16161717955486887,0.19925565156171343,0.24601840068911418,0.28462304405003414,0.33114919461347503,0.37028409546176144,0.4161379065132702,0.46420032278212764,0.5028948205020858,0.5495157112819475,0.5982584605165955,0.6416745265585515,0.6830106885902825,0.7316738945233454,0.7793489195634873,0.8178651727262354,0.8644802016707152,0.9032701430981547,0.9448146378934079,0.9501851753332557,0.9206261797322766,0.8839597159433366,0.839237452844233,0.7977125062305443,0.754558275325472,0.7114313432116584,0.6698425811056175,0.6212463482918396,0.5790982411598646,0.5365105664005752,0.48777634670712944,0.4407752722380227,0.40219955961708065,0.3546386287177019,0.31443203705627454,0.2697733840903167,0.2210858042469641,0.17853172456486543,0.13636019008916955,0.09029174695061704,0.07577695538162743,0.08648124557865433,0.09834591381837177,0.10180716067305262,0.11046913768973887,0.09801321134381036,0.08197388703958941,0.07453320809888764,0.06245845172510611,0.051710588858410844,0.07140777644547658,0.09573387440223291,0.11230755622013788,0.11346556846909417,0.11346628984413654,0.11346444651534915,0.11149498973433536,0.1013503024468494,0.10050931806728514,0.10050915391797322,0.10050915391797322,0.10050915391797322,PM
0.6275918510434924,0.6811350542776595,0.7389338799302778,0.7951621116698329,0.8456122652779214,0.9025893882045133,0.9579687882009607,1.0,0.9884854427127561,0.9336170795219654,0.8783360250079122,0.8273234782139087,0.7699472568813945,0.7121418338472005,0.6555256237022888,0.605137048436279,0.5485527545748876,0.49535504056801294,0.4495411586383502,0.4081933851937438,0.35934657431948613,0.3151379555540086,0.26587312201142566,0.21771208965049116,0.17773590949064677,0.15870078855994008,0.1303771421726596,0.12199971159424772,0.14464103341030965,0.1730594967108834,0.1813232230133417,0.1814585327575624,0.17861051767968417,0.1719033688890037,0.16828618662092332,0.17588451896138757,0.19960326911021808,0.23678557880759632,0.2761196384030249,0.31840912210812755,0.36176013429875153,0.40488894836000044,0.4462559292656083,0.4893920512122856,0.5338137505006786,0.5774039643867208,0.5979212941616487,0.5815216077143757,0.5422855487682285,0.5003883421880335,0.45425366052873417,0.4008194645484935,0.3526194418361832,0.3050948484905589,0.259819312898957,0.21394807393457604,0.16994828113477545,0.13007361336662382,0.09573870089443592,0.06471523484459496,0.053299116092267784,0.05191270957484062,0.07521141108447726,0.11303749695159637,0.16140135150671964,0.21249951913317022,0.2643815621158121,0.31823712849368646,0.37342960727853947,0.4244501537333798,0.4818570531758126,0.5373826845349621,0.5882142740869298,0.6455269493056419,0.7033100614913517,0.7579312964447218,0.8094696349851325,0.8669768237906292,0.9218976399717054,0.9666984156779073,0.9625249776342857,0.9110635444700379,0.8602191748033534,0.8047752563483082,0.7469774321312976,0.6892160379539103,0.6353467215154054,0.5831493076458505,0.525879211432565,0.4801719585783093,0.4380025293522132,0.3850204115129898,0.3414139013348019,0.2954507476195114,0.24589418513109762,0.19524401155614846,0.15253022493529667,0.14337112126934293,0.11824393968893943,0.1084620915684591,0.13076545339664714,0.1584972334696111,0.1659072508362771,0.16668371903539203,0.17702682777834777,0.17195102075968283,0.17070151938282319,0.16479163892903625,0.17959478817098873,0.2145515894507708,0.2539287813840909,0.29282025329553196,0.33392477232804074,0.37390444700492464,0.416890720970031,0.46026219776527055,0.5057559263053786,0.5513546350323675,0.581642184163983,0.5805789900524005,0.5488609736031815,0.5080729627849556,0.46219614297380684,0.4086172615718058,0.36159326985145746,0.3153686910887974,0.26914205707391403,0.22416334832533757,0.18207398714644474,0.13744494788686423,0.09711347150799288,0.05805137842073038,0.030642553511441184,0.033493983668197114,0.04344888274176162,0.07393750387741749,0.11648963972025217,0.16381384371739527,0.2152551962548912,0.26965510661333925,0.3211707384257225,0.37826036848539957,0.42927286616841487,0.4845576587274827,0.5415809258658,0.5920480320614323,0.6482104626043532,0.7059833721318864,0.7602286528687818,0.8120821692004099,0.8696501118884155,0.9239714286953378,0.9609713682323813,0.9434203849518115,0.8886808345212662,0.8370138184370566,0.7825537067193187,0.7247733040724484,0.6674032545010138,0.6165010905406252,0.5611011681558291,0.503667751921951,0.4525121912634329,0.39777211999806106,0.34957777359337294,0.3088953035332278,0.25843459728198503,0.2087858409245651,0.16901587990572176,0.1508636488533026,0.12215525886859768,0.11866841696967767,0.1407489874880381,0.1571097103511503,0.1592052100679624,0.15600522833532726,0.16362572609560888,0.16575761682172874,0.15842652474641428,0.1592810192876981,0.18916596588778622,0.22749000514186024,0.2674593318994085,0.30800074136250033,0.35226853481959775,0.39459808594708123,0.4381163362577276,0.48171336315811675,0.5253615892900754,0.5491274824359458,0.5369176920359746,0.4996847076602633,0.45585661029081415,0.40866007760764456,0.3577118017571903,0.3095814709551372,0.26371700208865545,0.21802362506279005,0.1719051027344245,0.1271056337437062,0.08727659092082973,0.04886499020826429,0.01710325062762119,0.0,0.004905065064602976,0.028215578722543766,0.06550392115353176,0.11145485666749466,0.16104456956041058,0.2111450577269094,0.26663763988677136,0.3171617115326728,0.3731469454638505,0.4307123362292342,0.48239786236516946,0.5368334487986035,0.5946086906253356,0.6514466059468393,0.6988195357677927,0.7407865521481449,0.7965442122561437,0.85177949386844,0.9027896451853286,0.9566004026474864,0.969110682226995,0.9272478141418086,0.8750767922559297,0.8174187119492573,0.759621824982712,0.7041263854152597,0.6532591500117997,0.5959499112226196,0.5386757013386962,0.4878952003612165,0.4341327068005447,0.38376380825214396,0.3332067149371203,0.28940243927671094,0.24053775139729128,0.19060392636205914,0.1485002493655403,0.13380785181305477,0.1090192652233104,0.11022618673006246,0.1381204403149663,0.15765150482204748,0.1676384997169138,0.17714917437135802,0.18142168825289962,0.18132355036750547,0.17600433344162636,0.18228976409835296,0.21536598874018398,0.25256681668958847,0.28992113464120006,PM
0.2054726409422778,0.19773811406677644,0.17523160059788156,0.1542981461347288,0.13089551116033826,0.12152720026749408,0.14231106614943712,0.16736708903100173,0.1848051044313601,0.20219727979967916,0.21495829734968397,0.2230168584807517,0.21757050901774977,0.20992713599794133,0.20223604378712978,0.2082556285622561,0.20827793049748777,0.19251972339836487,0.16790322753843934,0.13896982552297676,0.11055625578784056,0.08211625064382089,0.056546272322880675,0.037294262343934514,0.030276301350645518,0.04612037449749895,0.06735799697265432,0.08893119434934404,0.10683693318038667,0.13035135055222002,0.14670775229499822,0.16437901135604482,0.18918855651152588,0.21996695333890504,0.25374118438287163,0.28999194161711506,0.32194143273132436,0.3599369498302636,0.4079318261776397,0.45624584541632807,0.4975544732541546,0.5463957776649537,0.5936674621146039,0.635524276587109,0.6848713002297533,0.7339234094482481,0.7752686871352403,0.8233443678185037,0.8729747139530111,0.9161820033519059,0.9616542477966532,1.0,0.9940479423598543,0.9532957266939377,0.9084605982965681,0.8595375710642155,0.8181594403777637,0.7709499910755149,0.729633298535417,0.6837284502248324,0.6419756118862683,0.5930544556101025,0.5510512716880691,0.5040053017800799,0.45449665800324457,0.411967183345185,0.36552606608298,0.31637591987926306,0.275272304583168,0.2471088366294294,0.23690281571338234,0.21472866752578867,0.19753437682554376,0.17541398906394368,0.18052245415438506,0.20182378265101142,0.21823428011528812,0.22923249674540602,0.23200458033004678,0.22528030875486116,0.21929391236880313,0.20568359590912522,0.21424572885689996,0.21412471464683613,0.21843671029092238,0.2174399710811692,0.20292991359573676,0.18637633340194149,0.16049855207777708,0.13589890453824127,0.10687855199916219,0.08215230362820414,0.059659659532936615,0.05089181694217704,0.06032661593319255,0.07355425291424988,0.08445720185853722,0.09533462363020351,0.11403302621317613,0.13158737816578858,0.1479743011945025,0.17402095913623583,0.2149758372612911,0.25869830030102214,0.29990572790056813,0.34811965648939025,0.38978789604096287,0.43735235140646767,0.4871423623543989,0.536740531870171,0.5795332570036158,0.6256312333849574,0.6753779385349734,0.7210333307555308,0.7642590842124934,0.8138609116933195,0.8601834606247798,0.9026769892671007,0.9392764299239555,0.9237300842651877,0.8828651415329163,0.8367233221453678,0.7883385003302923,0.7470634987106584,0.6998411787581893,0.6585451667398718,0.6131120546221398,0.5705075394234971,0.5209872167667324,0.4761427276480097,0.4321506657367129,0.3826176219088384,0.33929304573538954,0.2939440832164888,0.251278693835441,0.21884474707889834,0.20225004141979652,0.17984262528339445,0.15310580794399065,0.13004582423313948,0.11611173322483093,0.12981095484673855,0.14102042405363147,0.15496767141577683,0.1680972974281818,0.1639769836172984,0.1582686827975106,0.16466605375759302,0.167948848545437,0.15949413422413938,0.15523321184612993,0.13597314507238112,0.11760204792999751,0.08761893924062969,0.06448650155258706,0.03627976608402217,0.009672999462511989,0.0,0.012683093595812434,0.038108402396635155,0.04841407430129596,0.06334195611880133,0.07722945658448066,0.09402433405769295,0.11464546191198965,0.14082002581312425,0.1629499587040124,0.19363863641294232,0.22473634921400465,0.263663238855937,0.30783392371841756,0.34941048046567547,0.3985103167268611,0.4426841165299362,0.48733935647801596,0.537059863758425,0.5840530114153104,0.6261016865046285,0.6755370236529816,0.7244210122563155,0.7657228191564709,0.8140098797678297,0.863804094547548,0.9131554906093551,0.9503024141454519,0.956275781214774,0.9201898223023108,0.8791531221966604,0.8305266935397659,0.7849213816420781,0.7417036763730116,0.6965101344982929,0.6537075404394783,0.6123939100698506,0.5644781804330266,0.5175261002226246,0.47542534341124876,0.4260381808933187,0.3805302488412807,0.3372223107185408,0.2922307444330128,0.260707014120374,0.24862529613968665,0.23115455182777245,0.209967790236671,0.19525235879702563,0.20911360246622723,0.23383540092491817,0.2511276240402298,0.2666810924762324,0.276339325449251,0.27807987248321875,0.2741045656470793,0.2673669895672326,0.2671909231720757,0.2663705472860658,0.2503162604996929,0.22740177284204943,0.19821092893381986,0.17031518180390637,0.1424420776901596,0.11467976833743543,0.08286932274185,0.05793259149671304,0.05384892427661492,0.06598484441506858,0.08585436434204108,0.10499741270009011,0.11570700959523483,0.1332586356030876,0.14582164024958866,0.1697174151302292,0.19491387656362247,0.22772281472909373,0.2673957447457114,0.3074423296810791,0.3528695190157267,0.3941650069411877,0.44240065081327984,0.4921550140499886,0.5372974961093071,0.5809844222432039,0.6306651685737283,0.6802215536635541,0.7227425113978669,0.7690756141997119,0.8133720390920649,0.8578605286409808,0.9013725916371209,0.9029232527534097,0.8655383528735796,0.8167428460321431,0.7753272696278559,0.7273026634885018,0.6810744254860759,PM
0.855209287649064,0.8484346890578098,0.8439579811995515,0.8336903012959376,0.8223020417988551,0.8104037717773047,0.7973381766137355,0.7865271447898954,0.7803262536779672,0.7879006673260449,0.8036723593765256,0.8231618620409016,0.8272873319423424,0.8214923581502602,0.8212476337204022,0.8212476337204022,0.8207258459999582,0.8140764651404837,0.8128289544710057,0.8194257091379826,0.8219530877409575,0.8239987667287423,0.8113792163192051,0.7961094128682085,0.785197875078226,0.7782561327473481,0.7875577954213338,0.809579003002997,0.826268945706164,0.8375517874636251,0.8387621558315657,0.8294239499662319,0.8062039650217998,0.7680170234196104,0.72601060707229,0.683984551112137,0.6419584951519839,0.6000114077007079,0.5626970337624904,0.5246980428779848,0.48272566557448315,0.4406996096143303,0.398673553654177,0.3566832928184558,0.31834934006868054,0.2813666580561236,0.2394407240766766,0.1974146681165233,0.15538861215637045,0.11341716944470426,0.07584619013637217,0.039856547340542225,0.02768959363393464,0.05754840615084178,0.09309665506437048,0.13475827177195754,0.17678432773211072,0.21881038369226347,0.26083643965241665,0.302809764778858,0.34082949666075046,0.3781241092904464,0.4200692692299173,0.46209532519007057,0.5041213811502236,0.5461474371103767,0.5881733138513097,0.6296710070765315,0.6649859542339318,0.705383994733707,0.7474063226480305,0.7894323786081832,0.8314584345683365,0.8732033869688556,0.9091499091067636,0.9486741174739901,0.9899712785842665,1.0,0.9672762544246658,0.9292635066929051,0.8977552602964416,0.8775201633489758,0.8636578225005793,0.8568338271351179,0.8552932588174691,0.8480531030840555,0.8398852485349773,0.8277063213780906,0.8135805580609738,0.7972112506963107,0.7830652290176896,0.7770092529910622,0.7787067149983915,0.7848810753392876,0.7818346502642155,0.7963156056177214,0.8036572286999468,0.809799103086311,0.8115775180908589,0.8046668637038001,0.8035066238865485,0.8036939903979898,0.8093206422417307,0.8123484919496131,0.809440729598853,0.7946819086986645,0.7827031056645217,0.7707767498024083,0.7687205531264278,0.7794759746335482,0.8015779961695173,0.8172436144133537,0.8258925627980986,0.8292047137521341,0.8169036115996733,0.786046086549568,0.7485168560419762,0.7065656361294663,0.6660409457684617,0.6307696901770024,0.5893561211152374,0.547330289678791,0.505304233718638,0.463278177758486,0.4213542204488636,0.3842731174197642,0.34602909935976456,0.30404534818098483,0.26201929222083153,0.21999323626067824,0.17796718030052505,0.13636456926839224,0.10083125386171277,0.06075630066522186,0.02025656225157957,0.0,0.01868836903841764,0.058953854922305426,0.1007165010773039,0.136762557715982,0.17616778870741223,0.21818416762663262,0.2602102235867858,0.3022362795469382,0.3442623355070913,0.3862883914672446,0.42831230727003566,0.4690578828482692,0.5041867539298821,0.545521602135429,0.5875472770048986,0.6295733329650519,0.6715993889252052,0.7136254448853572,0.7556515008455105,0.7976775568056635,0.8397036127658168,0.8817296687259701,0.9237557246861232,0.9655450060608555,0.9885394052404413,0.9609261021597229,0.9281880054815803,0.9002982488925138,0.8799944580725005,0.8685237708553397,0.8593173719029725,0.8527396418420432,0.8552199625256358,0.8444124474410881,0.8328447958142042,0.8192205847452119,0.8076227130390476,0.7941247685763759,0.7862306024493231,0.7913653105947329,0.8013595193949299,0.8118390987272333,0.8147209719619877,0.8209547164986897,0.8212476337204022,0.8208867705693785,0.8144937971249893,0.812384250441071,0.8126149006988523,0.8184854120694804,0.8210173553375628,0.8135767475961273,0.8000488376886441,0.788396566482993,0.7730896159146659,0.7722134582732607,0.787911591408067,0.804735650803553,0.8191869480127458,0.821242083075743,0.8200745854966522,0.8036190665980416,0.7707015894355282,0.7291415454908043,0.6874800706928599,0.651852689154758,0.611927054214465,0.5699088578229468,0.5278828018627937,0.4858567459026404,0.4438387995835127,0.4041716967094582,0.36834461597247437,0.3266239010015629,0.28459786036498624,0.24257180440483306,0.20054862154510633,0.16006118114328716,0.1247770750912569,0.08333876362847514,0.041389353891099656,0.00672066804293292,0.008986581649843783,0.04509726899386224,0.08146041033711005,0.12044412397022097,0.1624509377854355,0.2044769937455886,0.24650304970574188,0.28852910566589507,0.33055516162604826,0.3725811409683193,0.4142554327899335,0.44985358417514565,0.48979446219921696,0.5318140471637025,0.5738401031238556,0.6158661590840089,0.6578922150441622,0.6999120012947047,0.7399334557076211,0.7755009769802723,0.8171250446216611,0.8591511005818147,0.9011739458921288,0.9410489425852662,0.9498953077733174,0.9211677314556568,0.8948499739069824,0.8788115158539402,0.8642203491703284,0.8508201129070572,0.8533087409786204,0.8474602524937167,0.8379532509281484,0.8289740618068131,0.8199633939696063,0.8019519380743332,0.7896417920761176,PM
0.0552996823791827,0.0384511837948458,0.045193566868154456,0.06504616327222212,0.08165662660776274,0.09456368056564735,0.11038961303510897,0.11841034024941566,0.12903363839421855,0.13929698895233322,0.16322437617951113,0.19355770402528094,0.22704916838895972,0.2706405028237162,0.3205350849108024,0.3704949624068514,0.4204248213394961,0.4649308093572224,0.5070095940289581,0.5568532356064004,0.606790342928738,0.6519570773903429,0.6934376174498489,0.7432115088059481,0.7930438732784375,0.8351980413665543,0.8796536681911555,0.9269805164334586,0.9595407603592512,0.9557362834941872,0.9167106326518479,0.8700110321319063,0.8300495987501408,0.7804831634458576,0.7305758462313596,0.6863340877514399,0.643973854254952,0.5941321009373222,0.5470652352385086,0.5072389624101996,0.46195061296351314,0.42100414405477515,0.3712879763353598,0.3218309982674441,0.2818078364022001,0.23491618345873455,0.19263066938721174,0.1852712982383502,0.18499350442230655,0.17390173922124053,0.15894453416123122,0.1500909566940969,0.12431178579207813,0.09781908938829798,0.10576403453446348,0.1306845677912829,0.15207791351919697,0.15822550729266238,0.15828443513791868,0.15828443513791868,0.1594119594077008,0.17091494148066877,0.18364784745098284,0.20308990891513545,0.2121364207322607,0.2111545337975569,0.19971691138976233,0.18590507980695348,0.1693622961332104,0.1602137833791839,0.17071102586329046,0.17176521647829146,0.1717656719225671,0.1717656719225671,0.1717676961193475,0.1741445947797855,0.19284462224025223,0.20704323203173836,0.19936254232592487,0.18617921380165248,0.16149586924381376,0.13610835260371612,0.10157099892326782,0.07308131710848986,0.0485760737395311,0.03720057884693917,0.04171732958695795,0.06083736768198378,0.07423737501377481,0.09373863385062986,0.11195549119660786,0.13067552343293265,0.1502125493552544,0.17081594320745674,0.192071396571023,0.2195759538073343,0.2567171254061482,0.29786241697767535,0.3383557036737521,0.3858479013787952,0.42517958811443224,0.4743800906710107,0.5243384500194748,0.5726803017135746,0.6118328288042698,0.6607385156853178,0.7106979377370908,0.7606181321501433,0.804243124909366,0.8471870991043753,0.8970527698021122,0.9436583819501574,0.9828986301595104,1.0,0.97496839996339,0.9303400257602941,0.880652287235542,0.839553694407448,0.7939464623165908,0.744004522734456,0.6941989400495387,0.652527426374327,0.6075881514183616,0.5605464720231566,0.5207201991948476,0.4754318497481602,0.43448538083942356,0.38476921312000867,0.33481972151866257,0.28851296370208734,0.2523222067831892,0.24985848087671592,0.2522380564977649,0.24239841075502344,0.22501828120313316,0.22230010832129343,0.2172273573498842,0.18815158303565482,0.1736023434776066,0.18980719972691862,0.20712454263433777,0.2121822922497838,0.21220938227651143,0.21220938227651143,0.21220852199287998,0.21036815624313032,0.19972184605847865,0.19787014442611328,0.1870667594963078,0.17358987580774743,0.15189155234506746,0.13563742384806687,0.12440336027503296,0.12929632514018596,0.12182979110143455,0.11785383043809317,0.11784072478397434,0.11784072478397434,0.11784072478397434,0.11784072478397434,0.1185021180115915,0.13045032099303322,0.14355463484520126,0.13734516366511906,0.1188126117515691,0.09361563899832381,0.06307384975633878,0.03739307200976505,0.01413104853868008,0.0,0.010660820316766628,0.024521948068282118,0.04320132756331363,0.05998759978753121,0.0744447391036882,0.10160943096266939,0.1303051481777282,0.14655684464810959,0.16181895391759626,0.18193810743290362,0.214150623210573,0.2521412007795689,0.30024190870284073,0.33942932738432274,0.38792882104387827,0.43391127033392074,0.4746925384967162,0.5243396645375422,0.574293684769168,0.6207436706686993,0.6611458856827204,0.7106979377370917,0.760654778937969,0.8075760710034792,0.8475992328687245,0.8970527698021122,0.9433792011850506,0.9636669709951362,0.9356039966232399,0.890934646319621,0.849298063594095,0.7995157001497448,0.7501852849774235,0.7106675273105485,0.663114875410109,0.6131779469935403,0.5679888494262242,0.5265320058459073,0.479659051315267,0.4398200111894872,0.39032031061956873,0.3406414932499242,0.2997338740375368,0.25390700039108705,0.2057217927234114,0.18558313647047653,0.18523493521066658,0.18080409283518506,0.1620602908919695,0.1576462568818311,0.14096251042380903,0.10846770375957426,0.08342531002373255,0.10065533163664453,0.1268070272796491,0.13183674791781153,0.14149413044078551,0.13388303926901157,0.13132439060475942,0.13136647691141512,0.13814185927749456,0.14552043535260006,0.1580032387277761,0.17807062580270072,0.18363677169290726,0.17505329838196193,0.18448743255790578,0.1852460484235836,0.1839956176544124,0.17315848104525466,0.1698269330711355,0.1600723405369271,0.16972780089565997,0.1717632240370901,0.1717676961193475,0.17403260354024264,0.18877798635236598,0.20526612279069845,0.21072245611087848,0.19317733742021792,0.16823703224526865,0.14325639050336303,0.11743559272150295,0.0875379046280802,0.07754234150781114,PM
0.7790146670646488,0.7860643558676627,0.7938430410356457,0.7888056377460803,0.7862758345321798,0.7875939181645711,0.7983201914892738,0.7889893111139222,0.7584983721633324,0.7145095213142042,0.6710463214147989,0.6266910834694445,0.5784967482970323,0.5327583928725274,0.4904791228895077,0.442513283879422,0.39425087536742554,0.34624707545842204,0.30685968343153047,0.2743919776370519,0.2329103750643139,0.19646045759710307,0.1567093346422842,0.12474485848093575,0.09404600292864507,0.048623806664979785,0.017885679182356173,0.03433380282266962,0.07805276318120224,0.11988113790883148,0.1677009567516271,0.21596322427188241,0.26422521456910286,0.3118946296731644,0.35356327177426106,0.40020137915475773,0.4484597248764056,0.4967221954851665,0.5449846660939267,0.5932463634397632,0.6407190594407633,0.6822723636497033,0.7292209145757788,0.7774811666984504,0.8255345784902145,0.8560365526522821,0.843032699118906,0.83231487369534,0.8371054166900697,0.8486214083275961,0.8548865428201055,0.8758309554008384,0.8980530376136414,0.9245556088545709,0.9393360941314534,0.9184829025867219,0.8808088490777631,0.8433468937823129,0.8084388614216763,0.7827189942802689,0.7731746208410285,0.783474045918266,0.7946923322627365,0.7862741948512074,0.7696886095853278,0.7546825432163552,0.7598756789560098,0.7677554358116362,0.778933984930699,0.7879801272602344,0.7910905793817996,0.7971176040261988,0.814230506999906,0.8275833864921395,0.8211067013302819,0.8096570035018423,0.7780067329162815,0.7369425786666234,0.690363599234212,0.6464813662385595,0.6025096505398727,0.5543190980884579,0.5062593414536182,0.4635765225766172,0.41832576943015154,0.37008506809269537,0.3218225974839345,0.2735601268751744,0.22529765626641363,0.17703518565765286,0.12881999324939553,0.08449316829349696,0.04254324214941452,0.024748829706804254,0.056641223680776065,0.10456434690773087,0.149237806480367,0.19244781960826263,0.2405784671611645,0.28884093776992525,0.337103408378686,0.3853656344660433,0.4331337611535674,0.47495485949662186,0.5213441359438048,0.5695999089832092,0.617862379591969,0.6661248502007296,0.7143841547804367,0.7613236305400667,0.8028641925929959,0.8503530538849738,0.8945635838892542,0.8988931456205401,0.8965204035110109,0.9021603501022227,0.9075505643530587,0.923381891198709,0.9402918980773839,0.9614248768532013,0.9870369526037527,1.0,0.978216095452851,0.946472328313679,0.9123662078239975,0.8843785048893643,0.8614047978926459,0.8530739298745743,0.855065107862513,0.8448705379929374,0.8369554764835664,0.8226545427240276,0.8144522931640837,0.8145284515544836,0.8208045523030184,0.8273373585275051,0.8288612902663187,0.8024205385978586,0.7566582913052428,0.7084063699389199,0.6602682469598676,0.6169688764212448,0.5723882248956028,0.5241723399431574,0.4759180871250789,0.4296913951688154,0.3877646610160984,0.3399382047565286,0.29167583933863417,0.24342528962378562,0.19769743606017953,0.15541058466145408,0.10746777933915708,0.06289907730328947,0.043168357042478234,0.07018929142609998,0.1130710154153487,0.16120122323730057,0.20946175140696432,0.25659837876460057,0.2980985168139795,0.3454364449880466,0.3936977238418239,0.44196019445058454,0.4902226650593454,0.5384700863139645,0.5842552442199421,0.6265013347535614,0.6744567124195525,0.7227191656638686,0.7709807165340122,0.8183368903884144,0.858800623110746,0.877713230743831,0.8704034406048197,0.8741543161344371,0.8758697307791804,0.8790433709364113,0.895759192697751,0.92187338925285,0.9462062416826701,0.9431728758143868,0.9122083746169195,0.8778644027980455,0.8432394584760284,0.8139746990393929,0.7987798004429304,0.7916849703929693,0.7877252604532882,0.7844902997607178,0.7820956681063346,0.78418964064264,0.7723582507200121,0.76432818104018,0.7705507548043874,0.7776426965319586,0.7812333692945493,0.7884610608502222,0.7792917168217305,0.7703775243417826,0.7415356629828868,0.698695170740072,0.6562084740637536,0.60821544715523,0.5633145899484903,0.5203076838428461,0.4722106671857268,0.42395536322793836,0.37761132876863035,0.3357625111088566,0.28797643686070307,0.23971430606299182,0.19184672030258676,0.14986847767009337,0.10373351927424701,0.05607071079110515,0.01580960615101179,0.0,0.029923899890593963,0.07674414404203678,0.12500437028073108,0.17326684088949185,0.2215293114982505,0.26979178210701127,0.3180542527157719,0.3663167233245327,0.41457919393329334,0.46284157300123174,0.510690503650212,0.55267409842072,0.5988220264202492,0.6470756945378157,0.6953381651465763,0.743580776355227,0.7889069299152495,0.819885770375424,0.8132501038554975,0.8092120536234552,0.8174923489554266,0.8312538345003352,0.8406889996628749,0.85810456011196,0.8759853669218106,0.8991377137499496,0.9211374304199326,0.9074201813850965,0.8737060554564938,0.8393210695954169,0.8095979068763272,0.7883413579047635,0.7672425400057897,0.7630995381111377,0.7730413884738582,0.7728460958745907,0.7629301923713997,PM
0.014428531871348405,0.028539369791502622,0.04851315334688744,0.08037442600023281,0.11402363401353499,0.15420946305437866,0.19512486726654243,0.24274664873839313,0.2953247362938636,0.3394837383461162,0.3930431238980163,0.447522455748826,0.49863456088595326,0.5438760198534962,0.5979309466115348,0.652233986416348,0.698592424688762,0.7483601887110951,0.8014162123556097,0.8455922985045605,0.8943328568430382,0.924109210481884,0.9069051808417337,0.8638839103089189,0.8126009529722715,0.7581632190579306,0.7090899337193313,0.6620932342261061,0.607721671730614,0.5532320147828673,0.49957882524389685,0.46193509780293507,0.42133894699473506,0.3743694566880831,0.3199967225577951,0.26616390063196027,0.22611685641990142,0.19061530217008826,0.1439554447532001,0.10298545784786839,0.07986303651674831,0.0712795555729846,0.0668563956382755,0.07595136416136805,0.05353108567725107,0.04760769228494688,0.05703041174796919,0.0763906916829038,0.07840327795015956,0.07840588972318718,0.07840588972318718,0.07840588972318718,0.07840588972318718,0.07823941600388196,0.06988979966622999,0.054542255079102375,0.0522650096009003,0.052263438443671095,0.053335404758111604,0.06390516663043888,0.07484698923436106,0.08308606118804285,0.11192619677563886,0.1481793076845026,0.18451823443552628,0.22084345292208862,0.2582367153657552,0.2989807795852708,0.3353301216928495,0.36005787811680534,0.35690230384309585,0.3245174961397126,0.28819929843140635,0.25186145951219885,0.21554890811532212,0.1772344661737284,0.14192666480771177,0.10656851257517408,0.0708743611819509,0.04365422289078902,0.024996844056176304,0.013584744077667299,0.019031270372345865,0.03513498011157834,0.040850835464109725,0.06029265306196807,0.08817776099436658,0.12621784191214003,0.16395898794296837,0.20508101102063847,0.2555757507108094,0.302855315193181,0.3516209188451529,0.4060623788566211,0.45938892725186475,0.5036609237995568,0.5564631807944549,0.6109510823704043,0.665255975850573,0.7116236312852773,0.7613711002686805,0.8124320079862932,0.8571712749235649,0.8965279754051365,0.9076265091886144,0.8805411006491957,0.834939564652859,0.786455427003609,0.7320283511193422,0.6775384541336851,0.623048557148028,0.5685586601623713,0.5140687631767142,0.4597707617222948,0.41320023676473605,0.3636472006693565,0.30926468843147203,0.26173575722813736,0.22372306927055563,0.1823583988156532,0.13881019133044292,0.09900301027277303,0.07896357263706433,0.07188246744491966,0.07132682728742656,0.07589580992956257,0.05291078184011466,0.04431674455628265,0.06754498801837361,0.07820401097083485,0.07840588972318718,0.07840588972318718,0.07840588972318718,0.07840588972318718,0.07840588972318718,0.07840588972318718,0.0782405360357128,0.07064219034271968,0.0602318854336521,0.052396716565949575,0.05463076330610317,0.06489572700710822,0.07434930008938112,0.07999082100411758,0.09918518907678076,0.12686688756960152,0.16122725201175792,0.19933722671138598,0.23828765665590268,0.27797405604496106,0.31874567466498993,0.3537250968890744,0.3642530433528117,0.3430288989169159,0.30712653778071397,0.27226129889835216,0.2358991176018903,0.19814308552938442,0.16183396882677226,0.12549061590531485,0.08866378657346674,0.05037708815835096,0.022919063361607872,0.004282361223580278,0.0,0.0028752759867680666,0.013814841590749971,0.026346259240108694,0.04721443482883503,0.07898113529771811,0.11543743927088546,0.15696239996145733,0.20169568755597078,0.25403267811945973,0.29816633826948014,0.3515220287848604,0.40507149782273366,0.4494176576598621,0.5019231533218722,0.5564099248984022,0.6108979253861908,0.6632337506500661,0.7076122186132574,0.7612983705202159,0.8156980741733775,0.8634514416218728,0.9117401407065575,0.961424087585053,0.9986340402713458,1.0,0.9639514635716426,0.9150353792576724,0.8605896508747777,0.8060997538891197,0.751609856903463,0.6971199599178064,0.6426300629321484,0.5881401659464918,0.5336502689608356,0.47953482619230003,0.4341517827631054,0.383240273491567,0.3287668483992463,0.2766921086897831,0.23493958478916888,0.19217837585168995,0.15009881099457179,0.10800104702070401,0.07216930759695339,0.06449600074371276,0.05416875588866521,0.05185846648003345,0.0390612933747172,0.03000431844692919,0.05172889289726035,0.07194424923648324,0.07896573027420661,0.09137894126888924,0.1037918109285978,0.10454823189456297,0.10377642439389234,0.09373915866086202,0.09162167100261298,0.09819966133871061,0.09234149393183788,0.0813005165558005,0.07066315236395049,0.0653706403797698,0.06535864948779446,0.07036278634857185,0.08374537702755358,0.09591733373901912,0.12384016828651179,0.1542894322338002,0.1904663042002408,0.2303867459192861,0.2681174914497455,0.30882134938169026,0.3484992299336134,0.37551620373100825,0.3729346044224964,0.3466588730363567,0.3084237163768604,0.26867991635749844,0.2315289992664411,0.19515128831794293,0.1560189953209261,0.12215285004312193,0.08404457306433288,0.05057980378207372,0.026586735400552897,0.008493610046582223,0.004701841827845943,0.013751865858127932,0.02407970802337811,PM
0.2651479562542627,0.25371760130655674,0.2526785863836487,0.26659333454740697,0.27648051132901674,0.27852084211407924,0.28885891075021863,0.3040721564283042,0.3318048433857528,0.3604334779375371,0.3856803917279277,0.39228532224287704,0.37149451845045434,0.34167354935234906,0.307300257910323,0.2703878266915436,0.23432873775604546,0.19859653653567588,0.1570854805310744,0.12589444587617415,0.0997839481964915,0.08246367373629049,0.0926615390358716,0.10747845722036686,0.1241062475904402,0.14420023759752598,0.1597852327099849,0.17695377839630266,0.21888447133673306,0.26170337141910927,0.30808012679132624,0.34984319751545634,0.3981188157934765,0.4453277728340166,0.48793230578835445,0.5382918679203863,0.5889143035411788,0.6356510755055087,0.6786877572288663,0.7290989057803774,0.779715951549643,0.8258618863525,0.8694432086693773,0.9198829650964497,0.9662040568634671,1.0,0.9943795466819632,0.9565961030082875,0.9158277172773914,0.8789683714759322,0.8287236446538055,0.7794815822303582,0.73804670898279,0.6885568428935724,0.6379155190384265,0.5872735072867852,0.5368759341088203,0.4939529757457324,0.4470903234295669,0.3964738463662063,0.3484089937757049,0.30660237258939516,0.2632388486066637,0.2288400202627221,0.2265603760862165,0.23797260283643173,0.2325170243620942,0.2191175320440102,0.1918987385499975,0.17419216772851853,0.1673620612710125,0.1750280341903161,0.19072741799679416,0.20601140228926473,0.2071109942652447,0.20638888083124307,0.19497817030224818,0.18411928757120588,0.18368293539758263,0.18982468421929388,0.1974289039080379,0.21166108027707287,0.22475650291334937,0.2325191682658203,0.2469070160824951,0.2660672251940954,0.2909653498102558,0.3180172267756731,0.3494051836047758,0.35891373448513786,0.34077009158322236,0.3080271008872577,0.27609321617604277,0.23997799677433407,0.20134971321052642,0.1679193032237023,0.13319888757321197,0.09717135719919456,0.06364567963677437,0.04059799871951797,0.021505146225440752,0.0044561916951506575,0.0,0.025874506278604992,0.04999847049028672,0.0669576925860893,0.09590798804228595,0.12903162175595373,0.17169801260026674,0.21589711904125597,0.2574334356817811,0.3055343639199757,0.3446293025575313,0.3747343186060159,0.4226231983112876,0.47325968559858733,0.5239017318498314,0.5745437781010763,0.6250630144209173,0.6689655530637246,0.7147533876528338,0.7652385097217635,0.8093414299013921,0.854848514049483,0.8949254231332553,0.8938408243411899,0.8732402976948794,0.8356593607163374,0.7942435182365393,0.7444572716549622,0.6938154826600198,0.6431810752599971,0.5951738658303993,0.5531845042186783,0.5030083246902981,0.45236645093707084,0.40219879432659855,0.3600643092665403,0.31225123678828925,0.2670563502021257,0.22262585171438398,0.17991617176669306,0.1717735589875964,0.16568669801459568,0.1550015607991473,0.13246105144524667,0.11739022429533486,0.13173893461952457,0.12863774801518657,0.14395855442787497,0.16511853096131301,0.18853241620177918,0.1974366998581012,0.20642879160723204,0.2071120993048916,0.2077990344195222,0.21284382666244506,0.19865183301419043,0.2063057181311454,0.2181309626179888,0.22582821364529182,0.24174846415652684,0.2573399269367931,0.2791488040913319,0.3061563786106247,0.33980000992395665,0.37319761586025013,0.3936705779763874,0.38899173007332566,0.3631918695883112,0.3303356169693874,0.2975304036742936,0.2570585053974064,0.21396527705946755,0.1784175934985257,0.1415030682742211,0.10762797213340147,0.07550775182235148,0.050677074983735304,0.03650026207053969,0.03817897085138844,0.05319180389369449,0.05946951443861015,0.0817631710939628,0.1181619046651412,0.15844474774356931,0.1996385323160561,0.24124577857218577,0.2887352210006311,0.33172311460906734,0.3785012646905752,0.4289300584727851,0.47209061425192855,0.5186707012349552,0.5692855728081132,0.6189446304993647,0.6604308102869392,0.7094528042410628,0.7600375245328177,0.80531008735871,0.8497189154909628,0.899471781594126,0.9393992951571,0.9567851740814226,0.937650698379823,0.9047027984351117,0.855564310907825,0.8052115410679725,0.7626524974577413,0.7153870280157051,0.6647585708765185,0.614116524625274,0.5634801105667693,0.515098806931769,0.47338097923424005,0.42330982170899345,0.3734762192872343,0.332009211164046,0.2865648115889865,0.248353933313193,0.2233254490454757,0.2344943291617385,0.2421884279724471,0.23652665675894546,0.21238174919975772,0.2019537699367846,0.2018517466120351,0.2068770753363367,0.22328922376535498,0.2364101745338556,0.24296183116594783,0.2515583098184635,0.2454867922242856,0.2514041540969514,0.2550471362655389,0.2642814078561049,0.2727602065523147,0.28704411801820706,0.28943581082346226,0.2911017132814342,0.3092884696280649,0.33528722990402926,0.36170509510001025,0.38241007908076163,0.39432584311014907,0.3838336577757895,0.3540901580765685,0.3168280472453162,0.28001649673156725,0.2461724494016253,0.21242287828859796,0.17865624126219504,0.1471042140801453,0.12883708361419655,0.12480357324327862,PM
0.23666785403380253,0.24299990858726872,0.2558356350911428,0.25933618127758584,0.2608861977614463,0.2626372761758824,0.28652488106143914,0.32082506798569965,0.3549971669551719,0.39114956982969873,0.4254657564545863,0.4636582327008567,0.4973439856945052,0.5343516020171495,0.5687211915962791,0.6050080198933085,0.6437069848253032,0.6824260289169932,0.7211450730086832,0.7598585938122875,0.7969705464786407,0.8306839513955111,0.869063401869264,0.9077822980557397,0.9463010745871991,0.9757009304758906,0.9612713601034275,0.9230898066730611,0.8843708106806278,0.8456536199363878,0.8079387122420632,0.7745223937025878,0.7364518971682115,0.6977335579764987,0.6590145138848087,0.6204472171554765,0.5861270354932808,0.5529612748546209,0.5266084932204931,0.49900181270062527,0.46400248416839696,0.42957494932871154,0.3911508184306587,0.3567713150131473,0.3205102056594751,0.2821123788913522,0.24829155090309718,0.21132465614645235,0.17374368019182884,0.14030765923458954,0.1043035322528213,0.07307822409476883,0.04453071472042569,0.022054252775137062,0.01275502570972209,0.007131221573378976,0.002070298531862136,0.0016597900958088552,0.013736709026747285,0.03535014217882482,0.05974508712866977,0.08719697610183863,0.11485250622185439,0.1450587668533796,0.17593587958509316,0.20565673928187822,0.23653238439640378,0.2680989046048281,0.3035456315477918,0.33366954296111473,0.3616204223836812,0.37791907616587905,0.36439615572736317,0.3446476824400697,0.32258273437864116,0.3028711002027047,0.2845158648868491,0.2729762244550591,0.2653048106699971,0.264396525758249,0.2668776382745497,0.27034140309230836,0.26513937516707786,0.2643758457342631,0.26436535454514654,0.2619033848028831,0.24829910024246504,0.24370271518025488,0.2502671396821039,0.2629274101179797,0.2655628975837341,0.2649367006696255,0.26989829076564464,0.2941640118486557,0.32738484401499957,0.36271792584863416,0.3988621081682806,0.43330098492529245,0.47099974713824055,0.5043950444967924,0.5423671814773223,0.5810747044681379,0.6179213764670466,0.6518337627593627,0.6896067803554116,0.718710916007121,0.7538281507544129,0.7920900955343746,0.8256798615404852,0.863009897045959,0.9017248008443448,0.9404438449360344,0.9789072795500446,1.0,0.9708343454561523,0.9321761420750185,0.893457097983329,0.8547381981894087,0.8163723444271669,0.7826973048929338,0.7455337623511993,0.7068198452791996,0.66810080118751,0.6293912835365367,0.5925840134495046,0.5586459629394589,0.520182534855963,0.48160439923682685,0.44722489581931546,0.410963786465643,0.3725659596975206,0.3387451317092649,0.30177602247922874,0.2631473524726029,0.22813384564207717,0.19253934702204822,0.154764033925743,0.12166537462574345,0.08903256631695244,0.059819723025403726,0.03423794038943051,0.01953593043630042,0.01057895502788564,0.002000664864513446,0.0,0.002873018249873849,0.01901711920773763,0.04177968861249026,0.06781193717532663,0.09628793888248122,0.1253310680873958,0.15460483114060053,0.18506184733868158,0.2159344299865389,0.2511948273801423,0.280436194568624,0.3100408397926149,0.33911761391012507,0.3572655967242899,0.3464935939269189,0.3272202271424771,0.3073428950526458,0.2888958994887454,0.27729359239607554,0.2690440070560218,0.26453866249501634,0.26638839173384565,0.27109672622147785,0.2713329223028984,0.2713329223028984,0.2713318943861731,0.2705266402620854,0.26094811896946735,0.25027635253895864,0.24709453848532426,0.25902039786483666,0.266278098199759,0.26894765690382805,0.2713838577810408,0.2775444531758313,0.3052739902840671,0.3390422695969675,0.3775033243894135,0.4162067506326306,0.452742319730955,0.48683896530089754,0.5219281576670336,0.5571703571910647,0.5922537625919102,0.6277072122741107,0.6663817738599711,0.7050063335335013,0.7398629401959831,0.775616899083138,0.8142999824724102,0.8530162747156527,0.8906552439445352,0.9237379123981806,0.9403866816351489,0.9082861146043351,0.8724711970089849,0.837688941860266,0.7990743118570747,0.7603552677653851,0.7216640499273999,0.6856232413446057,0.651026864980291,0.612437059152946,0.5738340237012403,0.5391876177940065,0.5032092324276165,0.4645190285077547,0.42617221014162854,0.39255088214308853,0.355314912748975,0.3167121338201495,0.2820172001875114,0.24609158928820296,0.20853351896343275,0.1751293134224392,0.14018895345003823,0.1055157422273435,0.07505111529869712,0.05401472120079376,0.03879472948282492,0.03005955686508477,0.021267821790060593,0.014773319471903856,0.018265345485574458,0.03309925091207455,0.053309493995866375,0.08022670170139945,0.10683298423562226,0.13509549652082176,0.165638643931304,0.20101506849593131,0.23090567393412798,0.26057603199125956,0.2907070473604181,0.3193526722772482,0.3452973614455934,0.3553892528447009,0.3375487801502526,0.31724537145443565,0.2978870756450265,0.28013671429087306,0.26728300263804305,0.2587626555280689,0.25742130999498714,0.257911259685329,0.26312567729487,0.2639891183279257,0.2588840403051047,0.25742165899392244,0.25741698679425706,PM
0.13430774477737595,0.14834313282336642,0.17057525589985545,0.1941712308771013,0.20569431914239633,0.1859039487913403,0.1545264942294884,0.12096413603818124,0.08635190193234843,0.05268534192085128,0.018394951870858933,0.0,0.004364469159251483,0.011246912993263636,0.024096441966706683,0.049601334106818884,0.0868628198717718,0.12859128390838492,0.16993634151576864,0.21370949538141804,0.2556062596615094,0.2993345475271514,0.34182421327809154,0.3881719157905499,0.4330872389771596,0.4731510039342617,0.5094227802731361,0.5541504159463169,0.6001699264933202,0.6418030911660284,0.687002017269396,0.7335094641060469,0.7787469673163123,0.8203420368371701,0.8663544450533089,0.9110362574694142,0.9527728695813351,0.9873443137643514,0.973735865765956,0.9290433962075295,0.8825282431372308,0.83604589745895,0.7921437426411173,0.7495363727305269,0.7031596623166367,0.6568033601099739,0.6143135381518259,0.5702803092043864,0.5237911517847775,0.4775494679107368,0.43557078770725477,0.39092781098458973,0.3446644980642717,0.3025785825371323,0.2582989710180852,0.2163674431344309,0.17719400351512538,0.14978214254920097,0.14738131907691931,0.139079559840128,0.12257381237247689,0.11164483327789476,0.11849966245285981,0.1339799146909011,0.13574733880233536,0.13162065641109888,0.142191152996632,0.1623643608770391,0.1872564949054969,0.20992883638614712,0.208739324539015,0.18228725336255058,0.14955259852443437,0.11064642853158113,0.0755656068158983,0.042524295971573256,0.01305752968230034,0.004175805021728096,0.011606870994404495,0.023079209065921424,0.03954723247864722,0.0635257980502042,0.09983472528924064,0.1397076108313915,0.18130445079981605,0.22325374247927066,0.2676746822568903,0.3096277020133311,0.3556893470539,0.3981188133996949,0.4421683986238516,0.4842832425059125,0.5199445050938631,0.5618216139826742,0.6081534456393312,0.6546709879822521,0.7011885591038571,0.7477061302254608,0.7942233286325588,0.8403069263696414,0.8819826937070159,0.9270466614005697,0.9706471110752983,1.0,0.984913027143679,0.9424614991939675,0.9009915150483325,0.8553254071092098,0.8088142164650558,0.7635144232829476,0.7219238612749064,0.6759580315012064,0.6294411188993481,0.5829516271444857,0.5388862682191295,0.5001873485675761,0.4628397075688231,0.41749462696514184,0.375934493221213,0.3315096409727032,0.29005052696755373,0.2456871597764514,0.20540309140318014,0.16973342403250724,0.16041879089043065,0.1515639560567401,0.13321866864502274,0.1219296265952261,0.11831816333920386,0.13011636643692093,0.13610697815478567,0.1313548494929795,0.13265901915178135,0.14909589910556953,0.17271811056588238,0.19841254720680013,0.21416188835979844,0.19773308130696354,0.16505411306492324,0.13252869454763494,0.09837802185326772,0.0643324827934546,0.034430760691872564,0.02573328410236586,0.034810286329482576,0.04274376305193517,0.06002553477000716,0.08701677670763885,0.12492760059495156,0.17073958166681402,0.21289368007727982,0.256903064928367,0.2985758476811815,0.3436085048701978,0.38749354400184277,0.4301045247116859,0.47648190273230595,0.5219115662799663,0.5634490840663164,0.6093370421991957,0.6558511236567017,0.7013990147014297,0.7429115488818758,0.7886863072509434,0.8330488336533362,0.8751454745878973,0.916871880111368,0.9349364483757225,0.9053648669115553,0.8599241290536384,0.8179166973613856,0.773316729495447,0.7268126448911805,0.680295073769577,0.633777502647972,0.5872599315263671,0.5407793723672314,0.49692604141162056,0.45427425459384163,0.40806877319176227,0.3656599264790681,0.3218662359612443,0.2800250395752053,0.23690676815330702,0.19855800543590596,0.16234765703022935,0.144237935737894,0.13529122002213678,0.1200665592965997,0.1054222391557611,0.11269437971044516,0.12528235872666094,0.12281310718478156,0.12146207739356396,0.12546666937109485,0.1408681204998754,0.1651824152803416,0.19102985075368029,0.20109114094181968,0.1798230494120734,0.14866797098809137,0.1139870602034252,0.07555892157634436,0.04058117024227181,0.017059767912109502,0.016553133314144652,0.02471359766388803,0.03779097309592494,0.058023592414047975,0.08914125052794564,0.12690796504076696,0.1677781535244809,0.21158646548246995,0.25333566930632045,0.29726016512851094,0.33950730711933996,0.38557570734334745,0.42769833820556236,0.47216512728262594,0.5186649680060025,0.5642942443001411,0.5989344403942782,0.6293581956907719,0.6603659226683747,0.6914133851852544,0.7254314523945851,0.7663715199633214,0.8104163248821172,0.8566063788838603,0.898567834796755,0.9426855520519217,0.9774482815765044,0.9660781854397187,0.9249433501339872,0.8785947172565194,0.8336542809906069,0.7918849365087377,0.7457348467672447,0.6992179110116596,0.6531796039772546,0.6115589604108878,0.5663611145650662,0.5198538804384096,0.4746213319754615,0.4330023681909754,0.38703250787280696,0.3431311655877467,0.3008868671474336,0.25937279013045433,0.21920092744903696,0.18263855509422178,0.16021551285242364,0.1561908168808448,0.1407290999688795,0.12042242904065392,PM
0.01504906752880053,0.04375991711547533,0.08267887220802095,0.1251358124170694,0.1704349256382609,0.22066441175050933,0.2703520294926365,0.31941266676514946,0.368598846597633,0.4180520691258317,0.4673476571901246,0.5161508683880501,0.5650651971451263,0.6163773642455163,0.665912004877092,0.7184777380293726,0.7678724787728756,0.8206977265950802,0.8742612892513827,0.9246476611064555,0.9705547472058788,0.9737536571542976,0.9298128083181071,0.8768654642614387,0.8241873309912572,0.7747464531965368,0.7216368625922845,0.6683044723014319,0.6186708685679664,0.5664021683341484,0.5128936880325056,0.4627213311547983,0.41115721977053343,0.357565981257827,0.3125686150899939,0.30218598548079123,0.2846943250529864,0.2696765911506367,0.29087421160047877,0.31734060384184504,0.343438577286557,0.36353332172413466,0.35584499830704186,0.32152237677381523,0.2799995887400514,0.23629597672585156,0.19176183130866964,0.14603232211352146,0.0983419623163474,0.05523733296437794,0.023965783142523955,0.03492077007529282,0.06358870785407078,0.09977460347282974,0.1456217595561098,0.19433036471996956,0.2434906129849811,0.294378500690578,0.3437525168327472,0.39357920227231713,0.4425152954296184,0.4913951997603597,0.5409802189102734,0.5943439044054041,0.6470890615986703,0.6964840596010403,0.7475916326815571,0.7972877159696173,0.846778068455677,0.8987198044331665,0.9485553876683902,0.9929401336141396,0.9874283237026532,0.9408289896061471,0.8892970003952495,0.8393248155502294,0.7858630292991889,0.7333880624734396,0.6838709396661607,0.6306302429442018,0.5769918942384743,0.5258354030516889,0.47529785040160644,0.4217226249519349,0.36944426817557774,0.3282699738126361,0.31369023838212795,0.2917606647245006,0.28242811388254574,0.3071726644933469,0.33114134728855793,0.35207871794151313,0.3583166854383869,0.3325609808942306,0.29325649833139267,0.25040546643330686,0.20588434201163686,0.15755482475159555,0.11200647672721731,0.06827018079842406,0.028925544738565234,0.012853902082807789,0.03602943055301466,0.0660654336297587,0.1084720306770266,0.156602208166017,0.2062327622640796,0.2554990262108704,0.30668710163945956,0.3558856009085366,0.40503097152289624,0.4576502600884428,0.5077078959690778,0.5576722420341295,0.6074399106198197,0.6584667733227848,0.7086947295319289,0.758685839650998,0.810182658661656,0.8605678557229296,0.9117035690468441,0.9610298951830077,0.9867597965706246,0.9551209917587654,0.9047457647342189,0.851886512779824,0.802490605026379,0.7495933970254848,0.6959043911883261,0.6422131248734643,0.5885218585586017,0.5348316313029778,0.48169216623585187,0.43225179141798054,0.3796134350990027,0.32913924775798253,0.30659414046441136,0.2923231429209945,0.271017815301392,0.2829158512100185,0.31248874198959575,0.3376615625069074,0.3623103699221918,0.37130183600064515,0.34463867209443844,0.30434061657718636,0.2577401334334146,0.2121839446443019,0.16735142548129056,0.12218395851792552,0.07895579754897086,0.03936460197388392,0.024472715158677327,0.043290242012637536,0.0744768877110894,0.11868547648848893,0.16724925376973754,0.21979837983839645,0.2730779473719156,0.32257168298887773,0.3719321867940092,0.42086709305226255,0.47033317261896823,0.5193414092695833,0.5657438848317305,0.6086447226327364,0.6570772951459182,0.7093852025126454,0.7588408517006539,0.8105272782488521,0.8598504954263432,0.909895833498055,0.9560991091730012,0.9624032160363077,0.9163464141861374,0.8632138500664385,0.8137292585491521,0.7611724803187058,0.7075283136738925,0.6562033483918267,0.6058199878137479,0.5522917012108918,0.500725685712467,0.4505590881372802,0.3970804023231954,0.346158614142008,0.31109488131343144,0.2984491867790239,0.27602187665332534,0.27495161953579295,0.30403032812901654,0.32785335523830705,0.35455844985025264,0.373377731234137,0.35970232991292306,0.3195447366880394,0.2763260594667539,0.23243762355035735,0.18697483804293102,0.142187710949925,0.09794884221316869,0.054642839694133194,0.019163051886885607,0.024217912301193745,0.051679517525096696,0.09284460676030315,0.14175493205555068,0.19055768689856878,0.2394918936389665,0.29032102226341816,0.3397896921837401,0.3887321167367833,0.4369052262536529,0.4849923437081979,0.5349105141690872,0.5851397767925487,0.6335617351848711,0.6712013954621027,0.7149883469239643,0.7649004463253596,0.8160633988776326,0.8664370298474803,0.9188739831797573,0.96785755451283,0.9999999999999999,0.9761121293765672,0.926187061162714,0.876557181248831,0.8243305412849585,0.7708132089546901,0.7205949287406334,0.6690836460219237,0.6154323489080299,0.5630186684268322,0.5134652787306037,0.4602012377358412,0.40727210678515025,0.3586612767951217,0.32624293050744557,0.3124982310179524,0.28963238486450427,0.29403069334068477,0.32004424023448597,0.33743418651295987,0.3535113439490426,0.34387103539031927,0.3063673773067469,0.26368876236213457,0.2202135560672448,0.19042587016560908,0.16586306049334298,0.12298508295104471,0.07827391666813954,0.03348354439308632,0.0,PM
0.1583012341034169,0.15077766932822279,0.14735067677079794,0.14197536938654132,0.1345979604164158,0.13195383131867544,0.13941161283261327,0.15022846152893088,0.1613603263540453,0.1829041060912353,0.20495952965276198,0.22701452400277988,0.24783084533727862,0.24642031445310786,0.2192573071169499,0.18942378870351262,0.154685512751648,0.12141295190483237,0.08906564083902557,0.060102514255295336,0.04078359555407718,0.04860673160443141,0.06585231788148804,0.08071821078444352,0.09585235378995471,0.1159288421481226,0.13429004033137493,0.14822140344553159,0.1606568859185864,0.17644908293910078,0.19766995074850557,0.2216566574079042,0.2542079040836862,0.28774417458265655,0.3139581167545684,0.34876098653344556,0.38992148243910774,0.43340554554715127,0.4702203262394056,0.5127022964245145,0.5566460353955078,0.5948200283065839,0.6355119533215192,0.6791114882474409,0.7161362368801982,0.7582907583129828,0.802396418472048,0.8457211642830815,0.8824106069195676,0.9250836151525896,0.9609642372708929,0.9577054438991097,0.9240471519755795,0.8848256511130339,0.8407945529586192,0.799146490290203,0.7617730846219644,0.7181954775253194,0.6833327613338076,0.6486946811017908,0.6093346975742335,0.570096597795541,0.5260565223111833,0.48194532558221037,0.43783631408353796,0.3951598117233457,0.35844944042889115,0.31504073143740396,0.2710769073684305,0.23268329129252474,0.19827555496081462,0.19601367717115248,0.19088998560011028,0.18066688786707008,0.16348736749509696,0.1441199410302152,0.1220923380925798,0.13244910221831785,0.1543902461556257,0.17439744305373206,0.17940954594467917,0.17945251340770096,0.17945251340770096,0.17945251340770096,0.1797431993730143,0.18636569802864722,0.18898094489771244,0.18899270271745316,0.1881992093307454,0.18081980057653935,0.17726731308857424,0.1703225513227813,0.1699141621809368,0.1713959745167839,0.17994449090139408,0.19551132722629339,0.21747974169119821,0.24100565749073555,0.2662185350350501,0.28229026867215423,0.2702843115879139,0.2407040697656344,0.2180674523389372,0.18712864976627674,0.1530720714584637,0.12195267159206225,0.08999314497506017,0.06403504173313412,0.05043947251529124,0.06870186888122642,0.08468030780504088,0.09942963353711831,0.11635500342697491,0.1307041129765052,0.1433380004868996,0.15317153163775665,0.16286600723276945,0.18462009143091973,0.21316435256807087,0.2460423372956413,0.2795775988580622,0.3088012406168408,0.34113764623638354,0.3827337130793935,0.4260354570093947,0.46272190983759987,0.5055177614692117,0.5489605244386984,0.5856798651579957,0.6283114754777839,0.6722371533942249,0.7102103037622713,0.7511195327893616,0.7952070747627613,0.8370275338056574,0.8742497563043332,0.9180064860268646,0.9620307120745948,0.9986405928394566,1.0,0.9677770967486325,0.9245699350321521,0.8869522914889503,0.8456010483781697,0.8014989568478241,0.7574235620320655,0.7171316134554457,0.6785760197126138,0.634594759555247,0.5904835628262739,0.5463724483024059,0.5025990725965508,0.4653148400908367,0.4235727084802534,0.3794681688047241,0.3353674037205505,0.29367588024970326,0.25635004546613827,0.21626813814377188,0.2025947024485273,0.20713714105022762,0.19722360436787545,0.1831383571628813,0.16761752028987353,0.14363663058933018,0.1524158383006735,0.17286702346919292,0.19308447058567024,0.1984807953230716,0.1985336926543304,0.1985336926543304,0.1985336926543304,0.1985336926543304,0.1985336926543304,0.1985336926543304,0.1985336926543304,0.19830006963020486,0.1915946973936522,0.18141175421297984,0.17445297214946232,0.17001189351609813,0.1746743515361957,0.1837030183680901,0.20104965071854597,0.2289760018210909,0.2529141843752565,0.26383962726596955,0.24815417929186645,0.21707586934769885,0.18395551794938303,0.14891240782795134,0.11537601461955727,0.07767212973310289,0.04368486650292014,0.01573873129392611,0.0,0.007212005704920976,0.019445386172017187,0.027467671440202013,0.0352497754591401,0.040762657336814945,0.04779608308168326,0.061465225811359714,0.08362798588451437,0.11503688666861844,0.15037395079219773,0.1896281836869378,0.23305316345754012,0.26986794414979487,0.31234991433490333,0.3564209293659917,0.3964420847083503,0.43523359278330354,0.47925091109384677,0.5224437147641678,0.5591002695095602,0.6020461241121757,0.6461429296950341,0.6873405125882446,0.7250918856504915,0.7689487127323487,0.8129171042022771,0.8513321081649896,0.891770588761676,0.9345377284894538,0.9579244401679063,0.9416104332302488,0.9074696915068974,0.8646930855386907,0.8223469252071198,0.785446248539206,0.7418981848575656,0.6977871355308509,0.6537021614554992,0.6131786475724863,0.574843980626986,0.5308829382382731,0.48677174150929936,0.44266694795195183,0.4006160549036428,0.36352449828981714,0.3198675442167225,0.27575634748775024,0.23165355162140644,0.1901968747419025,0.17109162918087617,0.16532951533992168,0.155665853938866,0.13581204057694007,0.11295272434894454,0.08500910324069877,0.06910790930055555,0.08522162196733163,0.10586904283311394,0.11258655646928073,PM
0.11405577088069907,0.1138740679771375,0.10597278538851151,0.08389312215958666,0.06293734263049244,0.04649611794714659,0.030641950625360126,0.034259727401900086,0.04919350824842916,0.06658285125532326,0.0835645617481311,0.0994414571596498,0.11530554610873645,0.12897521070923856,0.14046231822395616,0.15991655666093818,0.18402626995829974,0.21617543662058103,0.248801010890769,0.2820579361083426,0.3183965950975798,0.3525784770153484,0.3892087885528479,0.4231003278849679,0.45942890738539277,0.4922499302489043,0.5250261904030049,0.554888751135052,0.5847427080065424,0.6145992659907422,0.6467963037408266,0.6795434341144069,0.7146081781411433,0.7491332476819013,0.7867258627768008,0.8202139247284066,0.8596211845533133,0.8976406102118495,0.9309206957521292,0.9651922682441847,0.9742242599836026,0.9513884094452703,0.9140542507488898,0.8793612602765326,0.8430381609509388,0.8033117801127432,0.763557104004835,0.7238024278969268,0.6840477517890184,0.6442930756811098,0.6045409017353176,0.5663748850392385,0.5331550369000932,0.49390917694712,0.4543298071746824,0.42002791255969263,0.3832603798338534,0.34365823404285534,0.30905524429536446,0.27263352789535444,0.2350103521271889,0.20243674846569326,0.18577565800283247,0.19667490642012897,0.2131182248905581,0.21765674819691982,0.21696668140916842,0.20767143802280952,0.1943891364354957,0.1781774870381081,0.1660932138525042,0.15602933276250663,0.1490382531635832,0.1549885969860625,0.15575642708753268,0.14916042083143366,0.15117949786285978,0.15897174010676407,0.16694131209388008,0.17619809202941994,0.18274597706816764,0.17781061599318915,0.16793930184195305,0.15801243881453786,0.14962568177628177,0.14859630779535982,0.14873875188527852,0.15355806573472042,0.15016963441476405,0.14701288653272981,0.13523985106234315,0.11427080392139777,0.09218834372162421,0.07000207935690272,0.04814381981006943,0.028247995698898354,0.008588644202097928,0.0,0.0023803040141476828,0.011478682237779037,0.018805454350456996,0.019105992355325396,0.02383747332482211,0.039242121703542576,0.06521517708930746,0.09688379406040681,0.12897755638609754,0.16217536144787092,0.1987248082715798,0.23269623674330653,0.26971288618468114,0.30493878893320026,0.34033779872684455,0.3737568629073902,0.4090274615996976,0.44206185882431304,0.4734024753407766,0.5015130486726056,0.5308710723225798,0.5603002010330953,0.5855301347714656,0.6205886840364689,0.6547748367489488,0.6915618377426078,0.7270417839715042,0.7625362132216575,0.8020631884815308,0.836245092487466,0.8728951524015103,0.9061166959758125,0.9232752645307372,0.9055656877964409,0.8706450428402666,0.8364364254348744,0.7968441731898803,0.7575920771231845,0.7243552910536248,0.6862112981665429,0.6465862032679259,0.6144999788139001,0.5866083022663018,0.5529030410208768,0.5133464551450957,0.4737102592498965,0.43900490718826335,0.4026889574691812,0.3629651581116853,0.32477204566983664,0.2915695813612573,0.252333468526335,0.21257904406764117,0.17314724488819788,0.1435864108275544,0.13187043623446382,0.13069406898735925,0.12804806843379635,0.12480078603503619,0.13057204353698593,0.1253572374871259,0.11981218261267479,0.12451800283265224,0.12199640150347224,0.11808251687712579,0.13379982180733974,0.13984938638936062,0.14252398523199394,0.15499399690599835,0.16147688115780623,0.16587789209958204,0.17050527004005223,0.17426161921499528,0.168438590947384,0.15848892135013415,0.14512371918104794,0.13468595849951104,0.14901270881664375,0.15613641135127754,0.1494701619574217,0.1485961746392399,0.14858033517684088,0.14579641839489654,0.1450937840364952,0.141688977121452,0.12423160905073316,0.0995884519033039,0.07852862112871284,0.05715829720976062,0.03681884015344572,0.024113825206012462,0.027078762479539442,0.03810848259521693,0.04644950076902221,0.05444993680044474,0.06257679719973752,0.07534866963608944,0.08953004409300647,0.10943836254945216,0.14044795025945334,0.1723613924748697,0.20665956888842518,0.2396541559055858,0.2772676819919424,0.31028855588667503,0.34795002326725255,0.3809178116038001,0.41734944936425755,0.45066265193128396,0.47876027392249587,0.5057827610895005,0.5369977191469464,0.5637612285580442,0.5923821424416162,0.6227124065866518,0.6601138446507968,0.6982829469746885,0.7314978829675471,0.770453403044602,0.8041551815803012,0.8415979900074957,0.8782183445338201,0.9126372795168547,0.9503131360669848,0.9821355252749382,1.0,0.9821109852079846,0.945694250452874,0.9124163203781008,0.8731363455119485,0.8333912698162567,0.795846879044094,0.7622051105539844,0.7227526877271271,0.6830739991271082,0.6479450181545794,0.612086643252179,0.5723689427567511,0.5326213982038162,0.49483085170776286,0.46136762994069347,0.42198519778637644,0.3822955313399876,0.3468643527532702,0.31130830013020083,0.27160145281600023,0.23187374685545437,0.195502503922093,0.16680215534470078,0.15035775218201453,0.14974956763752,0.1600577101124856,0.17194987229015424,0.17431926591066071,0.16794316579230584,0.15173515165606544,0.1366596748371236,PM
