0,1,2,3,4,5,6,7,8,9,10,11,12,13,14,15,16,17,18,19,20,21,22,23,24,25,26,27,28,29,30,31,32,33,34,35,36,37,38,39,40,41,42,43,44,45,46,47,48,49,50,51,52,53,54,55,56,57,58,59,60,61,62,63,64,65,66,67,68,69,70,71,72,73,74,75,76,77,78,79,80,81,82,83,84,85,86,87,88,89,90,91,92,93,94,95,96,97,98,99,100,101,102,103,104,105,106,107,108,109,110,111,112,113,114,115,116,117,118,119,120,121,122,123,124,125,126,127,128,129,130,131,132,133,134,135,136,137,138,139,140,141,142,143,144,145,146,147,148,149,150,151,152,153,154,155,156,157,158,159,160,161,162,163,164,165,166,167,168,169,170,171,172,173,174,175,176,177,178,179,180,181,182,183,184,185,186,187,188,189,190,191,192,193,194,195,196,197,198,199,200,201,202,203,204,205,206,207,208,209,210,211,212,213,214,215,216,217,218,219,220,221,222,223,224,225,226,227,228,229,230,231,232,233,234,235,236,237,238,239,240,241,242,243,244,245,246,247,248,249,250,251,252,253,254,Target
0.7639868125946911,0.7277304128289535,0.6778078882630001,0.6407526895517672,0.6411001612446174,0.6509291900785366,0.6575173079522303,0.6700564479620845,0.6953807514409429,0.7134802979684389,0.6799500073018048,0.6288237934618879,0.5883911623337656,0.567931883416438,0.5723643814104205,0.5770715679360876,0.5727383044723999,0.5796573910256924,0.5849679045390528,0.5921845389709115,0.5967199942675139,0.5888476477562277,0.5898924508742716,0.5889674157172191,0.5813860108574378,0.5640042774552656,0.5595556461379554,0.5516500304005099,0.5566584717452219,0.5640265419491002,0.5534818538897475,0.5049504582471511,0.44314212329061164,0.37804743366907245,0.3216272695315745,0.24546332746348165,0.16457819110426763,0.08957660633250675,0.023619317409383722,0.023642950206348656,0.07817044577673493,0.145319054009037,0.20257931568105736,0.2759015205060482,0.3568160046595146,0.43785011114202277,0.5188487157775661,0.5959190294737886,0.6689452248895331,0.7495783953376178,0.8229086341053327,0.8121704342848663,0.7518972176097503,0.7048489041485517,0.6614662733104488,0.6114802451366366,0.5759801279853463,0.565316214472676,0.5736797921075549,0.5851145270405294,0.6016292225730613,0.625084092075098,0.6334706086409758,0.594925630712718,0.5463077492484423,0.5022531261825434,0.48619692003620685,0.4921701479832925,0.49131572378270816,0.4880888633844316,0.49554671287767027,0.5105393888358514,0.5181635051578006,0.5190768371740844,0.5147286848440813,0.5175832521868948,0.5207150734052177,0.5263141021167297,0.5284383644186987,0.5291584185569957,0.5357847101814837,0.5500711860453784,0.5748464315997883,0.592965024605494,0.5628175007760123,0.4971402965250671,0.4256966852613848,0.3454404387665442,0.2644443282664337,0.18767207717491763,0.11444828003404428,0.03890495565439389,0.0,0.04290530003329218,0.11962348108917209,0.20050044186136184,0.2753931590663701,0.35041824215576134,0.4313356941465365,0.5113858780646254,0.5761510416173357,0.6493444804366515,0.7223378434988552,0.7993074681502663,0.8678986390155652,0.8462557779394673,0.7967401387712121,0.756098070435999,0.7008629051515096,0.6566728300277025,0.6386829125697857,0.637763878255758,0.6538501724773211,0.6695591416396991,0.6949149659046241,0.7098406662464312,0.6773182977190371,0.631370338927661,0.5875072885781849,0.558693594723344,0.5546766308328759,0.5628849358266688,0.5697398383291445,0.5753932923452592,0.5690965691037242,0.5800272023589756,0.5890862665957917,0.5898121259419753,0.5996248550094267,0.5983662974590418,0.5977270749320458,0.6016194688083707,0.6102196051328055,0.6490521011505117,0.6546659967284811,0.6467882685255142,0.6381771206469731,0.6426986817914613,0.6433503150065567,0.6440858555834956,0.644768643185655,0.6297632288012651,0.6227214780788444,0.6181007888127965,0.6093214594836023,0.6083631769465105,0.6014926570803096,0.6032314798368339,0.6353184195270716,0.6842486148859197,0.7288244460603241,0.7491060112938515,0.7344357680651861,0.7052797021120387,0.6877420926893434,0.6740274303008276,0.6786691606122037,0.7031190255060147,0.7611012042170597,0.8119337457781084,0.8471547599162328,0.903032831616466,0.9543451174971627,1.0,0.9744258283530605,0.9039815844237302,0.8241218764171938,0.7520373211531202,0.6774308345548823,0.6147274406971479,0.5364291151096672,0.4573639451706264,0.4294197261233583,0.4907104891014902,0.560101141263663,0.616640798414716,0.6258671285125632,0.612263408590322,0.5883958008536165,0.5773035864791809,0.5695589451882914,0.5714652125257533,0.5728260500135405,0.5623716772063492,0.5608673727120785,0.5600897189004368,0.5647658738818484,0.558863373814465,0.5483977597350367,0.5312538173745347,0.5324686483700038,0.5352839449806857,0.5286990344267761,0.547923506901357,0.5992705516750836,0.6466319527997819,0.6806441482850913,0.6748876888073103,0.6490796297715824,0.6283051756724634,0.6183426978156756,0.6109612219419636,0.6163896641566087,0.6477811092882395,0.6987764638840859,0.7419681310199726,0.7885896664341967,0.8500651323548691,0.9255867002952276,0.9878900512640909,0.9895662538375296,0.9244432385002503,0.8513679006000219,0.7706955634282768,0.6919074682025808,0.6200384710874762,0.5399803342915066,0.45894791552293523,0.38005576583248124,0.3619668669391001,0.4253730508855591,0.49470725821516326,0.5588287562276442,0.5920285369114549,0.6105880545447651,0.6040371057862681,0.5931878429332453,0.5977420453405111,0.6038246005741819,0.622793710878998,0.634977861380579,0.6366612451075628,0.629419575033511,0.6366884745596084,0.6343572341502379,0.6247343233960101,0.624709839888633,0.6156339966703488,0.6162593520299349,0.6224044287619264,0.607266911480687,0.6196467475035732,0.661215046609803,0.7077723150701489,0.7489841084394397,0.7550248158694259,0.7288485093761929,0.7040113356600797,0.6922629052400762,0.685709414299287,0.6852840667472311,0.7255266619427241,0.7712877447243751,0.8109260269258765,0.8624313200108147,PM
0.7997901330252841,0.8102942699086952,0.820772895004831,0.8261815303244373,0.8237330414260113,0.8393129942258872,0.8686654992498728,0.8929547009395171,0.9148731686225169,0.8641616432754269,0.7916562305399697,0.7250683338682287,0.6530606604211397,0.5796945936013689,0.5119580809986275,0.4416702568214397,0.3681283742991024,0.2984300309615444,0.23016884731385012,0.15769127595233257,0.09543257776739489,0.0856603068414088,0.14579215789959832,0.21907746522861782,0.29128151636252264,0.3578245603305903,0.4304399226515485,0.5040247816466781,0.5737665719661547,0.6403512445215287,0.6963489454472127,0.7468517207479848,0.7984858969080033,0.8199435775483586,0.8162832979346892,0.8008902722890578,0.7836105774292739,0.7738272609315549,0.7921620517940926,0.8179308458288987,0.8227855173196499,0.8143664162275146,0.7940280880012696,0.77858636195438,0.7767748594009836,0.7737915196965179,0.7777912624609686,0.7940031793391991,0.8224646778050466,0.8452879068616552,0.825487943456749,0.8259564212461565,0.8310742130251454,0.7670642496250581,0.6997162648941748,0.6289940536158125,0.5553886508725578,0.484167360602195,0.4180102488626416,0.35748178703790967,0.28948968309030065,0.2180935204557346,0.15123381179649098,0.07958197870529504,0.03800049594531363,0.078179783552629,0.14738063343172125,0.22087119488427498,0.2901476169257329,0.3588092284084692,0.43231684178175867,0.5056554461769629,0.5732229053010325,0.6429299289973891,0.6914057282380184,0.7019634227741589,0.6956755841194882,0.6888953416424968,0.7007303903326045,0.7242394521777493,0.7650865335597001,0.7960627558693907,0.7879860992651786,0.7814563554404821,0.7837055964696051,0.7842096126670735,0.786204228230474,0.7870713166719101,0.7969378643488847,0.7995944186994479,0.7980271896172944,0.801413570889268,0.802453154753964,0.8049487954947661,0.8068223166817141,0.809849219491493,0.8047984991214496,0.7901276941058248,0.7879206935728851,0.8033323988569374,0.8303125063311914,0.8566054161922676,0.8350721830642209,0.7637226875592482,0.6900777712083135,0.616431804378961,0.5427882821233234,0.4703154929175797,0.40379390366266943,0.33142635548503274,0.2579827663732852,0.18984461123468765,0.12002545995898428,0.048540154465997354,0.0,0.025969734337110695,0.09294275733226232,0.16647683701023575,0.239443353318173,0.3061974899844666,0.3778438770382351,0.4514738756596157,0.5235127684917236,0.5900811654235498,0.6608011540111496,0.7172799146009092,0.7435520427179971,0.7518502264345359,0.7460920416791281,0.7445742971891429,0.7579352179898622,0.7757841686593441,0.7897913168955595,0.7907541406003566,0.7874963682329197,0.7861062120644755,0.7905038138359646,0.8042337211132304,0.8333105498707349,0.8437001114266822,0.8666977913484173,0.8749563245538801,0.8476482853577332,0.8253053896822742,0.8177802356085342,0.8188499352574077,0.8233102600034927,0.8225818729992989,0.8080176237147119,0.7888688165092037,0.7767609372756838,0.7783499080703944,0.7806350553531831,0.774386219997053,0.7578238629970422,0.7171346029711179,0.6542051988107174,0.5856590892900717,0.5169180523853645,0.4435198902478321,0.38813931401751,0.427547664123336,0.49820890711495425,0.5652611166765733,0.6384126558330931,0.7114326933814927,0.7782714417285028,0.8493636224654395,0.9162283880402693,0.9653399612912639,0.9381707544694942,0.8849933045443068,0.851552387152791,0.8287677237856139,0.8215517827210395,0.8338662648310953,0.8395136231371105,0.8370572849837685,0.8330664070356912,0.8328786813036146,0.8313955326899516,0.8301108103752894,0.8282122005713468,0.8282142761557298,0.8228571638894793,0.819359825994104,0.8167043742998625,0.8163726504974211,0.8133745872913429,0.8133959061470102,0.8266048904136143,0.8257580261865067,0.7941852815328254,0.7552793925020076,0.7280166879351517,0.7188612902271849,0.7299989690235189,0.7332781351281425,0.7303069511309825,0.7009449591264909,0.6336436221940185,0.5600818635048199,0.4928252589382529,0.5038625796548564,0.568168363519471,0.63973572005412,0.7122290204844222,0.7787540972858344,0.8502619672991898,0.9135339559317748,0.9366473752491238,0.8935383560036474,0.8661073560215109,0.8825924964532328,0.8664308984802465,0.8321846349450803,0.8129837291368687,0.8049547451389405,0.807181870981523,0.8179181350309446,0.8392332165022394,0.84793115211402,0.8571054755814225,0.8479431248457028,0.8221669263002518,0.8071965549155764,0.8217965948341142,0.8371627781351749,0.8529853543306578,0.8512624966766376,0.8345773927917464,0.791216949778287,0.7288740082884801,0.6562590793620515,0.5826147787940532,0.5089861194285399,0.44313868568715464,0.4592256726864703,0.5308660412981505,0.6001843528220041,0.6687983966917979,0.7422684746776136,0.8125684829902073,0.8802392684974145,0.949615527990572,0.9999999999999998,0.9862665042284562,0.935171860929163,0.9053434245966363,0.8782782120417354,0.8596281046169536,0.8597145285692083,0.8544559034681747,0.8445866908113591,0.8322213847334479,PM
0.5395117841127284,0.5302629176634817,0.5169662751300874,0.5106628427892135,0.5087569237908447,0.5230462827194211,0.5291418901812406,0.5292139204502191,0.5292169420496287,0.5307089678766375,0.539087489425474,0.5403216272043474,0.5403236984823538,0.5408703681100646,0.5427024168009984,0.5132365200613775,0.48484666709074387,0.4858481716028413,0.514783410952171,0.540998562894335,0.5531093068516182,0.513097782437326,0.4539766591223995,0.3894118975884888,0.32596093941000825,0.25817541522797693,0.19150886415122392,0.1269686303114037,0.060976506140567155,0.03223609681429429,0.07523977628267509,0.14237126999574157,0.21340034215576242,0.2833575490840039,0.34604569692709797,0.41546649121991064,0.4862433413091254,0.550371640641961,0.6174649937778152,0.6829668037542851,0.7215667396605474,0.6790956809969844,0.6218191462937708,0.5759182872236932,0.5531552511469111,0.541270558934343,0.5394083537966263,0.5311162144345398,0.5302848515281351,0.5386807544765748,0.5433144201190521,0.5455373788823212,0.5456667848893828,0.5477330798752629,0.5575293591796171,0.5452410093080531,0.5320404637852081,0.5167413525235598,0.5115250004644349,0.5292585385843283,0.535197286269014,0.532694304632902,0.5271289120372475,0.5151791093161131,0.5112041862807088,0.5112704166769075,0.5176877239926903,0.5102441110761919,0.4848013663434192,0.45659798607271873,0.46137789341842494,0.4974507827060288,0.5307774510800822,0.5503958529129467,0.5267804485421412,0.4683927969747008,0.40073415582950944,0.3371472327232148,0.269322410578096,0.20004950551139067,0.13733122672004416,0.06814969828900419,0.0107485913778953,0.0,0.05389565325017287,0.12403099970615838,0.18769021439149491,0.25546538406377617,0.3265000897432109,0.39755666783973576,0.46861324593626064,0.5395756319422251,0.6054420392979614,0.6707607580269428,0.730576887664441,0.705717058877799,0.6485360013053134,0.5981313386653966,0.5692683552976223,0.5542968220484432,0.5422597214086438,0.5386387204604344,0.5241152309719566,0.5146725686864222,0.5167617337285213,0.5116441270852616,0.5169091461847961,0.518102840812777,0.517768097712368,0.5084209617749933,0.500068643530529,0.4960527857523469,0.4981637298657755,0.5063375785622988,0.5118183278979986,0.5158734843309618,0.5078430060852126,0.5069958446374614,0.5069949847437805,0.5064907265929675,0.48983538813759986,0.4609917151426224,0.45842173310899237,0.4852555360047568,0.5123640554145739,0.5219840814080239,0.4822254701781048,0.42051544460908685,0.3574060334948188,0.2904851751619526,0.25470584257427586,0.304845264322652,0.3752316149816777,0.4386447154106685,0.504629279962314,0.5480570661677651,0.5539291101716488,0.539383396982237,0.5130193650779624,0.49842534872607946,0.5237308218931047,0.5428706596669732,0.544763165811069,0.5447454341163771,0.5419983500883152,0.541855401131853,0.5447416549946786,0.5444974323382041,0.5376152720797838,0.5336966747312144,0.5341721981863463,0.5420568063009437,0.5506405143382838,0.5557836211958027,0.5548225268685947,0.5474984765815649,0.5541455605750691,0.5560767538468052,0.5662562064611034,0.5816192469167722,0.5815837205121874,0.584603916394685,0.59771755114988,0.63617247285501,0.6911886123760729,0.753979841308799,0.8170452995151318,0.8824384001593895,0.9425733958843734,0.9675416786425248,0.9193555468664545,0.8489306786509399,0.7825904196925662,0.7176917971705157,0.6486323812635195,0.58590456739532,0.5174283602895151,0.45473114948963955,0.3849182283143895,0.33386386963895864,0.3743304089139454,0.4366474192353835,0.5009481249743637,0.5576165247367704,0.5868702605864908,0.5828938502785004,0.5533690560631161,0.5200683685985259,0.49767616314843566,0.524024056362068,0.5448747060547185,0.5540024987597714,0.5539137171523703,0.5456853652445446,0.5486511247676147,0.5616861812967491,0.5708255171260406,0.5674870569394639,0.5619332472017344,0.5478381193022395,0.5574247730444852,0.5704833147885109,0.5862347128042926,0.5891455976240296,0.5850505815502254,0.5820840269749783,0.5762345278590355,0.5665711754507046,0.5606578633671964,0.5678497225401797,0.5734570309065932,0.5728321481566949,0.5873709291626199,0.6105383586465469,0.6618780567247335,0.7289247256899463,0.7916978888473138,0.8593173917927912,0.9218790685360057,0.984064839003467,0.9999999999999998,0.950241602521708,0.8860439781024063,0.8199589600085122,0.7517110543925434,0.6884635043639171,0.6183142706676816,0.554482116311179,0.4869301856798016,0.41709033066976375,0.39408462757535356,0.45471012084138174,0.5158918860444719,0.5690899061158439,0.5883825737313568,0.5793876067555344,0.5550028222821715,0.5287054122926951,0.5417275579363479,0.5725380018487549,0.573386592970414,0.5673988766275344,0.5729213201936167,0.5687809413921554,0.5669895462379859,0.5659040696527073,0.5577723205413616,0.56179778361228,0.5576899836285254,0.5542677756533294,0.5421500205926741,0.5439090735764984,0.554873523360502,0.5663180466450866,0.573655642469038,PM
0.24245471162134935,0.22537465487213382,0.2106004363239058,0.21624659020903803,0.20207967983407293,0.20313448383767563,0.22301171646198492,0.2239004620705587,0.22687643910394417,0.2392910205130323,0.22317405559110703,0.20678621627331228,0.20938494345062875,0.20804241064994766,0.21285379231174506,0.18590904950014586,0.15206508254347373,0.11101993678239896,0.08572496080731273,0.12707279772118119,0.17934999356890113,0.21442967344321007,0.23279839005097624,0.1770025188841453,0.0902340384586986,0.010686845095395636,0.006940547994531254,0.09076137856145472,0.17037444646824218,0.24137207898594149,0.34597762301533885,0.4261293381433817,0.38419191201204406,0.30394422831007395,0.23867345634374626,0.19274671681200184,0.1727788964864838,0.15072962131574608,0.12696695566181004,0.10444180402521797,0.08103433377511537,0.09654318685563279,0.13297079474305384,0.15427660886767836,0.1739969487393629,0.18727487330984083,0.19559163686419412,0.19460411261550936,0.20191806543257673,0.19207245333643463,0.21341601740873273,0.2149006772903692,0.18114872425536,0.14299036690936262,0.11249827237962284,0.13114781459124236,0.17567240387869631,0.2093228267193843,0.2315377281403621,0.1923694682044208,0.1078372230048883,0.022339607363285996,0.0,0.07303561115170654,0.13225654522847075,0.22352244281623523,0.3202422073825937,0.423889929757975,0.4794851274084624,0.40875229839869354,0.3292675681088064,0.26405343664116554,0.226547982760966,0.20868683450795755,0.19619480795449906,0.19223419670476538,0.1951418319567484,0.17936373418830254,0.1955950918377214,0.22280787376561895,0.24826574694042902,0.24600930917641106,0.2639016826080933,0.2603175707089118,0.2372635919219288,0.22464514796407986,0.22581815292498808,0.24298314298386803,0.2596231334888053,0.2741562369404851,0.27383209814725884,0.2637066943778934,0.23016993620320347,0.21931251240976124,0.24643255268688113,0.29556894421489854,0.3189180950614241,0.37327246653986235,0.372163377672293,0.2912659354918463,0.1970833039260933,0.14818581933296526,0.17695795121650182,0.23095778052273275,0.3226521239753821,0.43077778957641,0.535173618397538,0.5755269275248578,0.5065873034557407,0.44252905335931736,0.3730839786801021,0.3586521602290058,0.35993927568279993,0.3475004370405421,0.32303927662416054,0.2924538614228829,0.28595761471643977,0.3039464265322902,0.339589460901359,0.3362759749180415,0.3527978458296044,0.3461642756444179,0.33941555997701256,0.3463273691075459,0.3923895174447112,0.41826975578014114,0.4281935532221359,0.4098878763760192,0.42849060395549854,0.4208035876193059,0.38935847367642085,0.3767680305978005,0.382404258506996,0.3889693794146054,0.4172891286031666,0.43406261597414053,0.4740872753534098,0.48734107856504894,0.5335251766038951,0.6106313114627682,0.7073233042208247,0.8158952991443535,0.9165960530988708,1.0,0.9983659005081793,0.9141060001871968,0.8129432598101416,0.7065857657105079,0.6109135172412254,0.5032475742792055,0.3992267949033277,0.33159745485783,0.3057762961593298,0.38499093608277013,0.4618980541227744,0.4920405496092801,0.4647902846591627,0.41860999183526104,0.3740325007114942,0.3242014331057623,0.3178217405648227,0.34975182197771204,0.3575524120414433,0.3455701093387389,0.32994074415896124,0.3214992479703156,0.3059345216680276,0.2903284343321366,0.3158973678426662,0.3271502814951437,0.323640266478995,0.3173320435343694,0.3085364279476064,0.2869126872871455,0.254741494839025,0.2615114956797129,0.2776918527613286,0.27084743431894287,0.279650244840568,0.3005006887925634,0.35343968284240823,0.4411042323431644,0.5356355065610519,0.6304711957597293,0.7093354056584174,0.7087668666407234,0.6273406792360929,0.5320685891736834,0.4249301172870492,0.32876833700408525,0.23708625391264393,0.16614571987419557,0.15088309977332193,0.23603408159920702,0.29661557585724285,0.3092034859114783,0.2922900954073544,0.25010254864907955,0.21424360120753683,0.19448618721544975,0.22771008287288375,0.257792405071005,0.2828928693328545,0.27803771250107845,0.26024630132462834,0.2505785333466033,0.2559762785287938,0.24948430579346148,0.24402905242792672,0.2265122800339019,0.21034308311094163,0.18412526458768363,0.14722641298732775,0.1559748056849828,0.17990056078032612,0.20296597201359656,0.2256461930234277,0.23295143699195808,0.2678740979648029,0.3286514799644773,0.4186177896264138,0.5177171112540222,0.6114771027833945,0.69149023522816,0.6944115658519281,0.6157103861780695,0.5179421055567266,0.41701571901423806,0.30987324972911656,0.2330718572706174,0.16773012708170487,0.21190899234685645,0.27260011497726744,0.2845007485884956,0.26183723216925303,0.2234082377793234,0.17985550172948805,0.16315987753071415,0.20046098823814074,0.23613549695712344,0.25879302335423304,0.2672076042024214,0.26308092352529444,0.26500325396771895,0.27761815714762017,0.28535418671305735,0.2817689101805225,0.2736383631251016,0.2843233560456979,0.2722495019116531,0.2648168371099313,0.2653632767745746,0.26417061195034286,0.2831689139029976,0.2964627665300541,PM
0.7910600557096226,0.7920470347095345,0.7714217595467399,0.7282008232003427,0.6841094671556185,0.6915800456110361,0.719268709944229,0.7280891998483967,0.7260607051980219,0.71029373143527,0.7024793042837143,0.721582607673275,0.7410726965792445,0.7145301430882474,0.6323792449785439,0.5506071110080539,0.4632806518659327,0.3757909516266247,0.2940119169847626,0.20661618982927676,0.1206150010397189,0.05565901896523007,0.08332940652169574,0.165291943867371,0.2486201726241648,0.3369682340956961,0.420920399104312,0.5051896697996237,0.5937851010772979,0.6811969696202698,0.7629258970441943,0.8382899460997888,0.8290297774867641,0.784547643069637,0.7644955842458234,0.777198433922891,0.7848788870355601,0.7561543839751792,0.7227513024048726,0.73465532766624,0.7469722341719158,0.7468385837655644,0.7481024732353658,0.7393457224840045,0.7324829362186569,0.7531559583350254,0.763166050548804,0.7499402911254831,0.6766557800847346,0.5997873673157172,0.5285856535144531,0.45765549333293043,0.3870137364416435,0.3193737476004175,0.23616333810920986,0.14750953724977178,0.05931778273097221,0.0,0.043391667427238545,0.12477736771588599,0.21307515754428663,0.30063755251244384,0.3824320843774309,0.4697657590399691,0.5584690976750197,0.6471439948642119,0.7328496237045272,0.8151844562980513,0.8762445957984493,0.8428479623520742,0.8142884664017815,0.8036303719449351,0.8142361094016575,0.8094574489347695,0.7742214976487709,0.7446836659006977,0.7609146560503945,0.7723908578933238,0.7850667751428491,0.7857244441126676,0.7633983083210172,0.7564387036163602,0.7668578274262479,0.7551497609972131,0.6894779180555572,0.6017850206969657,0.5130784291091317,0.42437040147139293,0.3356626003639689,0.2473645312149224,0.16480388248944977,0.08013001904120909,0.02007240668564081,0.05579964538964943,0.14077909338653283,0.22256032306012163,0.3082593553837143,0.38352756447302605,0.46825508232543167,0.5514782104528546,0.6365011631504935,0.725139236721065,0.8116912260082614,0.8634296386478062,0.8249607110136472,0.7859506954007716,0.7624117361241678,0.7618434399282059,0.7663998378414798,0.7403734370592305,0.6992081183767498,0.6984778198122663,0.7207942647949623,0.73479935989108,0.7402947832751416,0.7396677680945556,0.7270935082674099,0.7451295654099761,0.7580072723781326,0.7325769562211522,0.6502677212117078,0.5615790619160739,0.4728710342783373,0.3842123282286123,0.2989620128304582,0.21591577259543837,0.12889114213301256,0.06183213582861424,0.08365901901505945,0.16256058184646183,0.2482836318799002,0.33671535609926884,0.4199105949948645,0.5049907260446687,0.5936413123060087,0.6822413279019546,0.7664386713992335,0.8331356060097372,0.8154034337633986,0.7765919340158411,0.7875328092312257,0.8322633024245545,0.8898680527919269,0.9591137928127598,0.9739561945180402,0.9051402372487156,0.8218826516613125,0.73799640960619,0.649438285987884,0.5618081834497601,0.4807076348683448,0.4347997032897426,0.500632160112009,0.5886787219578835,0.6710341136676734,0.7548570606609144,0.82341118811403,0.8161318678356388,0.7885016653511785,0.7693572197022107,0.7657300913721741,0.778084055835351,0.7709319255898817,0.7558740918903339,0.7370903903263417,0.7461752571731268,0.7843534896633866,0.7988272941977725,0.7930922886473728,0.8070811943445653,0.8466317903198171,0.9085210443415557,0.9786259282992869,0.9919945656192397,0.9210747660292216,0.839631190872276,0.752431748991401,0.6648493579174348,0.5830670470407593,0.5033491263563206,0.5141481187277017,0.5936883680261447,0.6787141729924941,0.7633626566812304,0.827887679154728,0.8155733589519876,0.7987812615023004,0.7876169512180806,0.8001145955995093,0.8171528433864419,0.8108022841842932,0.8038617086928928,0.7899360196197631,0.7987984080125803,0.8371635034772735,0.8491354710240138,0.8448362528579114,0.8410412255429947,0.8673477165244907,0.9263644051837574,0.9957881524233256,1.0,0.9281888538479584,0.8427637394146781,0.7604986790763604,0.672315470915585,0.5836559499833491,0.5057590060871704,0.5241221668835769,0.6095687177551479,0.6931363010117289,0.7773345662574478,0.8411990295821137,0.8187566699001223,0.7919514990319483,0.7699678891389108,0.766884637996059,0.7781106620157385,0.7791911732469239,0.7778023693632716,0.7696092299058317,0.7594343182358612,0.7926946182250962,0.8159051586325297,0.8100581698874498,0.7983386041056331,0.8114138711651417,0.8578440277353456,0.92846919127789,0.988134279463988,0.96674863747735,0.8867086634388663,0.8033555462471278,0.718593072709345,0.6299612952568707,0.5423144603086165,0.5026413905792295,0.5720812419876808,0.653864079021353,0.7395392724421834,0.8081032241026183,0.8000894886582788,0.7671048528349922,0.7468624779302182,0.7345454568892995,0.7558229348870105,0.7592409042894861,0.7573798985502123,0.7477973059739746,0.7232700903805345,0.7322633238558429,0.780161320267621,0.8158810913357111,0.8252633211560088,0.8237818769930538,PM
0.6598764619524182,0.6965094284282873,0.7301784117927028,0.7451679200396015,0.7471320841625682,0.74849691978415,0.7445283268434535,0.7288707169006912,0.7361128526505967,0.7471661255989737,0.7041250993548576,0.6467181782914784,0.5883441229095954,0.5273408361653518,0.46803099594578207,0.40615562821074747,0.34519153156122306,0.2852212762726624,0.22457428009737768,0.1644263692224471,0.10357032783532982,0.0451191762789199,0.023656471364630435,0.0740338843011501,0.13326902959668216,0.1951506766764864,0.25823192422642594,0.32129202955881137,0.3824854093837233,0.44231771362872424,0.5051664937807587,0.5659068795855742,0.6261275401282684,0.6876396658379622,0.7460433857749309,0.7962652667391548,0.8178083931845261,0.8154282271189297,0.8196997893479236,0.8425766469538467,0.8775804187966814,0.9192665237254638,0.9521541794268706,0.924366667150766,0.8724088996514274,0.8232250345964491,0.7814724948655658,0.757280042550529,0.7525343252989953,0.7636569819903409,0.7800008548270112,0.7866314838265558,0.7869788004421658,0.7745304259452781,0.7800477366440928,0.7909107341833161,0.7476945359409233,0.6897937899418425,0.6308372116035075,0.5718314883427567,0.5099443864476456,0.4502348875069719,0.38889474628668363,0.32582846567029566,0.2627416445753731,0.20044065005759176,0.14123891393655671,0.07952351177929251,0.021933539736584698,0.0,0.048796814182421294,0.1116580097734226,0.17352435309873226,0.23288043528991792,0.2955686021300891,0.35865806321266025,0.42163623716934656,0.48185668917206165,0.5426136088424274,0.6055235448844878,0.6656613738992594,0.7264456640632331,0.7870418082451003,0.8420007886162106,0.8586480304231361,0.8586797483072601,0.8662727727573822,0.891127134503757,0.9286919931296764,0.9686888481828166,0.9676519058819619,0.9208083584156854,0.8712838078029244,0.8212302755905254,0.7853555979568465,0.771146870369849,0.7736147880076929,0.7857174614911699,0.7903545038998658,0.7890573190945656,0.7828754075163264,0.7659777302541535,0.7689270205213572,0.7873326046982629,0.753159836817062,0.6962024370386204,0.6365884184505775,0.5774433661037282,0.5159730490087657,0.4567646552749131,0.3950710841544557,0.33581964472212555,0.27372506857901474,0.21064058975192634,0.14756544847147546,0.08598981242288767,0.03332430424134447,0.03813913049952507,0.09661607579327536,0.15737129742559897,0.21757700409155317,0.2805535235817225,0.34361127642496403,0.4047480412781521,0.4646289135604669,0.5275440872243862,0.5904277814099577,0.6501910573536445,0.7114286913945429,0.7723407216162399,0.8289455231115521,0.8548799975957033,0.8530631621218239,0.8600737355814005,0.8835616391684649,0.921471303951638,0.9551642936560858,0.9378865619374168,0.8897667953206785,0.8404326349612914,0.7953881938349379,0.7696821687773621,0.7622735986073426,0.7755204131604478,0.7911727563010822,0.8223207198038127,0.8702441040203697,0.9218458163999252,0.9680089885795797,0.9849127751242868,0.9543008194820548,0.9136652280687092,0.8819969904652929,0.8707149390361832,0.8721346237106162,0.864386416509126,0.816854373431128,0.7582375405579713,0.6979580195251178,0.6376794712331271,0.5747008642828928,0.5127332299063949,0.45342734218550124,0.3907918644593066,0.3278717005313198,0.2825179133457999,0.3170012560123339,0.377062710240973,0.4374422930327852,0.49882347203425675,0.5584396996616812,0.6212703127835788,0.6835244531100968,0.7412872900826935,0.7921492638614112,0.8054004895355396,0.7883999570870719,0.7980551634476523,0.8062031468685844,0.8074171039641214,0.8017963264815269,0.7908287581671494,0.7902148684691843,0.8142270065116679,0.8592264993847332,0.9113019563277012,0.9619103948938896,1.0,0.9920222558820988,0.955741696194043,0.9150861184984989,0.8862715366540266,0.8764752490091423,0.8789174864069587,0.8714601810528939,0.8225739271372483,0.7627496393541398,0.7018826923137687,0.6418694721297717,0.5789533920911156,0.5176991511715991,0.4579171497034286,0.39559858472581105,0.3613349987922653,0.40411385065400257,0.4590877516243587,0.5169644115957976,0.5774968592407257,0.6366796972536257,0.6988540491122832,0.7574615485664333,0.802803540883712,0.8155495559946788,0.7950739480255611,0.7988677712316652,0.8086291949440254,0.8060459481682771,0.8017393436618161,0.7862474738948593,0.7794350695065226,0.7788280892534019,0.7913884747305457,0.8321985889533507,0.8820442204787249,0.9327300461322772,0.9745126173075471,0.970413820624737,0.9303421840783999,0.8882237362297924,0.8542424279058811,0.8388572276145942,0.8351870060012576,0.8370099892401699,0.7989797300767962,0.7416460556373878,0.6810831519344438,0.6192352682049289,0.5599048448101616,0.49724077099125014,0.4349578464424076,0.4049576240078603,0.45053641348845824,0.5045077344022877,0.562098819246686,0.6216160091258189,0.680192334620066,0.7364427973779182,0.7736096227604288,0.7652541141273608,0.7509501396038274,0.7628428072126876,0.7670892056157925,0.7705775070827738,0.7631351573745468,0.7564893480598789,PM
0.36994635542956633,0.3404612510398075,0.28867469289717773,0.2753878808617882,0.2554483302297803,0.2447793418713755,0.2511194519968707,0.29516733894312397,0.31913866476307096,0.31659658169440474,0.2990012843981509,0.2627361709206806,0.25941371599572616,0.3075816678264376,0.3835624651477416,0.426812337197112,0.4770105062149157,0.4301299584167628,0.33318663239299573,0.2658477244549373,0.23968595621573252,0.33484439167863345,0.45607306660124003,0.48637290893548135,0.4075262258799661,0.36606586672880503,0.3613462991590901,0.33520049925379825,0.3103297027960745,0.33822301185673354,0.3974046405864775,0.4679884018987992,0.5418247279178989,0.5733493687926456,0.5419216271274263,0.5165766759780985,0.5220150554836076,0.5268591982200057,0.5336114824899187,0.5624538208043814,0.5496848562203778,0.4980106747560131,0.4636587820830589,0.462123708530767,0.5293300391993623,0.5813639110997371,0.6114874024777683,0.5464391945319442,0.46106887447723555,0.3687931867607417,0.3131044664993099,0.39446328140431675,0.5110283696322786,0.5898571400879864,0.5409208856758294,0.49659573466717966,0.46220537542050844,0.4347094326498362,0.4219789824076825,0.4469044787826668,0.5050744701570364,0.5589054801825455,0.5257519518172407,0.46933236097491626,0.4371439337308045,0.4333717545764286,0.4149881265986064,0.40412716385850933,0.4089504077534851,0.44719740062235536,0.4361535492536701,0.3807773878834002,0.3108424413762174,0.2784336604843527,0.3296538254195567,0.3939545062844232,0.427990356796891,0.44363298810029894,0.34436201622499407,0.24117752159780625,0.13544304619762304,0.03389726460088838,0.0,0.09620595386569297,0.2220848056577318,0.3385144951851884,0.41498135479389253,0.38890723954336437,0.35764137456745404,0.3220043462175921,0.3021261840765739,0.26800426170185876,0.28853135708759714,0.343167770550624,0.407160590589688,0.4465990122171757,0.39887558378438115,0.3797161582342641,0.4040076887622397,0.4211252981683833,0.43718773943549394,0.4740708664770037,0.5276507261072947,0.5850000985296004,0.6264837807610375,0.625036509280644,0.593342127896276,0.6013189960459151,0.6669671310008898,0.7407493701455259,0.7937268843788194,0.8490484791438782,0.814075099102963,0.6988693382428788,0.5955977639684731,0.4838048849605294,0.35463930510005737,0.24237320440369148,0.20613071855974763,0.2888565004495338,0.28231929869536954,0.20765031663166633,0.18875224196160767,0.21711647069319673,0.2530316381250568,0.26249418098675603,0.31130906711342465,0.377160732580339,0.4472233597800517,0.5340706242052753,0.5798149341140086,0.5219569794100769,0.44864633305252477,0.3837072364434082,0.3400722214502676,0.3120504241297146,0.2708923557157239,0.2773796221802991,0.3624214357444737,0.4565577699404697,0.5070942357132671,0.556910601217333,0.6613455472247747,0.7819976617892013,0.900497555068617,0.9873307646194864,1.0000000000000004,0.9158247864556888,0.8423085592023329,0.7896627850234306,0.7194405919512841,0.6598520591958756,0.6794262087019791,0.7003301735592937,0.6766638623114587,0.6325290632921674,0.5720305583040157,0.5224760047633525,0.4928818910577748,0.47532708546964075,0.45933936872857917,0.4671707845479216,0.5087755112730998,0.49170260107926866,0.4324758527502235,0.3751025209001546,0.352643417190762,0.37331191926976093,0.3957746688251085,0.43207562560519186,0.4772616791318556,0.5179861085006019,0.46273967115071013,0.36871884269713995,0.30990487310918224,0.3807690960283714,0.4984234622148205,0.5868666712884845,0.5911040182695264,0.5224690600908102,0.4742453238147579,0.4370934086578018,0.3693382885760097,0.39735363407480184,0.45824946057753735,0.5111051691799666,0.5289223369544538,0.5010540783347652,0.4736311933328956,0.4858913873370754,0.5006368732315907,0.5114332884567099,0.5518980596323142,0.6060739633304979,0.6328933299098569,0.6042992597433336,0.5382724320525503,0.4955784687273814,0.4936761108638814,0.5367516243968122,0.560653187027881,0.6041392296375987,0.6774850886818427,0.7449746704845421,0.7130395068906812,0.6017938382990233,0.5274927200634933,0.5918689420091345,0.694087629589502,0.7515384714044608,0.7076489596024884,0.6517633358336057,0.6089305406764374,0.5404151916608928,0.542052397699798,0.6033176094669437,0.6675267063876835,0.6500873520662611,0.6180185455766689,0.6116601287743753,0.6043615077408862,0.6105040486639699,0.5900740520932599,0.6078846766949062,0.6433331243233886,0.6504799275902267,0.600451505674723,0.5197605225192046,0.4431525634346518,0.40108023486247113,0.41266996670709233,0.4305756378954282,0.4650133304781119,0.5431464276054636,0.620022882492413,0.6441239794717477,0.5506919023377548,0.4743061313166099,0.5470976611719771,0.6091872782483225,0.5697584511975289,0.4985933448184108,0.45727297630662056,0.3844899564605617,0.339987975726713,0.36318108706263574,0.38747621275880517,0.4043261348292577,0.3880475168960422,0.3535485535629035,0.3339927293851983,0.34176381833963054,0.3756108462366208,0.4152734036103589,0.4443618181858704,PM
0.7400043671639803,0.7354563319768525,0.7099217034907289,0.692150152342322,0.6944195549257607,0.7186837023251992,0.7501794338629743,0.756413385012792,0.7030929918636214,0.6330460200412152,0.5620351683809449,0.489471757350305,0.41562986212413733,0.34600829462917504,0.2764794863601525,0.20348523806043228,0.13369255027885374,0.06173973187600135,0.0,0.002480142839886068,0.07124572412439567,0.14735027523256072,0.22192238908134554,0.29183874690055456,0.36720430052192554,0.44335122898159385,0.519495822791696,0.5944611380239099,0.6642630019319301,0.7387396568029213,0.7945570971438615,0.8010039200103897,0.8007767151145365,0.8074906779493031,0.8278879183062712,0.8588694909775895,0.9047575734734957,0.9489661959932992,0.9493800259999935,0.892898791722886,0.8326471973743749,0.7791439650470197,0.7373437519925613,0.7203081226825067,0.724728317888648,0.7350004037263212,0.7450484151930786,0.7482111585042709,0.7501222963318189,0.7444764323210121,0.7453255406180722,0.742378580152781,0.7410055174128677,0.722953375191291,0.7098060688788802,0.7154416422131255,0.7398571480677104,0.761393801359635,0.7305071671679583,0.6628024026283995,0.5929579741937699,0.5181717630055679,0.44885506866450375,0.38593559691710466,0.32160258298680955,0.2522875473685833,0.1804644386973029,0.11060564371572479,0.03876392712148913,0.016388848010960633,0.07750692822866723,0.14834001342187764,0.22135768427769686,0.2974620285269324,0.3736008622918153,0.4480002929558812,0.517978658912995,0.5934569256150649,0.669481746982992,0.7411970845038457,0.7993537951960473,0.8018532578321172,0.7990816711671614,0.8098133246200191,0.8258635370517066,0.8571384012563509,0.8982739598971224,0.9420456786908794,0.952315871475447,0.9029196637805076,0.8440684812608875,0.7876565464605442,0.73988221607958,0.7194095571626756,0.720308779325698,0.7271143531514902,0.7431776089773953,0.7466382244286386,0.7480775707342858,0.7475718524751417,0.7431054978858646,0.7456558403025039,0.7389743852234135,0.7159257281311239,0.7023243261085413,0.7176270157412424,0.7487796535232701,0.7633115982704152,0.7241671658279639,0.6555934628264423,0.5860632984941171,0.5131062893041619,0.44300963353545286,0.36991999260659825,0.29994031405489263,0.23010224706512372,0.15911718738164626,0.09148207251142582,0.04229035898310374,0.07785244650200329,0.1518405430407499,0.22167991497212458,0.296522286304577,0.37266612399940124,0.4488071591472317,0.5233495172156483,0.5932758333881761,0.6685468055471747,0.7403407978025279,0.797397888527385,0.7996981296900966,0.7944708520940554,0.80327527453351,0.817653925467933,0.8439445206418174,0.8853487699809087,0.9166650855771489,0.8877660536196855,0.853518313395952,0.8334894161241758,0.826614077598829,0.8298167113362459,0.8404495698403086,0.8056489912770662,0.7328569904451029,0.6568644899286423,0.5852561569263827,0.5129427301182198,0.436876257532843,0.36084944889056525,0.3020806213076709,0.33813083482015815,0.40777555660011056,0.4800897675619479,0.5498925542798522,0.6226797201016289,0.6928203610951046,0.7629892370415176,0.8199447021272447,0.8116709703627302,0.7921490183232053,0.7644462958030186,0.7391687792282878,0.7398982296430997,0.7641913247003104,0.7728872564916301,0.7716032384517862,0.7741281135952681,0.7758260219550649,0.7778411907595936,0.776363298191837,0.7639847560649488,0.7523967321879529,0.7461628279739795,0.7613160179622563,0.8071894943319115,0.8689755959447957,0.9275007214871432,0.9793219338774694,1.0,0.968431713886723,0.9229577307783136,0.879812785026865,0.8495834073608447,0.8331116241377047,0.8303542824909521,0.8439760062262393,0.8351826172560314,0.7749923872941181,0.7029379979773641,0.6274535740714725,0.5573417026391266,0.4831670034946506,0.4070306860112579,0.3311013538932135,0.2775601962375007,0.3173459615973506,0.39212715625750716,0.46813700413177906,0.5398143680571083,0.6116890736444177,0.6819154731043716,0.7504109692027564,0.8127904859524188,0.8194349680707705,0.79286599160743,0.7656700603395942,0.7427189686428884,0.750004656107894,0.7668576624853346,0.7715886864471392,0.7726057175723567,0.7708607086714859,0.7754829626924028,0.776378903269274,0.7718325106886365,0.758527233085217,0.7501783953590572,0.7499916119920683,0.7735504878959555,0.8244560760770835,0.8833723945892883,0.9402390730249915,0.9892863972353038,0.9951916218767048,0.9558929409213645,0.9086849468356245,0.8688574341562606,0.8438992035021388,0.8301083233199927,0.8303078721623768,0.8423849075474893,0.832277417285186,0.7664846052012563,0.6943941569075444,0.6226959805430307,0.5466809816845694,0.4705614083083368,0.3971252437178915,0.33516744214637095,0.34995284158973894,0.42038878138710933,0.49107732358879497,0.5663647271440247,0.6364697595492946,0.7074085707329226,0.774932201216154,0.8227728119493675,0.8034261600060745,0.7867613087001643,0.7562265144825636,0.73477893848965,0.7473427125547923,0.7664368695924814,0.7692577542979872,PM
0.0,0.04493921078668639,0.12360671384448962,0.17581983177068738,0.12556547682567465,0.055417012474039185,0.008668125586486441,0.03472507290255389,0.1065326582121442,0.1918047966085472,0.2902542021653429,0.37037268708221016,0.46249596927878067,0.566798755290246,0.6625392724600869,0.727936807602543,0.6660209466531273,0.5738842109676863,0.48494760776704804,0.40180579793531046,0.3339397912141948,0.30083426891756804,0.27830413424372336,0.25706246503617947,0.22801986703248445,0.2074765837626329,0.22975801891018421,0.2811828601418307,0.302375648686114,0.3114608156976464,0.3063669937280993,0.3058722030901493,0.3045015454536879,0.30570559360796534,0.2864084911646356,0.26278364680905875,0.256238306545866,0.2838801360801353,0.322350215207041,0.33678317886566567,0.3072908220111994,0.22769852161400572,0.2165311745153049,0.29897775835551266,0.39257073856203495,0.4895954773990929,0.586545575463598,0.6891085153412486,0.7653131460414964,0.7289811677783462,0.6364750929688185,0.5441165632260068,0.45701855552343473,0.3771362991092577,0.33763246876224273,0.32299449184812734,0.31479166941874603,0.29691508956569623,0.28069650423760373,0.27301568824057276,0.2981449326034775,0.3232144742229701,0.3404108058237292,0.34215475166983,0.34419017921176764,0.367821076731653,0.37301294775790006,0.3728460645737133,0.35861533777942856,0.31410138382415753,0.3121555714951578,0.3325311853652899,0.36951734719677565,0.3626898506723124,0.32200726975747185,0.23318123468223706,0.21017015425908858,0.2821692966807683,0.37139409935731726,0.45252361683170883,0.5405610487467059,0.6413996322363433,0.6988174534954841,0.6348688876841606,0.5379187271462691,0.4594530161771193,0.3965714355447496,0.3591511292260463,0.34709322841348844,0.327300037572112,0.30766709955719507,0.2821264393871512,0.29571213537152574,0.3355180580548949,0.3627832793819501,0.3726204461609488,0.36916577475227075,0.36615995555397496,0.3599738366520324,0.3470578278178922,0.3146292814504601,0.28120665909288634,0.2919683590316653,0.32339484160524745,0.35422017543087203,0.3198391801988516,0.23240365655550543,0.1619305537867579,0.19277269765735539,0.2806712359167054,0.3713328105868403,0.4548313212337354,0.5439165527013909,0.6439358377629192,0.72356622196783,0.6772323620681415,0.5862752614145623,0.4970251881589405,0.4162299679386534,0.3591610192429806,0.3306549628155333,0.31059014683774433,0.28778804369897437,0.264558295837509,0.2530972351166769,0.2833414911388885,0.32213929642687344,0.32405047544499843,0.33227526242350724,0.3658440416482509,0.37281369771776096,0.3661848231269669,0.34095518183562423,0.30703578386721664,0.3172690042092865,0.3390624220858742,0.3594309221215315,0.38162445184219584,0.4225563379955728,0.5005893499048348,0.588036872758982,0.6778270080042581,0.7705412568825787,0.865702999874254,0.956035781304694,0.9999999999999998,0.9392439745383421,0.8400834250165847,0.7450714985306475,0.6416794323272372,0.546478924983995,0.4445452743739515,0.36634288035672236,0.4016175826375237,0.41519686597320127,0.40313783981659745,0.37518141221906576,0.3456372979577014,0.34072497047148764,0.37141217609749266,0.39956420847382,0.41029810755488616,0.42050057564771914,0.421388152446007,0.4173735709320272,0.4060978072340544,0.37555963886853294,0.34275488200932913,0.35370936613396897,0.38100238545405696,0.3965178192095389,0.40499614635907766,0.44136981993196867,0.5119646335262666,0.596695891602131,0.6879143781551889,0.7755518066879012,0.8539509415916402,0.8387984355730913,0.751585547798993,0.658824726069742,0.5602599068906089,0.4649755821830521,0.3926238508033848,0.42760629887038326,0.4311167395153792,0.4196612992620421,0.3857674719199802,0.3709193584373869,0.39602870005012636,0.4177608171483238,0.4221001271155165,0.4295531878492096,0.41840527200342437,0.40907911895769655,0.4228659277270965,0.40773375980695614,0.37024022874689,0.32981605994744734,0.33749514552973525,0.3598630773296867,0.3731576406253254,0.3810519588139696,0.4071596495071821,0.47498628932365095,0.5589264632437774,0.6526439794860652,0.7557976998121194,0.8498799873742919,0.9403874206595717,0.9933431189090276,0.9446938954034512,0.8488816588134036,0.7541103032415666,0.6513967072783708,0.5509515272861456,0.4559027075641062,0.4040702543531911,0.404691661639377,0.3840598975906715,0.3527220270267939,0.32725396109072036,0.3265317557012042,0.35371709194837586,0.36223543425705906,0.36086876643827615,0.3573671362220925,0.36653907313295986,0.36069791594599443,0.355703360816207,0.35175379932050554,0.31859386901087583,0.27113129711096673,0.26470577028445397,0.29011364929486283,0.3184370898503943,0.3379910350941666,0.3571298672696892,0.4143902358125573,0.5031482577003035,0.5939801059412988,0.686147193925289,0.7783501792799592,0.8705902946418236,0.956607244346033,0.9668075321849383,0.8798595035944683,0.7750823029040401,0.6783304768907332,0.578248401204658,0.4780887172952235,0.3849728884991903,0.3532145443001806,0.37803047139227464,0.3742555651244064,PM
0.32863509552900805,0.3759081898772294,0.3343394593835294,0.2614329340008008,0.1948131184700208,0.14855503536635783,0.096568307689882,0.0376270678274917,0.0,0.007971445173763358,0.07174274365079825,0.1380826576313945,0.1910885815667509,0.2155696485554488,0.1595729008229836,0.11698706548232218,0.12663873308473894,0.1723992928411482,0.1885822603865468,0.21357183393121915,0.2851684101228402,0.38377652095005477,0.49015485587649765,0.5974645917204287,0.6928454775305597,0.654621694721627,0.5505845309745747,0.446426945410328,0.35111237630226366,0.2923855697129083,0.26659403526316083,0.25460188290821417,0.27123578032974205,0.30496240952141385,0.36527678318842227,0.43818722775591334,0.4987206015866823,0.4752350668223957,0.40619613981896263,0.34591734876195224,0.29790104196876044,0.2782274390641488,0.2947711822689998,0.2906685374002791,0.2606134475418709,0.25205879526152186,0.26517193830938846,0.25788058390429125,0.2552899486875244,0.3183906182479581,0.41014471266183694,0.5116566205649749,0.6173959385767778,0.7162347871706585,0.7210518507504533,0.6204258875447133,0.5123206636378614,0.4070469366850116,0.304471940638396,0.22590192372245266,0.17531177243531237,0.13134894627724014,0.09747435511380065,0.0962460653178665,0.12804022003785454,0.1917365693348576,0.2629844592188757,0.3255918911671558,0.29721029174634594,0.22163165916876082,0.15593399033104527,0.12399704887413332,0.12936603639429478,0.15987074634622633,0.1502030852834806,0.13453246683579367,0.1610706604950507,0.18898311062551443,0.1893134943808148,0.2258911599370963,0.31583798326154255,0.41957721656828895,0.5227305917142426,0.6294264673134324,0.7098035438428343,0.6580029442908475,0.5546592792518106,0.44489299155330153,0.34058277900582246,0.2390084326993751,0.18799785765024035,0.19613920304869836,0.1858146503910021,0.18965905219568135,0.21868152672853602,0.2780107699466523,0.3518619917921395,0.4292953046095338,0.48280323980768625,0.4443786109299328,0.37551559057281425,0.31638263127390864,0.2752082352757066,0.2676737380048042,0.27250016941034394,0.24967834724517823,0.23199449670588912,0.24673936699413135,0.2462349196068372,0.25122555154184445,0.30227078041468136,0.3960658137444715,0.4980209145158816,0.6024138788160087,0.7097299090782792,0.7785234348099572,0.700907588880018,0.5967117360760721,0.48665495885597254,0.38254246839139716,0.27957122847617644,0.2117516195820639,0.2017204701041786,0.18990231968931992,0.21741537277609524,0.25021860577410315,0.3013654080349091,0.3957446586832969,0.49947893558200906,0.61092404718244,0.7171029632592267,0.8248379313879775,0.9265603562368683,1.0,0.9606525039640066,0.8576024684838797,0.7508295586278702,0.645757781292942,0.5595999732629133,0.4599401269413286,0.3602038599359898,0.2934179030452917,0.2913204681591064,0.2823971702448347,0.2876454459560178,0.3141756616003293,0.31973115543754593,0.3038107598306836,0.33275839300995713,0.38549413276226696,0.45688471590459256,0.525624412376299,0.5380922861545336,0.4806142311625843,0.4037045297003172,0.322868756835351,0.26154329383907937,0.22716189390953945,0.22270490838393275,0.24829479299596757,0.28553556337540487,0.37308598619341193,0.47679177424130925,0.5880939757916348,0.6929927020880804,0.797758707149518,0.880095481931952,0.9098106157796848,0.8374413021173885,0.7264612697499557,0.6134329230255653,0.5090809405743397,0.4041730375274768,0.3073215088229255,0.24014600529665886,0.22838834751013426,0.22666237138478618,0.18547790968326527,0.18625761057441093,0.20144728638500276,0.17824194709335117,0.16179142334824625,0.18292790065961473,0.24126043547316112,0.319343839916594,0.383941363055071,0.37907411870089325,0.3149366344901785,0.24630923572971097,0.1769837640158518,0.14412474135171438,0.1574887920242647,0.1922232523819094,0.24661096698827212,0.3035905949990232,0.399171800876708,0.5041866751074626,0.6084102113183474,0.7209727825355885,0.8274540900397316,0.9119439433903831,0.9043247921880808,0.8286592318898909,0.7258751363878457,0.6210268460762358,0.516286299461481,0.4132872643263985,0.32076283989258325,0.30077264113950264,0.3138921905779184,0.3060624590991079,0.3059680060186394,0.3336686299398406,0.34406609880632555,0.33384566261182247,0.36229456120379266,0.4253584671027162,0.49052941083997226,0.5495953670369391,0.5425708887195886,0.4801944669823395,0.40714775715767626,0.34611746389257103,0.3078624383910733,0.2931613374688742,0.3129914320024887,0.35763319709626495,0.43889545529140905,0.5325905544528671,0.625061492114269,0.727540284209323,0.818450438431519,0.8345630262762227,0.7446698609516327,0.6397580817914799,0.535272003186924,0.43214957569107426,0.33079535590051634,0.25403282436487684,0.23482641050390196,0.2168586306374256,0.1758375887811039,0.17279951523102666,0.23237887650092226,0.30632121882583885,0.3923924258710896,0.38806842301688027,0.294887348131438,0.20644291085083744,0.18518293897802973,0.2113392273248933,0.27484225233846304,0.3514769810977283,0.4147324313081451,0.4182927091408186,PM
0.1584670957224339,0.15129940199049585,0.23049211079845522,0.3200842703806277,0.3681922706285765,0.44642621980149944,0.5414678394568768,0.6474743798112006,0.7252838589842581,0.6597704893231056,0.5508720811796515,0.45393196091769106,0.3679842489663838,0.29507171718048575,0.23896138539727518,0.20743847110581548,0.20564112522885436,0.21338990462642693,0.2326485672936296,0.26219349091494015,0.27972002518609473,0.2801456757526881,0.26641465418610544,0.2468634904110063,0.24315887668546443,0.24333305738205135,0.25267345951041165,0.2655039832166666,0.28521137718684253,0.2984818426323925,0.2871369620824735,0.28079497280126553,0.2807391111202646,0.2807137442614911,0.2743835229281153,0.2326189468430151,0.1918518260234907,0.15739607479694984,0.17648253346018494,0.20555724700588707,0.23215649773944413,0.2292132501297841,0.20207223028556243,0.1605090751439202,0.19643619924704314,0.2892034994129755,0.339706108381963,0.37806533386189045,0.4707608334523701,0.5695615605120117,0.670164038953935,0.7198729806768389,0.6363879866350368,0.5274080468681639,0.4312646157325615,0.34530409920776517,0.2668164541773317,0.2118409375099679,0.1714830938322609,0.15182316610210878,0.1654546880437784,0.16862133661219847,0.181364164016788,0.1865912422701319,0.17500157550743634,0.14786896983693687,0.13196546452257518,0.13330306545414583,0.13805174072949988,0.13053261224147006,0.13036521162493075,0.13008774989620875,0.11700791797639987,0.10290228371567567,0.10455560461591418,0.09320826856806086,0.09187997851622542,0.07127673903854603,0.024064261819533694,0.0,0.018717226383426322,0.05601316000887424,0.0999421580873685,0.1306633660348142,0.14632732881531352,0.12406569218910857,0.14824289855724082,0.237867038073023,0.32728204296718166,0.34966332811779477,0.403650970132281,0.49829164825653516,0.6031421075642429,0.6956318547020559,0.6996045204672572,0.6109952154534315,0.5153792391858327,0.428852609746293,0.34893421811383885,0.2846578143149596,0.2457786429629052,0.2444335386721903,0.2629431057587044,0.29405993442983824,0.3221233397290475,0.3479413141121257,0.35165468888652907,0.3315157584481514,0.30713219018057725,0.29960749611129156,0.29957339022892837,0.3051393434053771,0.317726546153946,0.3183333328131952,0.3194408514424665,0.32490393205974,0.32032096138637645,0.3241760235096236,0.3183869800112902,0.31124844907065574,0.2806873106073189,0.23649464778008067,0.22885153483952347,0.2931247542761013,0.3367336243943253,0.35971680831251085,0.3638229164308937,0.37521925617472185,0.3821712373056281,0.3822393054468103,0.3805401719225876,0.3662229776314354,0.3633768492414813,0.3566120353290869,0.35651119009460874,0.3634535025688308,0.37155929114207975,0.39495176692398726,0.40099153453736447,0.398332927186122,0.3760852691985308,0.34670887181241117,0.31840674648695977,0.2955551864557129,0.31069339847610555,0.36194582144596055,0.4471419146272049,0.5328106705391455,0.6272751986345222,0.7291104572791487,0.8267742179140005,0.9213936938026239,1.0,0.9932102939446787,0.8996550405072354,0.7908164465480736,0.6942490707970026,0.5900798985321125,0.5164793846624156,0.4654490332320682,0.37302439596736026,0.27855943866354993,0.21676925222981058,0.1989901105710281,0.1822586607370842,0.15039422957134985,0.10721648320058019,0.06502749978223576,0.06393251996489235,0.10543628125108961,0.136470922213344,0.15249571310114618,0.15698426677752764,0.16686108386853737,0.1658129863211273,0.17474584481301703,0.17966141979786965,0.19335642779932094,0.2006298199751524,0.19762506193192753,0.20074392915256656,0.18755147443338238,0.1994024059624202,0.2162607723454295,0.23909593008674745,0.24420223404567354,0.2467718303621811,0.23290420079398189,0.2235975329646669,0.21380067315054463,0.2335900245210656,0.28130020660970523,0.3532688126143886,0.4379126306100374,0.5298494920615986,0.625766113634413,0.7286067359701853,0.8248187722004507,0.9216013616082335,0.9897649869072289,0.9538870234054122,0.855732020695553,0.7587083298669479,0.6521398976321531,0.5605337716924614,0.4987096538411535,0.41940228579264627,0.32375678255439055,0.2657966854364959,0.2731309993401876,0.2865429208515744,0.2735397395260297,0.24368243652370847,0.22360967372423834,0.25100896014813046,0.2971918579934103,0.32811939217823083,0.34334467991944884,0.3445344359723044,0.3399287851141817,0.3324513291228244,0.3426275107726635,0.3444387478180504,0.3343536109108509,0.3137078479750377,0.3067694664091607,0.2981072854833924,0.30518445443302555,0.30912001701750613,0.3242569679507006,0.3398546265223459,0.34090715293884344,0.3206166481049513,0.29222000132472026,0.2697938874229502,0.25282002551382643,0.2642332691924536,0.3039145069941429,0.3700972736056598,0.4547314245945442,0.5470442053205846,0.644095448197445,0.7426646068241358,0.8379852713995111,0.9364811816098286,0.9909922185165225,0.9367832733569381,0.8404110319625322,0.743812277110222,0.637052852342257,0.544855512683009,0.48198994301635567,0.400191726365569,0.30630620690317967,0.24681445764356846,PM
0.10050591872432424,0.10916997182060761,0.07918698096712129,0.032029299173641945,0.0,0.036252118901280106,0.09155988356630207,0.13112382298885894,0.15170553549360166,0.14803443585689946,0.10482403250589023,0.06395112129076219,0.12833828530643654,0.23076158058612162,0.32754129645768026,0.38252871934501176,0.4865737632253597,0.5933236940887165,0.6539028591903819,0.5735338060821662,0.47020158311597626,0.3716793486349399,0.2791715502831189,0.20202713575550924,0.139749726949161,0.11435865298335957,0.11329866966542568,0.11330211875402751,0.11495894585535149,0.12239667772939189,0.11553706289476384,0.08387797819018239,0.07289996606452975,0.08379076753822945,0.09276200151738978,0.09404533907705526,0.10878371122495212,0.11339798355639674,0.12173169355425939,0.1252827552869964,0.13249113004062485,0.11613099175237895,0.06594379720569554,0.01564834524092351,0.0010683286627393151,0.043906739448752674,0.08808751518755953,0.12348896689297995,0.12847016442338388,0.122074095621175,0.07979886372966627,0.0733201594891355,0.15861697771253747,0.2631187171567566,0.33706348289088384,0.38055841136217117,0.4748022962950489,0.5889685776970031,0.6823909130194732,0.6557141785208094,0.5516075731758114,0.4455441455071827,0.3475125864896076,0.25795309844298764,0.18256424238113977,0.1357400304511307,0.11429216357720762,0.11329860602249298,0.1135170436089541,0.12385813587761163,0.1301700288642289,0.10964202262648515,0.0940223910364133,0.10556736315827031,0.1273030833591804,0.1256517629970073,0.12963020135034853,0.12478422774901565,0.11494013010469528,0.11340002375627956,0.12192924765484481,0.1321676724439329,0.10726260939023913,0.0650527098589393,0.035894930512020196,0.059342145700619575,0.08881835581818232,0.12646888276654433,0.13164024361099402,0.121862367553212,0.08584788272570831,0.047460759570457256,0.10275921386252973,0.21795159519095897,0.3232693525944641,0.37432564699371085,0.4578849954236133,0.5631800403167664,0.671762569407107,0.728289866493578,0.6460077271458031,0.5406028337430198,0.4309475850369835,0.3190423497036172,0.2382711799003907,0.17228704992669197,0.1294224914791946,0.11366565225324798,0.11329813402997413,0.11352759009652358,0.12399810366588548,0.12732573629768318,0.10225205770785806,0.0933174214060064,0.10501262107000908,0.11320182890360586,0.11329810035666377,0.11330206495114625,0.11563340901311658,0.13118372104364573,0.1309215397003758,0.11392339215769631,0.08396241654348024,0.03542060907875788,0.03449359574905886,0.09547225022314265,0.14375301058071388,0.16690278248634938,0.1817315220242257,0.18268043628454977,0.1820921610647237,0.16894987003292794,0.1623227857355083,0.16227216320126736,0.16048323712789125,0.14546666176265033,0.15756999167560437,0.1800316592411515,0.18147569959970866,0.16997361920564957,0.17718075360035135,0.16370182975199166,0.1723499927421588,0.21744320941859652,0.2862210623160255,0.3746636879264513,0.4744433071993579,0.5772251828123216,0.6830575212875862,0.7878769936560137,0.905131909570259,0.9915443289587644,0.9831649282845154,0.8944444889351617,0.7886349743365648,0.6755450976563826,0.5702383543796246,0.47741667054978487,0.42580391315878563,0.3473850662580138,0.24288355189722166,0.17940928970196834,0.18235713883486548,0.18265552152267617,0.1760926077872358,0.1417164172320433,0.108741317619931,0.10927539036415412,0.15711657917357513,0.1806734184021943,0.18267828117172735,0.1826810353591113,0.1826810353591113,0.1826810353591113,0.1826810353591113,0.18267314756461017,0.1792412546296398,0.1560243587291592,0.15747449957708248,0.1798629341590705,0.18266170926643,0.17873016241411666,0.16358086850944353,0.16279625860699198,0.18064386366556695,0.22427855571341926,0.2924367350976418,0.39010368902172976,0.4997478158996893,0.606968564968811,0.7082918315378968,0.7886600749179697,0.885601208628902,0.9808904560945289,1.0,0.9164269128101772,0.813237670641271,0.7263996973676772,0.6320088599335709,0.5303208447429419,0.4706547827094152,0.3765737270704834,0.2712902714964973,0.20052653131139309,0.20271702446437523,0.20007955890918172,0.1791237592645274,0.1410952995084549,0.09701775097208865,0.07529256339320023,0.1223190913737735,0.16840392417839523,0.18249458191021928,0.1826810353591113,0.18262398556287662,0.1758938696896668,0.16267405608311325,0.15326153763957917,0.1421373600481668,0.14186790481149236,0.14284706198171415,0.16315370256970674,0.18195867695839896,0.181806131291542,0.16746131780729723,0.16230289841103085,0.1646593810642094,0.19479474229438054,0.264637963748084,0.35451119054708213,0.45081254436516804,0.5536080831689545,0.6613019547597099,0.7650530532608797,0.8756152159796224,0.9660540438988727,0.9740988637912347,0.8808768754196894,0.77260873899673,0.6647450600896612,0.5548192370998586,0.47181356617141423,0.4094883153294675,0.31351163429055484,0.21587943026859113,0.19999543514049867,0.20307384009137452,0.2016165313723417,0.17644134095635078,0.13169383503073773,0.09459043171501946,0.1192354270678071,0.15734799692389867,0.1796508920546107,0.16579000596302995,PM
0.0,0.05967396622266152,0.15899908750941139,0.22802806000448816,0.2938416373831272,0.32881745087699477,0.366715969752335,0.4418018096471541,0.5346084913286724,0.6271788818194124,0.7178242575898106,0.7878424909877437,0.7607903201954165,0.6770135623573723,0.5909880634982003,0.5053454709510312,0.4313224718268982,0.40818919189576874,0.3957155778331227,0.36591357338533204,0.30469980068523883,0.26410615046064523,0.25256327842712833,0.22154660722731867,0.170390549644297,0.165796045555187,0.22685557006068757,0.2655873350530782,0.19442549984713242,0.09814237052187247,0.12287314120441328,0.2367019925390923,0.3676258392831411,0.4995301509436123,0.6307611224019363,0.7102956066759849,0.6297619154391731,0.5115756839576262,0.402335192992584,0.3127267889468257,0.25863861052953396,0.24043200133123,0.24243139216226517,0.2936284400549356,0.373945529099903,0.4624804131454048,0.5549182686265168,0.6510226479564998,0.7404281677223055,0.7476513395577316,0.6723300732689803,0.5778882049101655,0.49753070226051666,0.42750968692081237,0.3755023212002584,0.35432698102413607,0.35717518707067564,0.36154920811207125,0.35634547669233285,0.3140054641272183,0.3000859524256265,0.3092298064022092,0.354812602937685,0.3160474534765956,0.20737242825425772,0.09226068432974444,0.029336713483633314,0.10538705484313793,0.2320820055673476,0.3538497179878113,0.47973484138597744,0.6090584009839626,0.6561604193930362,0.5631190765041607,0.47242569967396664,0.37410666226754863,0.3071003536019745,0.2841101292922108,0.28042481982879686,0.31139535033923016,0.37906220115851497,0.4580469373888909,0.5496975279191658,0.6484594491430258,0.7415362651875435,0.7754468233283061,0.7072841207084455,0.6221537514610369,0.541749723896547,0.46812043321541497,0.4185227150991233,0.4001838362732606,0.41163065308165425,0.40095903173136893,0.39391310922274725,0.39318287183466394,0.3687464894282422,0.32674735080623885,0.35182032288944454,0.4087163458545362,0.3556341715014595,0.2792732284398287,0.17130114697554966,0.1514606438126651,0.25552792386979917,0.3794913298704885,0.5088719471985423,0.5957537762618381,0.5410292213874683,0.4492662956414528,0.34693833935734775,0.28129888836202976,0.25745852907869615,0.2571725425288376,0.2912957938848013,0.35432351518708805,0.44307881571580365,0.538436186817099,0.6315902882215205,0.7072805801832245,0.7410524649058794,0.6772584758144529,0.5967748123152306,0.5095925793271436,0.4470491547651103,0.4157654793156378,0.3914300746040986,0.3885358096178302,0.4075113187362387,0.4399775256648857,0.44490280008693883,0.4663977204148564,0.4867323193082811,0.5436609211731316,0.629450963411966,0.7165248872590899,0.793662008418873,0.8051975058689496,0.7464702559378282,0.6747482686433908,0.5801902277652182,0.48006163107786337,0.39524956031568514,0.3320920276529047,0.3103680922188974,0.3238770163812794,0.3833728763094535,0.48316136263585063,0.6015720135046774,0.7307223111277703,0.8471746022888587,0.9529450572198019,0.9770377471430685,0.8815469009875918,0.7535374996074125,0.6311204383323052,0.5059871238015701,0.38490179435638083,0.37761991119785243,0.4508177492209917,0.47604067618380563,0.41605262375276997,0.38850874420735604,0.4234783625243925,0.4431605158726577,0.45332176196051943,0.46148069823750326,0.46401519191675256,0.4696701682434723,0.5198917958898011,0.5966584190883535,0.6800145001004201,0.7611662001826112,0.8376530179708128,0.834582763044788,0.761736166765624,0.6672289007980723,0.5733410781371671,0.48167826239829914,0.4029862113062723,0.34531025898960976,0.336765441058557,0.3530817641842958,0.414764633973963,0.5190831372390412,0.6314241955355975,0.7475406628390515,0.8629334823021795,0.940726300664454,0.8830154386587199,0.7549678322497217,0.6230931918110518,0.4953883610800327,0.3998148339987395,0.40636154595911433,0.41401160114878577,0.3738096666541866,0.36834672070430763,0.4166873036908374,0.43019586107597707,0.4151151742968784,0.41457956685610275,0.41858473851076017,0.463996841023699,0.5359544678444603,0.6159802261170051,0.7041780618014908,0.7890550595083763,0.8326872344870551,0.7817638827415765,0.6919253360122646,0.5998458320589242,0.5093562529309676,0.4148052377879696,0.3328950823030752,0.29577065793743884,0.3068355758317578,0.3521033044063029,0.44445948142762415,0.5594032586631985,0.6781139092298196,0.7955726946749606,0.9116656303044754,1.0,0.9501810890606701,0.8317121080913377,0.7066307174711284,0.5758237477939265,0.45593308112134645,0.35968092384124395,0.3485377922311903,0.3023654861983629,0.2426351276770724,0.23509962481288893,0.28306491944681156,0.3093057157971417,0.3342370500344636,0.3917228093269962,0.439422745142346,0.4518211274397568,0.48212173865246033,0.5455342689273328,0.6221632411010911,0.714313028333259,0.799096634350895,0.8596063422749562,0.8353070127430744,0.7606360749212104,0.6731329278082727,0.5727904325061277,0.48144299218112563,0.4108468482638572,0.3764879364046587,0.3515091387127538,0.36324705353505093,PM
0.09545991379039265,0.07566342014952454,0.21880535979383087,0.40133780757334847,0.48713977089941896,0.38164558800743453,0.27797513458545,0.19452358459025199,0.13341670758642987,0.09452693948186308,0.05661398975802001,0.051994104651269524,0.04686658702511792,0.07287774582537576,0.023091589615271246,0.010048562862555954,0.0026600210345346653,0.00314844285801108,0.0855204160176477,0.16241995730804692,0.23158684045006783,0.29088775514560794,0.3023930707061382,0.30609031780463525,0.25692582212886883,0.2496262524907582,0.23482726810587984,0.1774876648605419,0.1158425765778599,0.12903984015263426,0.22076907801404566,0.32272567670262653,0.35767840614256574,0.3501237290007513,0.22491823762273455,0.16340958799090544,0.28346106805324567,0.4359901374813724,0.5708833366420691,0.692058841938187,0.6087017490681754,0.487835151587543,0.3861438074480832,0.3021492497660887,0.22680923367236883,0.17778947245231613,0.13576545225712877,0.10376541484718427,0.07784974472145034,0.07809029669560719,0.1002478478864326,0.1620638335475597,0.2359338468310206,0.27962763616542485,0.26115560868697774,0.2404124850801903,0.2446264877740303,0.24722758157812752,0.26083078431276707,0.2209515523261345,0.1504585374597962,0.0707213795203403,0.08249277479660488,0.16120236099822005,0.2623217599664631,0.29788659615683777,0.34144513656040676,0.2824042254719492,0.22298417352545385,0.3467510743791067,0.5173132531543603,0.6528489002863189,0.6019163982889788,0.49108153665083165,0.38662529978688553,0.33627085290201464,0.2662655518366446,0.2139565943886561,0.1518556063206571,0.08456624049346395,0.04002967321015838,0.0,0.017815974661754552,0.06894622827744001,0.15361731417076196,0.21028575980436504,0.2106891029010578,0.1884042296798114,0.2014179694457452,0.22965733332352034,0.25908495904020246,0.26240659434981417,0.1948795911411274,0.1289636685454738,0.11735170914305648,0.2036266049358053,0.3358678710593397,0.3936460965329678,0.3550608155708259,0.26581517652591025,0.2205905421648664,0.34359089998711223,0.5156757458008423,0.6398036853915396,0.5718321183377046,0.4541809989256631,0.3840525073027674,0.3129206850028048,0.26685116723812463,0.2181930735914408,0.17703467026195963,0.10456518510562329,0.05464554024050372,0.06474288537875594,0.10201628860982392,0.1581276949321202,0.22138099950947865,0.2824299873852283,0.3007088423767401,0.30806565952086373,0.3104448606923045,0.35727583029864274,0.3451409507671963,0.2947985029950875,0.2116087521369332,0.14104610581097798,0.15424154352298292,0.24746963138546807,0.3446836847414527,0.35857329394259096,0.43970214772810934,0.5422552035471968,0.4856178003409699,0.44758858239783095,0.3596253545453605,0.264058166939928,0.2791679115829746,0.35551149488201617,0.4306798190448342,0.45528906341734743,0.4639295556047873,0.42627924581672705,0.43128329086499484,0.43271034990857427,0.36990365126333646,0.3167173282656517,0.24214641162060868,0.197708654416914,0.16934563580710726,0.22694960083058557,0.29630189137963825,0.3386103692258473,0.37535847657323806,0.42171255441793054,0.5047668950239439,0.5836421803486207,0.7181502885453348,0.8792768612437003,1.0,0.9864946497451017,0.8471000195056604,0.699677996626729,0.6094996967376938,0.5333163334425928,0.5123935286466175,0.4145385135335502,0.29423628162459803,0.2643086461687396,0.31110984032673716,0.35837479118969195,0.37903347901400863,0.3540614798171555,0.3288032886199037,0.3086458081121206,0.3329940246232823,0.32811562784010917,0.27308849753849707,0.18167858388312563,0.11911436368348571,0.12729667061539995,0.18101075128613697,0.2363986940674323,0.3058704453833361,0.36485346059227375,0.4184185417925672,0.47705899188984624,0.5769954703847375,0.7159673728860163,0.8658716824973842,0.9590607928762047,0.8904890380002577,0.7357233711891702,0.6746715363371472,0.6260417074260358,0.48595392493952083,0.41215011838287996,0.3898896791488742,0.2872827511895606,0.20254298594084474,0.24396215970971458,0.31013153074042066,0.36516548774954494,0.36742064706110344,0.36049965729326594,0.36522437435740684,0.38844554481883264,0.38470191457907266,0.34089465736635116,0.2751337119030195,0.2152057548973385,0.18125274794061585,0.2078069229993842,0.24999132318459338,0.27360628396496356,0.314246309686097,0.384718395805689,0.4673279626907787,0.5788498135851388,0.7191531408822804,0.8720574710316216,0.9960136271586562,0.9863796766882142,0.8296337322998646,0.6835155521728344,0.6052911312889373,0.5130152267116648,0.49205969503927083,0.4199312547447418,0.3124441352000522,0.2239488095457567,0.24826802110414192,0.29698143048839665,0.3427085579923963,0.36444577945528245,0.3955840537531037,0.42044658916048405,0.4124303125283735,0.3708863905567332,0.2942113057344322,0.23249510112255223,0.14570564150668197,0.10341133013383885,0.11459896622566834,0.14426137570292408,0.18650482078251063,0.22904207411548505,0.25675875705174267,0.33460924252479884,0.43854130278153924,0.5772245930296203,0.7297557574900617,0.8275579732580693,0.7592721027171958,0.6075144843066695,0.4883356277249762,PM
0.886406391631706,0.902112304849741,0.8807668372887736,0.8589594619002254,0.852111480957727,0.862264178014279,0.8673695686176095,0.8592442491539387,0.8389600809969444,0.8124339136577603,0.7872140414233113,0.801506108061347,0.827902063037554,0.8303157582661083,0.8400522881591546,0.7995435217532025,0.7307626516813217,0.6550666405263454,0.5788227408575912,0.5044193675835649,0.43495912857446495,0.3594564412197485,0.2832058067332036,0.20787433160291768,0.13854682119384454,0.06396241436685801,0.0,0.011266794467291064,0.0805653102179652,0.14985772721310986,0.22509468584787284,0.30125400895698573,0.3731422718310755,0.4445800333202765,0.5207024035357053,0.5969554707785911,0.6732085380214772,0.749428202685761,0.8226000647512117,0.8891183707269494,0.9016759967631458,0.8725507379613797,0.859008841736689,0.8536579779004618,0.846643310657635,0.8467479381270948,0.8625899208863834,0.8856443980126629,0.884215307083575,0.8702288039315083,0.8658837297997479,0.8703250682597763,0.8622358715532941,0.8546703991171662,0.8414470388371849,0.8172577347669014,0.813179567786392,0.8399267607995697,0.8588447644774906,0.8606086811037432,0.8545399507009894,0.7883380202362726,0.7163862802173553,0.6450398852795232,0.5689320998382668,0.49267903259538115,0.4166810304389805,0.34612302141482276,0.2732800916072461,0.19706985416231926,0.1214400999134575,0.057332169726319604,0.05018551831442397,0.11037631990292207,0.185589048036375,0.2559346170596455,0.3290345028084316,0.4050604607224044,0.47595619036847325,0.5484167986341528,0.6246101131539121,0.7008631803967975,0.7771162476396831,0.8531984471847913,0.9187416587022681,0.922249720859446,0.899022470156722,0.8909128492319187,0.882582528559759,0.8658789757153627,0.8508088939081317,0.8626777928438785,0.883069235810112,0.8720204251001795,0.8510977918100018,0.8453021808714218,0.8463251677884385,0.8517471067617604,0.8444060738342714,0.8301369260695188,0.8068038301445295,0.7945009357511448,0.815829978451508,0.8412819799452818,0.8485943657147468,0.8339336420784738,0.769962680431383,0.696158312379018,0.6264043747929728,0.5506956380592352,0.4778006466625855,0.4164171707156672,0.34896596462999674,0.27387285424984287,0.19769645951202142,0.1258570366779317,0.07759458838172428,0.11079326767561304,0.18428910561758027,0.2575516382717834,0.32775951858098584,0.40280638931670265,0.46605012990244,0.5300876098759044,0.6042271868658029,0.6792340935850898,0.7485248991907596,0.8235502729464681,0.8915392068798669,0.8966916043919066,0.876214241318751,0.860312528659442,0.8561850304131391,0.8537071868539954,0.8512361373121582,0.8693035562834603,0.895070390727946,0.8923527945039298,0.8691606550619602,0.8561778984781121,0.8716847332477227,0.889010942682597,0.8946519409185598,0.9170264759806628,0.9352087987039217,0.9174996375390618,0.8891414268863054,0.8828598898779176,0.8831271145043356,0.8891556041277091,0.8996809652483599,0.9228244087476132,0.9645208149912263,0.9718714782132007,0.915212283428591,0.8417328185795925,0.7694894876791487,0.6984044034405881,0.6224088471374425,0.5615361656379996,0.5952935961019519,0.6705883227344849,0.7435610313185079,0.8140156918830586,0.8891958990123969,0.9488220901160964,0.9406443601876218,0.8915025771410521,0.872802463424865,0.8581821050876679,0.830831457028328,0.8345337119477396,0.8588066148294706,0.869394757129361,0.8763790990363405,0.8761960890799425,0.8694233127384221,0.87642091253297,0.9010409973678146,0.9188459079144362,0.9019502546369313,0.8824713315767061,0.892769571456764,0.9075189616558894,0.914836102072415,0.9256825572926055,0.9565648127220261,1.0,0.9897445873396713,0.9260694745165061,0.8527986241508219,0.7822598255316073,0.7094104169253266,0.633282455421337,0.5614463525590578,0.5163695275731459,0.5659945554764374,0.6419766536450102,0.7176063270389328,0.7872064313900147,0.8612385422516482,0.9320389733486223,0.9672880567636832,0.9239180628466903,0.8912986725578969,0.8837350734154545,0.8647010735033847,0.8409090590605246,0.8533438775453492,0.8787915713442025,0.8812000334188219,0.8886481271255122,0.8934198063307048,0.8940285508486363,0.8967245451131018,0.910034240720645,0.9215635978273429,0.9062896142462618,0.8799796537795659,0.868941680402308,0.8771892254170195,0.8859090597205059,0.8925310633059294,0.9238552854946926,0.9759303562883939,0.9933959723988826,0.9375642882187754,0.8682110843978597,0.79450055302725,0.7184292684961087,0.6472467221021045,0.5752035236485094,0.5174683034080412,0.5543659208625036,0.6240827430003124,0.7000151627051667,0.7762199793507301,0.8489674259883695,0.9183707480614096,0.9597642068130234,0.9167353520558186,0.8755353845060923,0.8639574502216714,0.845593777535977,0.8227225441885613,0.8424508540305891,0.8696723340967398,0.8893015027811195,0.8996650418903582,0.8967367763657175,0.8892045648230713,0.8951778814323865,0.9160679038693997,0.9368847316857292,0.9236445855433097,PM
0.6247589295745659,0.6678013118322352,0.7116324234141695,0.7495869973095395,0.781014658246592,0.7791348620294813,0.7710915226021176,0.7583658357657612,0.7807220017559915,0.8205693062615274,0.8472191930399082,0.8365508728207514,0.8205127324374664,0.8334344635808117,0.8460749281163367,0.8320276219320506,0.8092193012949898,0.8120567548385786,0.8062919320307789,0.8322377952525699,0.8258922074887554,0.7480485551536027,0.6597685990803417,0.5749026255043421,0.4911602475176646,0.400499714613894,0.30132363328117706,0.2116353234815158,0.11287072457707992,0.05156919070245691,0.10506312898282122,0.1939229948325576,0.29091035067289783,0.38131741272573216,0.48173722134097186,0.5745769337742173,0.6636378738020128,0.7390609910669672,0.7870283872904353,0.7882232797051911,0.7660546567084225,0.7305641263996019,0.6933710863811766,0.6449123416509439,0.6048924670002853,0.5736375722619085,0.5704095624682501,0.5851962178436458,0.6154945183586864,0.6555015091768406,0.6756810636035391,0.688323970257142,0.6874858408364763,0.716144117640553,0.7258554404088808,0.7435359305762532,0.7719401782767188,0.8008278176950065,0.8128413746266603,0.832053478634615,0.8641883116986608,0.9045073212390629,0.9357838190092573,0.9126078659912402,0.8454102661705225,0.7949511359909585,0.7303088425796809,0.6449790187357685,0.5568177370324598,0.46041862848100323,0.37043020340272625,0.2747742981064272,0.18360938377564717,0.08307758547019639,0.0,0.004638702111482873,0.08869993919934371,0.18334340204929878,0.28474006375582817,0.3842224370124747,0.473916852237801,0.5733993760223239,0.666551161010063,0.751205247933749,0.7675218653120159,0.7334588360379473,0.689047248978188,0.6555997695626352,0.6078513570721122,0.5516740715114323,0.5166647257066252,0.48273132165528243,0.4612350577197899,0.48447108830361185,0.5357361758532393,0.5804591819914637,0.6072456082326336,0.6211094840188547,0.6506074598598126,0.6597325970191317,0.6484196405517,0.6557914831156568,0.6679579046787454,0.6805448347543874,0.69626968910052,0.7148451304296815,0.7108392738019782,0.7047239045600546,0.7433239763655111,0.7741437323322222,0.8263292820448582,0.826836407320698,0.7493927664314908,0.6602354049901786,0.575035389262853,0.48264278609233124,0.3821958649029955,0.2917233097701557,0.19444374801225028,0.11751174308147738,0.14107636796904743,0.22582795950655687,0.32225504244437775,0.4195719643552793,0.5102704341302224,0.6104079227659593,0.7006785682323489,0.7803502457793401,0.8150542172412927,0.8008590353975318,0.7654821397812646,0.7327098557628771,0.7058411635982644,0.6804415636196299,0.6560083343052103,0.6522347309517083,0.6873849488958645,0.7172148340034867,0.7278710602083962,0.7647010694393208,0.7673737227902995,0.7280874529458077,0.6991620879713014,0.7102357763772569,0.7359812610910332,0.7631860316309587,0.7961555036144794,0.8324748897480376,0.8540498603987936,0.854011473340268,0.8245689754966861,0.7544662804923041,0.6690209422280617,0.5807297503789661,0.5953976336921027,0.6745508951891168,0.7687689017174313,0.8583022657213426,0.8853619551628971,0.8665070284229277,0.8285252536797507,0.7891794877785168,0.7588649786772821,0.7604842779582686,0.7474323467512043,0.7306379047510376,0.716586534862574,0.7124260613690934,0.7011591249002513,0.7077968405498989,0.7037586767833812,0.6800668830162542,0.6649426689468669,0.6494416613597733,0.6108508987265908,0.5585900755629358,0.5112416305926273,0.5197876816129499,0.5617906483035642,0.5935297340181436,0.6465066773729624,0.7029673156252916,0.7351867701892891,0.7749377303737461,0.8129796869236159,0.8377783878969638,0.8309316791820673,0.7498229648151631,0.6605234946652747,0.5616350375560935,0.48992533674002003,0.542620839782354,0.6272087609813035,0.7163323369867551,0.7997590320225527,0.8517855001349084,0.915152189863979,0.9815736421422494,0.9999999999999998,0.9833244911617955,0.9423776761501255,0.9025524973501506,0.8704166578994348,0.858694429397383,0.8608662170539032,0.8265991302579001,0.8040547660803832,0.7811630881683282,0.762980344892292,0.7428745157072083,0.7412414821478055,0.7309005922817204,0.7108105620941234,0.6818858709479689,0.6431070419857019,0.6254137899223002,0.6279034987944827,0.6616868678553802,0.7079557666680534,0.7484238599314901,0.7860595959475447,0.8182162115887388,0.8368431834698253,0.832709089786783,0.7944205761074052,0.7376525823428992,0.6550626622578839,0.5671953247116288,0.4851836579217441,0.5185377786647074,0.61004984286312,0.6988839144359982,0.7870908360430715,0.8642836652475105,0.8997121331795872,0.8888503505105476,0.8700971718264958,0.8603381662748599,0.8744477511305944,0.8957928745673238,0.8976787352231808,0.8808474268486874,0.8701180521159275,0.8844144270816507,0.8934004777324629,0.8811634956390859,0.8413082329897466,0.806070910981078,0.8159191476829968,0.8323457465180393,0.8249918190549803,0.8076300301409509,0.7703681489379115,0.729298580411742,0.682599051645796,PM
0.5841825936255195,0.634937911089322,0.6898747685923984,0.6493259565416808,0.5605837031327768,0.4722514108712855,0.3819399590255549,0.29391983772686225,0.20289042727816875,0.11222084673666288,0.027651963418560133,0.0,0.07068412876915231,0.16094494281548188,0.25352192486218017,0.3406858888728349,0.43370900374526167,0.5226379900237547,0.5813817940438227,0.5954269318449684,0.6288215018704705,0.6780027862972303,0.6895309718029908,0.6760971467913875,0.7354123755122154,0.7836695187318524,0.8291780991263337,0.860314239924603,0.8850250924669328,0.9083706643480883,0.9009179812120786,0.851625442573391,0.8339704094704913,0.8427330392177542,0.832105952243393,0.8246353462655981,0.8403855860249815,0.8292378813281155,0.8231724212494268,0.7945910630629675,0.7133166997179256,0.6265439192399399,0.5357644514241885,0.451884548490347,0.37314228296176755,0.28786080971523254,0.20021608067640528,0.15803410982565835,0.22378014033429083,0.31186998752800477,0.3972076227811062,0.47814623201571493,0.5661794584377945,0.6559616176962298,0.7462041875450486,0.8307478082530139,0.8666574394739274,0.8759397079996522,0.8975357114134249,0.9312281374721482,0.9513068127336718,0.9095648710734495,0.8589459887846346,0.8358102481093311,0.8370366540942921,0.8285179405814546,0.8251840392012496,0.8069794582071425,0.7383639865276591,0.6461716214084684,0.558858790167524,0.46759651541660385,0.38042098004035074,0.2880606350354006,0.1991726415600361,0.1198295729143134,0.12452471460985381,0.20485208486371165,0.29706957600867756,0.3843244175025494,0.4766553783878936,0.5674451408499702,0.6557521201832462,0.7493171837137366,0.8231397630724043,0.8436575210937615,0.8434862226799363,0.8580263729640346,0.889558163029965,0.9038043657687839,0.8552568446221577,0.8045400147507861,0.7913889142932414,0.8101034004442634,0.8095719930816953,0.7944834631367365,0.7956303331643523,0.812708297351595,0.8250945264691653,0.8313492975213922,0.8146223767183808,0.7497083392834308,0.6640724555613825,0.5743565925182587,0.48589065159825806,0.3932634349027758,0.30612729000383776,0.2136741605120972,0.12597346713885627,0.048203813027610454,0.05955071081734353,0.14344602635797976,0.2374446259316768,0.3316445655875774,0.425843829244935,0.5194695696311725,0.6070706624810144,0.6983571990138912,0.7858186197446929,0.8544488658507384,0.8714457491753335,0.8927669082382362,0.9238519796124013,0.9597100419342929,0.9644585593707368,0.9113742863493389,0.8643373782119029,0.8518018540902387,0.8386203731560967,0.8271101951078453,0.8169194192945753,0.7586786074739694,0.6721871612036628,0.5834279185817243,0.4955935043527272,0.40452134458127575,0.31474164760278367,0.22562795962808058,0.13864299784853162,0.11167333955780523,0.18176437314056226,0.27092396573704913,0.36026115801828984,0.4543165127278991,0.5485163252253874,0.6424113088123901,0.7306934011529674,0.8138995566084323,0.8584690843686832,0.8732991889055323,0.8942453283329636,0.9027597890895064,0.8977105854957587,0.8807836757405466,0.8162203692504869,0.7303169255977205,0.6375728590369546,0.5578925264662028,0.5678030628294984,0.6421963656930393,0.7258399963281986,0.8109941259324868,0.8560000293277069,0.8567509192497548,0.8685164505958957,0.877552618256786,0.8996279800327148,0.9514227120549555,0.9999999999999999,0.9935594933699939,0.9584188486951514,0.9244014586574342,0.9028753312107,0.9045504716721834,0.868813378624698,0.7836191610382165,0.6940855883785543,0.6061400151153501,0.515050394780537,0.4320858723604363,0.4496509854415228,0.5384536016175808,0.6262089705714932,0.7143543007198639,0.7984607328385068,0.854600387392401,0.8631287189110329,0.8563224226199494,0.8524573890096835,0.8388645863650898,0.830228815367749,0.8284017382172985,0.8416744012735512,0.8413722298527212,0.8330704452110628,0.8694959755025403,0.9267734384115981,0.94930284438076,0.9140637930290555,0.883669842611826,0.8877294415575122,0.8816552962757721,0.8688906192909175,0.8053051728520569,0.7201204292635418,0.6325888331704282,0.5421949660135438,0.4652463354914488,0.49778537363289266,0.586002578276685,0.6735242680189147,0.7604117584482154,0.8310728995606326,0.852581285150109,0.8618470639260617,0.8738100774874157,0.8805207174146971,0.9082988195932254,0.9665284225567489,0.9910922522931308,0.9602134521350502,0.9254927885841339,0.9043794235098103,0.9119076672494341,0.9042754201933622,0.8290062448045129,0.7423957574083048,0.649848996879227,0.5714666356753296,0.5714197426358619,0.6545361939606912,0.7409178067523549,0.8234393496302942,0.8640021258101692,0.8509590651305993,0.8616905494693156,0.8691142074094512,0.8502840922642937,0.8624812688513758,0.8703309095553026,0.8601729322406025,0.890431051882916,0.9382435907169929,0.939986663594432,0.9203242180662919,0.8972830082010742,0.8681079800578454,0.8461346031781084,0.7777716336738726,0.6912105716053051,0.6234941202034082,0.6660172767156188,0.7490975971700605,0.8167748160894556,0.8257181898075815,PM
0.24939156890023262,0.2882470812641851,0.3603928010739015,0.3852944665884368,0.40251408994159954,0.4335442472465485,0.4225645047627751,0.37554853463363314,0.3461425053331575,0.31502922614887696,0.3469865351316921,0.3764129157895457,0.3451415254367842,0.3172893179445251,0.306819831725504,0.29697057933454074,0.30584336334777107,0.34815160062691586,0.39291609540173233,0.39748565160226645,0.3773937308647466,0.33905193037978165,0.3124792398693941,0.2811917853862351,0.24216528692670347,0.21132297908766073,0.2509457017945831,0.3319149655418423,0.4188412666206358,0.5121646541192604,0.6028946985957444,0.6944566103647705,0.7807219383952186,0.860996652641667,0.9121089513981411,0.8970397923719355,0.8357017892555039,0.7429545564722533,0.6459842159966787,0.5573331600901796,0.4618450358546946,0.3738929295466038,0.2931273802490144,0.2704272418812521,0.33878311583032295,0.4349687008168228,0.5235526316517967,0.6209561672465265,0.7195671962519112,0.8093023922158635,0.8952029428024559,0.902491562294522,0.864455800610469,0.8272299161978109,0.7973944683007281,0.7851712833405355,0.7847989720679727,0.7963131402615269,0.8193766698596701,0.819085879251416,0.7704545108201946,0.7179757808449723,0.6890329402033135,0.6772548464487063,0.6760806559411945,0.6640179064775631,0.6369106276068197,0.6201950050560101,0.6106498640311178,0.6230680420463077,0.6338224961398873,0.6255150119449762,0.5915610420280344,0.566481128427351,0.5681056770194166,0.5960584926139814,0.5809539119087401,0.49954842970214575,0.4099818817843599,0.31559368665768517,0.22575666137653738,0.12918779124400848,0.0613810175678835,0.08177990215959885,0.1638395488258917,0.26160299554748656,0.35701742082430776,0.4465130201294749,0.5449713757635375,0.6398730091982023,0.7018277544031473,0.6777035581334658,0.6449913023758156,0.6345252220063213,0.6351354097513262,0.6510542568492892,0.6892648093795875,0.7301437389656975,0.7602987433313686,0.7423071455669059,0.7067438714249055,0.6895712543372121,0.6774676674365554,0.6627021954246075,0.6493508653898123,0.651477843688514,0.6496536419931171,0.6464497753859293,0.6358861047838928,0.6332218676152661,0.6039792059719247,0.5482238535844051,0.5233165280747984,0.5247701878175697,0.5433597289107106,0.5120220584822035,0.4305858048733451,0.3412894846283039,0.2478120769304606,0.15723425758277765,0.06772681811473613,0.0,0.009180084765327612,0.09333744498658358,0.18478590800472428,0.28346207767170917,0.3718550962992486,0.4397946084679458,0.5059343954417965,0.5727863790053545,0.6086835734559952,0.5965749570798504,0.5768493300884372,0.5722812533071857,0.6039098809524819,0.6202555368419067,0.622994972900381,0.6390755190611443,0.6564917547901499,0.6658945368102831,0.6080170700055794,0.5168559637979788,0.4267295939602387,0.3322915507934505,0.23921674532818504,0.24315377766768065,0.336199748359304,0.42448031294181154,0.5112189168691734,0.5838891303564746,0.6014056470871809,0.578106543648452,0.5621246927405066,0.5693216244143171,0.6149305212422362,0.6660184914098384,0.6716197387537335,0.6740706494699769,0.6818515852809863,0.6865336737181189,0.6956539412491436,0.6972216839264815,0.7077892896914038,0.7185606042094879,0.7288131520508161,0.7603956650316359,0.7978532156834208,0.8010977883093804,0.7700784403374867,0.7292550471566344,0.6910874692761326,0.674451523314711,0.668963890924485,0.6842381550911965,0.724665004986802,0.7618745691644659,0.7602856351657223,0.6859533722993816,0.5945685472596574,0.5003342547417442,0.41009285959772335,0.3154473026957838,0.30604781440216344,0.38796523118023307,0.4823824133182848,0.5710903069998743,0.6541623064182169,0.6680850400015177,0.6367082615898991,0.6147515446181777,0.6228895004110768,0.6571732556122467,0.6803396417793066,0.6793011002139702,0.663257278615268,0.6545102642654159,0.667114963912248,0.6955136975534422,0.7119127817924293,0.7230537880295484,0.7251743601565845,0.74427201268501,0.7936762030536948,0.8501164110672947,0.8749830395066178,0.8598066748425661,0.8342222135627395,0.8311547817785052,0.8403038422807696,0.8650215557439411,0.9021927397758511,0.9422379891484263,0.9851821913720733,1.0,0.9269969567050436,0.838496221171737,0.742735158953761,0.6444564279363503,0.5609842865156498,0.5657451493084933,0.6514205781538962,0.7439565275088902,0.8299521997757053,0.9004287349359341,0.9456469822535318,0.9593843053468607,0.9246918987547734,0.8641837528001286,0.7825751782881807,0.69316004104143,0.6025550055148972,0.509631245065294,0.42027501544352175,0.33242342610770503,0.2826979203890565,0.31143858562965376,0.3432538367790974,0.36767381506584496,0.40430643138377587,0.4318696795253296,0.4416680210359467,0.42435723019098015,0.3763771341148181,0.3385185289931618,0.3432392107257862,0.34826066641720166,0.3746729136507061,0.4149927819478889,0.46493599534370667,0.5054562081070872,0.4964383360786675,0.4610080785659072,0.4805783401864252,0.4839695498635841,0.4367550805152285,PM
0.22007516819237738,0.20038212806219446,0.17485342770717205,0.14016606822321842,0.09297285775159825,0.06438197702851411,0.07590852053992547,0.10740518425477807,0.13747913019665114,0.176982299213166,0.1704127036074321,0.1921929765403525,0.2683893145340277,0.37393121805449203,0.46235668091834947,0.5455425660251607,0.5375361550843838,0.4279112795851341,0.3229952584900566,0.22730745786471074,0.15139963068429552,0.10332328113483191,0.06262516330827772,0.03793286567403387,0.06408863650864438,0.10055751865997564,0.1619172929874062,0.23381383012074286,0.3093095611336314,0.37774816148363044,0.3736823284153443,0.3152828665373706,0.2719169839308524,0.25868077120324484,0.24558780643783518,0.23560613397452146,0.2228598855334809,0.2326273445831366,0.23601577193095435,0.20449161700521357,0.16224736162940578,0.13061110345463067,0.13902945050649063,0.18943349320228808,0.21595649495824132,0.20871672950701958,0.25444551301341267,0.3491182400551205,0.4300479380105524,0.5122200217144735,0.5832314901672273,0.5034428949102208,0.38622826352468165,0.28728142594269235,0.20609056486550115,0.1463456401376213,0.09397512341182734,0.04774698018673584,0.016859143055196313,0.0,0.031227423056079395,0.10018945792218448,0.17662057557769018,0.2477412826165084,0.2686544382269367,0.215158462543648,0.16343046008731577,0.14568742739971974,0.12859797707245724,0.11066449866208616,0.10896377061893103,0.11198157670961306,0.12604651054590965,0.12495525353662806,0.09326705275752323,0.039821324143775705,0.003329974553545778,0.0095494724475218,0.07592917188941328,0.12309794056674228,0.1294510510061544,0.1697943046420778,0.2619923962361441,0.33546970679472965,0.436813018221335,0.5462825676819656,0.5213993985457526,0.41720026367764973,0.3123214910608212,0.21532888182761267,0.13331114924393495,0.07694741308569597,0.029566549432578082,0.013726906275787876,0.004298096318358535,0.025454740959344413,0.07942639681035724,0.15219205386259294,0.22587237778846836,0.28123824749412263,0.254486964719574,0.2162099663567636,0.18515156851919867,0.1711273854420181,0.16554735653501584,0.16538435151864084,0.17262024824333322,0.17314577331112613,0.16469130094803486,0.14538355230520317,0.10030037497042121,0.07294034931265436,0.08981493401534735,0.14703376679365654,0.1824731970653093,0.1872040515744251,0.22901396050702694,0.32408692891300594,0.4273228399771729,0.5333815693811004,0.6289533461157242,0.6077987959492295,0.5070615119610116,0.3961843665348308,0.2948712068851833,0.24418490684845517,0.24629523754430993,0.22248657843343356,0.1556255490581271,0.1394070304223951,0.17779471003470926,0.20840284133686504,0.21362794131000484,0.2274145204473812,0.22022678002011586,0.2105936407307536,0.21394999410191673,0.23729067543017646,0.26093233093720736,0.30236207157637596,0.34375841468250634,0.3444071043164545,0.2831799346261943,0.21082545012473863,0.1397828939467054,0.07423078095791302,0.06048918951081239,0.07374527419117038,0.12147297645780553,0.18509260670131988,0.2702483345036466,0.370459289600118,0.47467648720539835,0.5817453401343502,0.6899568830653857,0.8065676168479712,0.9109270003902719,0.9367030020527825,0.8420491257677347,0.7308235971171593,0.6146176850094194,0.5395285099157268,0.440317799573815,0.33286723579584,0.22970389335910602,0.18105029864607758,0.16841855201341271,0.12458536238232165,0.06221495754403916,0.0765149733932513,0.1255681860424045,0.16623394419950754,0.1727618812680234,0.1721622476682847,0.166615358643881,0.17242597863220954,0.1757111731068992,0.1898742233900803,0.20087316601459282,0.24592505412247467,0.3054812092420285,0.33574107569956446,0.2971404351234348,0.2286764723302528,0.14933091273965138,0.07834989769857703,0.055909817480454205,0.09027009600823765,0.1290079105852806,0.18145079637665606,0.24309424431030147,0.31978760149871865,0.41860347421621036,0.5239788463177621,0.6339283234155779,0.7443920233921069,0.8525735038303028,0.9609185863293828,0.96764421177024,0.8678135715881385,0.7555371403696798,0.6642850930571722,0.5787676279708402,0.471971662029274,0.36274412295772374,0.27886484067297923,0.26638483686613323,0.2503372240116706,0.19785375804495775,0.19391413316562645,0.228788487080954,0.27180598168109293,0.2853942508961418,0.29081153292829764,0.287460695090084,0.2863601842480583,0.2994947575660172,0.3062363631008309,0.33531673320315836,0.39273648439038844,0.4503314401305274,0.457907947276468,0.4015811978306978,0.32641239463231253,0.24704330031944544,0.17792284322908936,0.13109188699036567,0.10670363340354294,0.13236022799688385,0.17429054456732862,0.24292530617585895,0.33679686467437175,0.4404378037645702,0.5290725877054254,0.6202637309651591,0.7339450777110419,0.8440515345097501,0.9550451852665693,1.0,0.9180259228392518,0.8072606528965416,0.6926884472309922,0.6141456002524435,0.5146659065261003,0.40460841481296583,0.2961114097059827,0.23958104524779333,0.24607150291172264,0.219513408055799,0.17295274019837992,0.17680894642748202,0.203585853388641,0.24066251416236684,0.2606482664309082,0.2798155636024888,PM
0.20945071781073343,0.2030177936259041,0.20879218256820042,0.23417621170675806,0.24940871816596744,0.29350847466003804,0.3606154240969328,0.4220442823488111,0.4837970667656335,0.5727395336145022,0.6676967383860215,0.7259410841574976,0.6667435383114206,0.5849146225605955,0.4981842037244091,0.41351970008607,0.3277551040218256,0.24752712449955672,0.18806015178643687,0.12651181769154896,0.0847298973613646,0.06469096550519371,0.04408691743676929,0.0331494410730615,0.04100933128227213,0.08251028876215294,0.13657469157582147,0.1927986332337701,0.25123609323606866,0.30862249795023233,0.3315289976827369,0.30747028307935453,0.2813669801209806,0.2667562613594878,0.2560667945875763,0.25506202285113977,0.2550609066129761,0.2550597897224338,0.25390985287959644,0.23594396661807915,0.21261418095789208,0.20499130559521106,0.21908346150983338,0.2465688427863979,0.25882491941226204,0.3056364623163792,0.37565112325455363,0.444647638255828,0.5125762632480058,0.5953709824056972,0.683660920647629,0.7236056435652154,0.6556155894165188,0.5719264645311277,0.47927020019609445,0.38769858448173267,0.30406374082475907,0.22335942298903744,0.1546003729881389,0.10804264625513049,0.08016426692250089,0.06059160926504692,0.04353270974812107,0.03395722887718389,0.05268670821484722,0.09995341839489802,0.16125847364000467,0.2220156206863284,0.27405812489560866,0.30934440458792745,0.29941598341873377,0.2720926339180836,0.24933251909621035,0.2413232658002924,0.2411425419003792,0.2411425419003792,0.24114223524257028,0.24047543981831954,0.22955212251145474,0.20901489431912834,0.1921321807419516,0.19725832001052446,0.2247950390631579,0.2524121065895475,0.27178776291621887,0.3280874854402205,0.40152507359887624,0.47482975833239793,0.5464945669582906,0.6332459384575189,0.688539641777961,0.6284574875287565,0.5450591519766887,0.4603425964336072,0.3751842122369591,0.2914486301484809,0.20373305632557548,0.1315225356380636,0.08671948806668617,0.059341444521548325,0.03681360774071374,0.013873676646180222,0.0,0.009195265877620429,0.050160974024948235,0.10157440659419548,0.16481919787996224,0.22475165090371174,0.2756457052562835,0.28601289051621803,0.26518647848130383,0.24814419872821247,0.23993314740918104,0.22517259669780287,0.22158158064222455,0.22330279645265083,0.2207694484306839,0.22645890232998278,0.22116774692851893,0.19829257000124212,0.19747836732460833,0.23398588170744272,0.25595351021310764,0.26059650183853167,0.26063443881178294,0.2627082906294471,0.2668610007497221,0.2733384303463642,0.2860958219652736,0.29806118074410914,0.31847462340227706,0.3278230851679744,0.3078133015148463,0.2565194797485484,0.1947926322082214,0.1351728168585642,0.08141601285590339,0.04401227115102202,0.04967021061356558,0.07317540269389022,0.09805630327871073,0.11577572016502957,0.1589154996431419,0.228192861033917,0.3084831315453944,0.3933500529003968,0.4781751830015013,0.5720932095755944,0.6593939624181315,0.7448914077346447,0.8310264855779441,0.9185177561239777,0.9923256929932105,0.9777194742325204,0.8992155760097895,0.8087946770104706,0.7218611038915097,0.633538009049103,0.5496921199281801,0.4707568065229837,0.4007090070371686,0.33423782550542924,0.2929969868106652,0.2755219554562651,0.244757818794771,0.2408970935704371,0.2610264823348163,0.27418729798409913,0.27454657896189794,0.27454661721061147,0.27454661721061147,0.2747273713167191,0.28208554629512905,0.2961590478425902,0.32394135316566475,0.3492321785190886,0.3525374550739375,0.3165266166853242,0.2669616963069066,0.20489320025544222,0.1472091351697169,0.09656620990526488,0.0806139243345525,0.09421812711291766,0.11161767870766637,0.13475272577956243,0.1830405727701856,0.2549023967338093,0.33646958027353824,0.4116719354075231,0.4856419843409405,0.5693382192675474,0.6528257651236617,0.7365761057176816,0.825534722538515,0.9205125649098003,1.0,0.9997002791754319,0.9224751063189038,0.8308628450333648,0.7454535623350527,0.6535966256106129,0.5692311951293578,0.49246133322448893,0.4213052500527912,0.348569207893636,0.29603819776756346,0.2829303332126174,0.25616354319578427,0.24903351351311898,0.2688376652351625,0.28743478723314686,0.2884643411867076,0.28846498192320835,0.28846528056381926,0.2891212985775713,0.29899779337278076,0.3117949805544935,0.33390171943356517,0.366387998583777,0.38050264009404966,0.3472103852236508,0.29821740919588535,0.23871779722973363,0.1791514695303409,0.1220216422774194,0.08235848734176487,0.076048170073157,0.08923742411619973,0.11033996387987255,0.13997149107235085,0.20375939114419062,0.27995465133832953,0.36500757199530787,0.451147849484304,0.5355350585155381,0.6203584403971787,0.7041290492819581,0.7905392973453442,0.8751246800357695,0.959016239840309,0.9928505339454605,0.9276915598691029,0.8407529071958333,0.751519831735953,0.6584853303903104,0.5736053510013401,0.4926384227409186,0.43214177264151843,0.36764797326610044,0.3040941565539321,0.2839033265139479,0.25745231552083014,0.2429524445135507,0.2511450636984214,PM
0.18620747913500302,0.1668626255701151,0.12883010912901405,0.1225888253712748,0.15947977115985323,0.2037022169119882,0.22028709633630972,0.24574621092803994,0.33305480030180723,0.44224018427040734,0.5475664433830825,0.6522145636033923,0.7553822907082339,0.7584023152170651,0.661618752702458,0.557373422009952,0.4553250004445957,0.35321571265111107,0.25425440968748525,0.16051343544510543,0.07846326259558745,0.030837150465564678,0.0016329297647661445,0.0071070019934367235,0.05250235256694724,0.127081359178715,0.2110697127315342,0.281147263605936,0.2733905083940591,0.20935400900989998,0.16137230060860275,0.14344068607413218,0.16421054540321478,0.16740304444527943,0.13131082851306242,0.12678772911427227,0.17414165131214787,0.2080165193100867,0.24304227839766734,0.3071993863938993,0.40244187389960073,0.5050584070352224,0.6105927941618017,0.699076847428834,0.6778015898321321,0.590136618658883,0.48379676787027304,0.38083931441804175,0.27950342887834356,0.18249722322949324,0.09948127091703984,0.043266336926095494,0.015917386490056584,0.01623236195665756,0.049884590481442004,0.11880877593125061,0.1937829383366616,0.2754425625935377,0.35534844506882757,0.3540649177510542,0.2870334571863906,0.22986243282915741,0.21332147781412658,0.2306957771259488,0.22481637406914534,0.19004157435035696,0.1940270037252947,0.2350842896909846,0.26187735086534314,0.30969893811262206,0.3953619550332279,0.4963674648716414,0.5984856566916199,0.7063960188744742,0.7759380428930482,0.7158574650120411,0.612171167188579,0.5100833379067251,0.40701661366667397,0.3076075309114259,0.21020754086626203,0.11835397639156264,0.06356373689706873,0.02632066959020296,0.013668476591421896,0.045986041734874084,0.11299234425436366,0.19316684783698235,0.2708920729037707,0.322078869218293,0.280838332552209,0.2204512539671526,0.17810901752112818,0.18241434897906905,0.20899692875724707,0.21958257607023257,0.17173786148645176,0.12967361227051355,0.13499556371072874,0.18120806752680152,0.21176205020131156,0.2501739224247921,0.3304836104969544,0.4261960487607186,0.5300204379634517,0.6319477613363795,0.7171244010123483,0.6760471121771463,0.5913718843868305,0.4916922612667509,0.38750506569474563,0.279854692050322,0.18222092661106393,0.09603449842240352,0.037460633280753,0.006688108231001744,0.0,0.035469860456757596,0.10197634463211425,0.18039834366685303,0.25772713610209785,0.30923836361598256,0.2617047443567688,0.1933222418936824,0.12147559662720497,0.05410188548503991,0.030066375212040253,0.05517695143520984,0.10382669224959984,0.18759158910526708,0.28479151520278245,0.3851896631997147,0.48571653248818336,0.5879861744045405,0.6906770559932651,0.7976245293172082,0.9045293606512268,0.9525542596714809,0.8864466038161529,0.7892972968606693,0.6857085404211105,0.5825018114655349,0.4782831802530634,0.3791808351862671,0.2941108749702479,0.24481438607779848,0.21586011681159323,0.17532256243337696,0.1812640796206315,0.23297713071067339,0.2553674540651121,0.23481982133242374,0.21261712567144353,0.23747615717340986,0.29766114083214656,0.35861827361859877,0.36317732183757845,0.2980180715573577,0.21840629394521116,0.1353330752202293,0.07116591019523266,0.04789795018856813,0.07384896197702062,0.12066212063109627,0.1995803277309276,0.2946843279539104,0.39595699705002874,0.5053683996090279,0.6095875191966496,0.7128966653982496,0.8148502032800513,0.9161431351021547,0.9855621157983996,0.9413677854640521,0.8582605121610496,0.7685518216825251,0.6600770716572755,0.5496551121371356,0.444582654234841,0.3611845863887617,0.3042193359374292,0.27355085571988247,0.2315014798920727,0.22820615493726182,0.26875490472499886,0.2732412052113329,0.2509002030873755,0.2619248834867789,0.3206456015750192,0.39156476859291756,0.41728863340710776,0.35797305680841784,0.2776847815679775,0.19695053161553355,0.11974896247373135,0.060309161378678144,0.05070293623164801,0.0749852955163619,0.13923985883318757,0.22942898609529339,0.32865781246022063,0.4292449462173842,0.5327496125671751,0.6343287328143177,0.7284914958109314,0.8209195725860807,0.9208256990779988,0.9595938820613639,0.8831561434247543,0.7838692643529495,0.6811264961580181,0.5765003038718852,0.47438458450029586,0.3702085724702009,0.2940403051066405,0.2469052912183507,0.21858824585848335,0.17417958619891638,0.1828101217953515,0.21455602604494772,0.19941901064592993,0.18396660906560292,0.21591607962822956,0.27770975788944785,0.33525400256560345,0.3211616721565955,0.24866340274835164,0.16398662966974964,0.09010251471939523,0.04428351148154164,0.04744581313469931,0.08574791633864587,0.15519243095125979,0.253311942410855,0.3544466443904073,0.45567002908166687,0.5577719984992138,0.6599775915604864,0.7465787891647371,0.8320278780201096,0.9270492517660212,1.0,0.9519451340244154,0.8512474738750422,0.7454354615125278,0.6400616189964952,0.5355242303705294,0.4267197841042796,0.33195399843620255,0.2759637302923714,0.23859370114944967,0.1977984517762641,0.17341925799109648,0.20416859662342124,0.22168539927792508,PM
0.21844399983109386,0.3061602801551666,0.4104094135368548,0.4820466253485114,0.5701777428708132,0.6939609667871325,0.8198689186896304,0.9210714568508782,0.8998494434435405,0.8147236664579165,0.740137099105725,0.6577142306063253,0.5729011849689114,0.5879189797644806,0.6643942862363958,0.7229541876779033,0.736983284435287,0.6663138026717295,0.7194939528719189,0.7051244747325642,0.5810733367018546,0.4489642906471565,0.3071736295777321,0.17329247132065717,0.06818659802400484,0.04161121710479865,0.11762757586975425,0.23003142662428666,0.35188720348971114,0.48372447962105913,0.6154826062543661,0.741020768982154,0.8486481399429315,0.8552276165606252,0.7709318123007594,0.6873897109346692,0.6185747286673722,0.5451757789214835,0.5585003459680775,0.6487174389561658,0.7048368835881893,0.7303809295261787,0.6517473598855925,0.6157152092874048,0.6929265151998434,0.6172220810743225,0.47506102193911937,0.3309793226303779,0.18808868825709335,0.0640362248082682,0.0,0.0457560071690688,0.1449637926388332,0.25784928917097827,0.3832192320359329,0.513283946651766,0.648824725549497,0.7756974253313194,0.8711668851117496,0.841744712292509,0.757263413967469,0.6967920590933383,0.6314064423949997,0.5954420674540766,0.6630455114527083,0.7086590517248228,0.767764874337242,0.750894591183928,0.6525332689639958,0.6818195026196407,0.6423044302223657,0.5022781192639283,0.35622811343498584,0.21792371142144806,0.10341191031746932,0.06529115545282105,0.12616883755207575,0.23912916191198685,0.36129871554344484,0.48852740202140477,0.6162308696129506,0.7519357650373413,0.8767093486535964,0.9325249953220214,0.8548768772399213,0.7679843460203883,0.707815886091794,0.6413300388152636,0.636312232782885,0.7007190422037868,0.7288487430454669,0.6621846182183153,0.586951212765632,0.6510398666248978,0.6142725696477973,0.4693788790284261,0.326551329212575,0.1883023683997671,0.07643307785121056,0.0509366539623084,0.119039057385256,0.23446655044215592,0.35822487390058755,0.4833134860060546,0.5929465799018108,0.7085458002330476,0.8148178145233584,0.7941128667770474,0.721126612242103,0.6736053741911878,0.6240010341645188,0.6415006289098424,0.7081634738421461,0.7571957405452869,0.7443114922104626,0.6902127269218721,0.708096901708539,0.5937999348997469,0.4391138668292751,0.29253423980297044,0.15883553456572685,0.0766170767879526,0.09076935312915002,0.18104392113722256,0.29936356434206,0.3801649474861504,0.29887005475378703,0.19032580335238314,0.13036213196554325,0.2054936001650749,0.3439539422696096,0.4884993361228436,0.6319100227084429,0.7707783502353271,0.8583360123882595,0.85381357132798,0.9345422330389959,0.8973863543111718,0.7949508251341288,0.7373075707879615,0.6819600881592625,0.7059934154052521,0.7458612239169164,0.8043689071278208,0.8761481010352179,0.8772711117702705,0.7763828089883218,0.6536911499080096,0.5315158184870936,0.4053966288850763,0.27183028165769607,0.1600347381719569,0.09817258980162924,0.16890587127627366,0.30222741442596157,0.4463581189264405,0.5914473134239626,0.7344626265252179,0.8237961105310563,0.760574186003885,0.7600439272803616,0.8803128839090515,0.8981221645888195,0.7994962136662769,0.7555135647064299,0.700941837812066,0.7192901557186897,0.7772579836536118,0.8517819639752073,0.9464863716964704,1.0000000000000002,0.9274956179689016,0.8034309386309111,0.6752114520195847,0.546999134796436,0.4194097428072554,0.2928935269904007,0.17264913257689107,0.12382477135049497,0.2098251699761875,0.3479677807235888,0.4939011696776834,0.637171179237529,0.765051557506599,0.8000637551111807,0.7726956630797506,0.8790511373400143,0.9260630652946371,0.8226609280260624,0.7571385543056535,0.7068018134603158,0.6572204409154987,0.7136166820095269,0.7728613012720136,0.8480495760555888,0.930802241446598,0.937130157106796,0.8448105133965924,0.7174201887705964,0.5908805060702063,0.4607071020890958,0.33416848415087297,0.21067891535792982,0.10572640990830706,0.07694406881525229,0.18638981883326244,0.3271309474464814,0.47095446027064436,0.6147698984967527,0.7512783009563468,0.8380425844457517,0.7968695969180553,0.8051118280176344,0.8700517476065299,0.7998343983580976,0.737129929987905,0.650055050555076,0.5966907394247409,0.6592171330840857,0.7287511755581402,0.813578402595353,0.9000759108376826,0.9327143280308834,0.8553658114543159,0.7366257345085583,0.6038178866849659,0.4775882162859679,0.3510167776772086,0.2301592555315468,0.12212437654919639,0.11125549104409815,0.21944235161065317,0.3629834088605517,0.5103707792140091,0.6480754302490761,0.7705322466883222,0.8757216213395786,0.841878570048624,0.7877534216467639,0.8854354429234441,0.8997810842546945,0.7948129108977249,0.7227518554558505,0.6499063247288916,0.6418601027858448,0.7243756543559019,0.7998333583941897,0.8806892277179428,0.9651612682732928,0.9904719612982558,0.9038165768755937,0.7844634051428503,0.6507241080037753,0.5157169164744333,0.39819663599567945,PM
0.7415415878137193,0.7415415878137193,0.7415415878137193,0.7413247908165608,0.7281310210837342,0.6918542322494967,0.6472829622541827,0.6403485045128288,0.6833334402486702,0.7332953834757796,0.7588404819926837,0.7479174867403664,0.6554123059299628,0.5532189197735606,0.4562536033087081,0.3488361626979648,0.24189901673813186,0.14625558467079802,0.04606400912506903,0.0,0.05455019095482383,0.14653028119827782,0.2514093904046284,0.3504439051160899,0.45042767706881515,0.5559626969219305,0.631586399748985,0.6692113217240863,0.6881210918392564,0.6844277420666791,0.6873230381901281,0.6621752758928099,0.6386996835506831,0.6156397451261117,0.620778989362436,0.6642382600234398,0.7290512347159606,0.7712189942799386,0.7665234414059587,0.7588035543627614,0.758675700392927,0.7590450045700643,0.7698855631853183,0.7871525040763103,0.7928953939537404,0.7929437663759624,0.7929437663759624,0.7927042421693988,0.7783929574146837,0.7332195380634086,0.6879710660254643,0.6903437843027178,0.7401865950817208,0.7887417958247496,0.8127767418976237,0.8217373251556319,0.7389531670305227,0.6317670710202239,0.5349561248545918,0.4325127961102737,0.32465216596604485,0.21918553781149397,0.1270889115804068,0.08481238762236165,0.15115883299593902,0.2487204602071058,0.3551490749276254,0.4504966153406138,0.5541851220196912,0.6475264585991485,0.7234661338222752,0.7769748678339297,0.8054615189325012,0.8046266255312053,0.7909011602443989,0.7599853811239918,0.7168051459841074,0.6791145466579143,0.6456995889866288,0.6521656608163884,0.7041811207315778,0.7564257839744135,0.7704216576947251,0.754013403909148,0.741885482857644,0.7322980819986942,0.7305728061677983,0.7411409062431993,0.7466935432638531,0.7638609265029705,0.7753307177956046,0.7766062688350002,0.7885726283567451,0.7894067251717405,0.7632747362070451,0.7149872410665115,0.6817084217680836,0.6949310299609226,0.7461591896600908,0.7873835190341039,0.8043941701368484,0.7806413237976102,0.6909204880924507,0.5848123231545732,0.4771173735562315,0.37818982448179916,0.2780891126135496,0.17245927512463677,0.0848545012030324,0.035241676414522694,0.10184503425062985,0.19955578146276176,0.3000191581825251,0.3979164909379924,0.471401627798246,0.5670051990503193,0.652922104409869,0.7248084516539719,0.7664094770181471,0.782749903145191,0.7621594191448988,0.7313398123660892,0.6930536343811031,0.6441042284897951,0.600713750884144,0.5568193405866344,0.5418632415995788,0.5823868003315016,0.6472378273665744,0.7006986336905676,0.7038682538748957,0.691396723213372,0.6996791282929111,0.7291273667892648,0.7420292200048828,0.7482772264293183,0.7398895276466728,0.6926433700850865,0.629968147792594,0.6064579785967692,0.6466064020733175,0.6907156055568668,0.7389334561240655,0.7755849333395175,0.8040925419525404,0.8299439985643131,0.8278087738018916,0.8025366572175812,0.7535840719568583,0.6805311498353346,0.5845546617905164,0.4883930074633631,0.48631706131621044,0.5782409500905765,0.6857996711781418,0.7912485434411161,0.885420919658781,0.9724583867312027,0.9883366453877076,0.9143651352280431,0.8467757924924308,0.8273532912042261,0.7834281030320547,0.742398407317828,0.7623196677801967,0.8107948710528943,0.8322818855463061,0.8340310301807623,0.8292810899792507,0.8175825624011992,0.8146240129060667,0.803558851908988,0.8030796736085319,0.7840815638158989,0.7747532491262366,0.7824167960255415,0.7923763945997,0.8075019087538315,0.8163188627406228,0.7968438074301818,0.7404979388322772,0.7031856944255677,0.7270546270433749,0.7657764166697669,0.8090055498353292,0.8416498651519606,0.8510515325600649,0.8509475999809628,0.8397883466281937,0.8038724474503076,0.7462172165988279,0.668942070056056,0.5760156567578871,0.5280289112113143,0.6124869528433261,0.7078337786447184,0.8139034692338392,0.9095685972777061,0.9938864137563908,1.0,0.9218902612408462,0.8625048700263354,0.840235898274452,0.7926554199885327,0.7484289971724709,0.7699075545799112,0.8170645764819207,0.8456043997169087,0.8393509205429344,0.8341018328685004,0.8340655092257565,0.8340550283017598,0.8309899144638191,0.8182370098417548,0.8145123112097892,0.8061240079446086,0.8034774780641718,0.8159065461478492,0.8301166772204192,0.8123242271209619,0.7634405882509725,0.6997147201156659,0.6708298193913729,0.6885766413787984,0.7082752026825507,0.7327258502252478,0.7397733326811746,0.7384947004239413,0.7360978845161776,0.7178430727119629,0.6806603975917214,0.61040419627024,0.5207583591702427,0.421330950552647,0.33416507003042195,0.34918473471255096,0.45345564571967323,0.5609801179070324,0.6585149771413592,0.7600892527091161,0.8627045438944103,0.9408238271256444,0.9404958209625796,0.8605609141857187,0.8173092321859841,0.7896602188766195,0.740113491008453,0.707584485813542,0.7407887166641025,0.7748720336893515,0.7874636552571102,0.7977774777448521,0.7863390961690451,0.7948391553449783,0.8075260001072868,PM
0.09431463746661573,0.10357396709810507,0.11350954218165032,0.12314635975589416,0.1149336368044298,0.10314142109675206,0.0866107259037312,0.07802612070736403,0.06915361954843569,0.06860536569033648,0.05178354888479664,0.026741776649833682,0.015138008496587751,0.022846673832794373,0.05300843595820881,0.0749232433897058,0.059988103021682004,0.048010090650731474,0.07865591023701679,0.14322473136117964,0.22298223823231478,0.31029563296132157,0.40124389355195733,0.49308470081508293,0.581427735110438,0.6728806423076872,0.7183391721699932,0.6553612747431625,0.582058712470956,0.5196261215108815,0.4476846619455954,0.36999774379769956,0.2898501278569716,0.20554567161730386,0.12328396895299276,0.058141447989632056,0.020328114037468925,0.0027334144021367024,0.0,0.010617012900091094,0.007656840383865937,0.042272098992778506,0.07970523624698345,0.12543234812128778,0.1549363594558324,0.13950227968433815,0.12009885525980524,0.11571837126108875,0.11376847049645678,0.11546738630806752,0.12542426008614305,0.12353406914643594,0.11075112484310123,0.09474503892013875,0.07794668718884257,0.0649764175544667,0.054377587609506506,0.03383271796402587,0.015433452090423572,0.005237431985476437,0.023318634674180494,0.05143029949083022,0.07234578477016296,0.08310933310855351,0.10772587450095461,0.145693196189828,0.2131740750450386,0.2963671101812042,0.3825589218094354,0.47233627796127964,0.5616517467246624,0.6573780320578573,0.7476138127885674,0.8254597634639969,0.7914922603750751,0.7029750797031884,0.6265574005072234,0.5589011895991365,0.4977836374544782,0.42126509910091814,0.34056171307648997,0.251883459386236,0.1741916890155335,0.1208099366380786,0.09273688764175825,0.06966933269138842,0.058162956027333124,0.03723708707610163,0.03328386255356808,0.05769719069667234,0.09480696775684949,0.13158450051915427,0.12245445017500778,0.08472617132848415,0.06814412936683478,0.06383098597266335,0.07469595562655451,0.09773988600080807,0.1397807097663768,0.15697154285353943,0.15021104498119753,0.1320279192919327,0.11651073326509565,0.09889882124432425,0.09241216158368548,0.06761224270239907,0.03987246269573541,0.023776442433672162,0.019027992626458268,0.03144970427641791,0.03530146207607121,0.027993634112321253,0.01650247779446179,0.03497716346636537,0.09575404241429819,0.17754120215155966,0.2630177377254972,0.34989059421368607,0.43774577088753386,0.5331537032674221,0.6198007253329383,0.6470561182488122,0.5791062411490393,0.5136922356351028,0.5419581973254388,0.6259891769884751,0.7105780302209759,0.795727554538721,0.8527538857999395,0.8143952537214951,0.7322675332833146,0.6398212386023152,0.5494387580508548,0.4583551423951664,0.364235068409108,0.26622717844642274,0.18243695668851378,0.10668366806966745,0.07142537547737327,0.07905315787061218,0.08440865947295384,0.08211875508331579,0.07068073102696903,0.08258570171464896,0.11398810378093671,0.1418151491846369,0.14359112818411113,0.15679264512051372,0.1752704774824041,0.19406100114618408,0.21162083686509492,0.21482385790804326,0.18924186353802153,0.14720047966488004,0.12182507638887774,0.11659347465911818,0.12920935317028404,0.16727636276745939,0.1905858677845682,0.1721603435736463,0.13283298574457092,0.0963045025726097,0.08135988134440408,0.09689061209094252,0.11787992702421812,0.13745034698358927,0.16916639128485533,0.2299965413958418,0.30828881423397947,0.38882805769757933,0.4738892490829518,0.5523246503050752,0.6124283899174334,0.6855262375537894,0.7656470430296971,0.8461376418673123,0.9268420368365482,0.9999999999999996,0.9871044089466459,0.9069296357918422,0.8175672184228335,0.729347031601689,0.6350288756448701,0.545736079584564,0.45329061858271835,0.3632532434416418,0.27762564366366105,0.19808254568767047,0.15080351167309924,0.13320496033235907,0.11866955567904292,0.09654775201223575,0.07395310308330627,0.06217121056507091,0.06781775133352008,0.08730333822753922,0.09969789168520027,0.10972895555020523,0.12580603709313687,0.1483998474060857,0.16262769770421803,0.17157999615585817,0.17901399574264154,0.16495651067874917,0.15905563995087713,0.17217447907459693,0.18423702166098055,0.19704222059674814,0.20538608328362384,0.17359976379236164,0.12943602314489366,0.08556959466294467,0.055761476645289854,0.05262381272355254,0.052841714473219614,0.06692960628585976,0.11818452421437176,0.18710662220056662,0.26559045992884567,0.34894112130010013,0.4348971140741176,0.5139588727140283,0.5764943090953789,0.6445350976910347,0.7151534236872337,0.7939913814187753,0.8797971265822597,0.9135171089616394,0.8532790623995021,0.7633296533177067,0.6741783244953785,0.5816183610603289,0.4905879226255436,0.4020283448193931,0.3115928288100194,0.22319773250202912,0.14141159177863427,0.10874086959706242,0.11391999235860295,0.129567901799442,0.11722668119203128,0.0825346441701944,0.06392205497964243,0.06982568337112482,0.09340203071646336,0.11490268049891528,0.12010093147405287,0.12688890623996452,0.131769116146069,0.15081136542817308,0.16324296682226924,0.16403982802621586,0.15963537960302032,0.14700219770890177,0.13433232410858142,PM
