0,1,2,3,4,5,6,7,8,9,10,11,12,13,14,15,16,17,18,19,20,21,22,23,24,25,26,27,28,29,30,31,32,33,34,35,36,37,38,39,40,41,42,43,44,45,46,47,48,49,50,51,52,53,54,55,56,57,58,59,60,61,62,63,64,65,66,67,68,69,70,71,72,73,74,75,76,77,78,79,80,81,82,83,84,85,86,87,88,89,90,91,92,93,94,95,96,97,98,99,100,101,102,103,104,105,106,107,108,109,110,111,112,113,114,115,116,117,118,119,120,121,122,123,124,125,126,127,128,129,130,131,132,133,134,135,136,137,138,139,140,141,142,143,144,145,146,147,148,149,150,151,152,153,154,155,156,157,158,159,160,161,162,163,164,165,166,167,168,169,170,171,172,173,174,175,176,177,178,179,180,181,182,183,184,185,186,187,188,189,190,191,192,193,194,195,196,197,198,199,200,201,202,203,204,205,206,207,208,209,210,211,212,213,214,215,216,217,218,219,220,221,222,223,224,225,226,227,228,229,230,231,232,233,234,235,236,237,238,239,240,241,242,243,244,245,246,247,248,249,250,251,252,253,254,Target
0.6323107945417488,0.6419653713637583,0.6634924552740795,0.6740231228012483,0.657680796311376,0.6170197969486093,0.5666799314868931,0.5220796877385441,0.481991829142812,0.4924525647622078,0.5475931544744332,0.6173676350454591,0.692253069299896,0.7247381677980953,0.7346285132869466,0.7568639239301338,0.7855023976706375,0.8541220194757453,0.9200041811025885,0.984739440312068,1.0,0.933012751003238,0.8402960102858885,0.7446283568380068,0.6459757881736441,0.5460874688194428,0.48965514980814495,0.5747514229614303,0.6737269204108567,0.7640135760610813,0.779934730103403,0.7595261338096462,0.7344627962508512,0.6987041482617009,0.6960423499881916,0.723193526390506,0.720929875274924,0.7324425923707221,0.7282742586176929,0.7212583417172151,0.7191954984515112,0.7233757532486091,0.7309380816426918,0.728296700030358,0.6988701748209625,0.6804069581620764,0.6658073147103649,0.6577149448472541,0.6191178863675817,0.564208677503721,0.5109024648410934,0.4671627727156302,0.47869016974059386,0.5346372781098818,0.5940343935012158,0.6403368590869878,0.6573453833058065,0.6636094419614671,0.693522867792931,0.7465521167214111,0.8193361404904533,0.8788861818914238,0.893213558168934,0.8314246112783872,0.749992701618849,0.6533678419813982,0.5495638286504438,0.45635574562053716,0.484514401566162,0.5792915444634446,0.6571055093694773,0.6581094660271076,0.6341022820149327,0.6149152749849356,0.5684937282949631,0.5745809392398034,0.5997085899382588,0.6083392910010339,0.6314638593647159,0.6452601848651742,0.6268761893516563,0.6296189402834629,0.6393829650218894,0.6353371219804962,0.6380004516693658,0.6242418479689209,0.612394835267144,0.6153492892981989,0.5732840109740454,0.5293139748716214,0.47935961574911,0.4298217322749087,0.4224837247750415,0.46573867404582936,0.5224712140809911,0.5766948398721636,0.6146477951321767,0.6228478679265819,0.6092866870010236,0.6334624640182418,0.6697013579531141,0.7430072645977566,0.8222643365970437,0.8723054063256384,0.8536043283518646,0.7765699943429261,0.6686092661501997,0.5695727444037622,0.46893105313326,0.3678809663207008,0.29935008195528967,0.3717283723711051,0.47547156205363716,0.5777791606260232,0.6633726336783639,0.6696662588043218,0.6454052655713154,0.6397891249235017,0.6322445390837546,0.5881630154349518,0.5797114403354424,0.6120688174482387,0.636292523251544,0.65860134187422,0.617032475629308,0.5562278045936764,0.5259007351172951,0.5079730537163578,0.519384518788244,0.558087676388352,0.5729770839669577,0.5759524973631933,0.5410225535815041,0.44382473143025214,0.3375625085026641,0.2336076904223452,0.1307199346907595,0.03090505841927893,0.0,0.07857206138013018,0.1861683563519274,0.28993100969544594,0.4038040762366495,0.5082080055612233,0.6066768896086332,0.7050709924384266,0.7932057153173355,0.7855237425286661,0.713905524704086,0.6329898904993665,0.5853786152070626,0.5545274961809707,0.537823275665736,0.5264603523580238,0.4905908404342103,0.43445851816796743,0.38288062079623897,0.3492585018535186,0.3653698029786634,0.4203939830302579,0.4714388142503969,0.5173176618238502,0.5463043203434146,0.5558121814726196,0.5677071023214602,0.5707997161680742,0.5706835810045976,0.5641660460407105,0.5398245517096667,0.5385842822476277,0.5473705740256554,0.5394841050294827,0.5191454667095186,0.49265973323396395,0.4963680601896665,0.5397069719991183,0.5696674189504538,0.5723883357737081,0.5003831430620487,0.40241571650499264,0.2983334213330213,0.19801253028537147,0.15111257979366854,0.22468920252387026,0.3335028806024165,0.43625503773369667,0.5393738693735566,0.6329075807668403,0.7240614223991302,0.798368910717882,0.7812522939678637,0.7021221744771946,0.6428662169230224,0.611508371596929,0.5996899603794499,0.5893862794746352,0.5452688187374939,0.4944760609272816,0.43461581440184105,0.38776669818617293,0.39737291144707765,0.4491975598654294,0.5007287616869802,0.5506714041677925,0.5950387302622806,0.6038999500710256,0.6236937597447962,0.6341183938696116,0.6567273823281425,0.6605334511499885,0.652401397227607,0.6575934185425929,0.6652422742403572,0.6658649894580173,0.662539810513584,0.6579756010955551,0.6333710923790474,0.6099267653526481,0.6440597168992936,0.6714947692600064,0.6964416754627205,0.6589240730912405,0.5638287690613262,0.4577945934484471,0.3740177652005596,0.27813175165483184,0.18403992487867882,0.1662954536548824,0.25149178822215346,0.35754086428266385,0.45894831565424754,0.561028359083088,0.6618043973198882,0.7602211248742741,0.8548281844139738,0.9170525107127747,0.8630641126290848,0.7955225229554879,0.7313114499286342,0.6879775138725259,0.6699323048206742,0.6450270213772216,0.6265624640921854,0.5671968285046907,0.49836622517313733,0.44213092055416015,0.39715650401488745,0.4054372256810326,0.44311942069314236,0.49142720571783327,0.5413869242384166,0.5788067957869822,0.5852516496647122,0.5800401907820278,0.5691527523196429,PM
0.8186707551158929,0.8009031369060096,0.8001084998898307,0.8058490410113084,0.8067910469292152,0.7936677587235987,0.7772877956118704,0.7764117962413097,0.7751954863228407,0.7946274295565132,0.8009356296376975,0.7914043215505124,0.7639436868879486,0.7055849201267836,0.632373780813396,0.5515088546817428,0.46710216645543534,0.40816218382527714,0.46345883211665795,0.5500045790841637,0.631527536248023,0.7210406500316466,0.8027053316773713,0.8850989807883014,0.9406535714536566,0.9127069247518929,0.849942942528747,0.8159185005972942,0.7932630830256611,0.7624551895248,0.7812351221950862,0.802213476907081,0.7987157438796166,0.800852898980656,0.7885872965333798,0.7880990906952299,0.7901177686197665,0.7737031257150893,0.7785595275317894,0.7706285171701368,0.765160960190078,0.7766904521664193,0.7786420037553978,0.7807656644460232,0.7649464696249377,0.7669050909914832,0.79517215309912,0.8023603031662314,0.8143615609731207,0.8113260290275761,0.8096850361273424,0.788050864187356,0.7347414764057065,0.6617748020081584,0.583846003950875,0.514497517476036,0.549285580112163,0.6349577179127945,0.7187709661452129,0.8025449204753317,0.8831215449186809,0.9323039747336712,0.8928068590010718,0.8340060720770635,0.816336573289115,0.7842403415104662,0.7675052922383601,0.7830284962584853,0.7932019990766523,0.7935546573320069,0.7931327315661054,0.796945257772447,0.7934194199090978,0.7917924035047355,0.7937823689481163,0.7827439818962114,0.7876919503107467,0.7923853707867408,0.7927464828301725,0.7974172045924024,0.8066166856250865,0.8155491125681245,0.8259152714455729,0.8277716718703108,0.8561237722633726,0.852800955877405,0.848598294339288,0.8351194969668811,0.7936262030351746,0.7305690108704304,0.6516529594957388,0.5700429017079731,0.5317123722307002,0.6020809272440109,0.6925740564395637,0.780644859361757,0.8613328048002762,0.9439110891224947,1.0,0.9688719573224289,0.9024541625120603,0.8597647634162069,0.8285197066042596,0.7892596949987025,0.7868637166503083,0.8028929834957497,0.8020046281843172,0.7916772222205153,0.779897358279912,0.7701582663538202,0.7663009814779302,0.7673636030793451,0.7633958961031335,0.7586127520028612,0.7729690824903375,0.7619635916441374,0.7444784374970443,0.7154837582418199,0.7081010429908687,0.7072170642163624,0.7038080387779879,0.7173924660261779,0.7242755895444346,0.7254443090701534,0.7341403555989872,0.7387080495856759,0.7337253773261669,0.7441452501053263,0.7359066930739835,0.730803059272799,0.7501960590245167,0.7916850037559602,0.8204915665887045,0.8574799332903607,0.8317549019243691,0.7520275509636871,0.6660110627291194,0.5772082454055425,0.49660106518938174,0.4075724377950751,0.32196299838497855,0.23955927881418937,0.15880912698596705,0.12794021111917075,0.19365380684605027,0.2750895755412004,0.36160795582094707,0.45009883703942366,0.5306594575874786,0.6140960301291662,0.69345229911431,0.7626095020722348,0.7976480303298858,0.7975600636921705,0.8132166304260808,0.784290386744571,0.7560031254538071,0.7524189872859441,0.7563022130470345,0.743531804681075,0.746108856155224,0.740965300621562,0.7448160515807314,0.7385573282536746,0.7331393476072039,0.7329441058266712,0.7418362922069219,0.7477437456875449,0.7482737142128983,0.7485701895659509,0.7443474580538423,0.7343532553609449,0.7080890230454502,0.7174068862116645,0.7522777215635905,0.7720954030936258,0.8096129410471682,0.7903403265130269,0.7060657781811011,0.6245863570828947,0.5346600556494916,0.4501988079857029,0.3800428001108549,0.30245916852885446,0.21691426786278334,0.13455803838910274,0.053350050801263205,0.033587257721050534,0.09919221335242034,0.18352009359899046,0.2665000469789318,0.3568710588058619,0.44749676843743136,0.5377174601495702,0.6184465731945994,0.6897357550950867,0.7427457021406862,0.7629775626280746,0.7575481646559905,0.7577679040728205,0.7549868846830452,0.7235496412072209,0.7122101316252327,0.7193650627656325,0.7307833076000039,0.7297971260601708,0.7251577618043381,0.7157397726806054,0.723112688325136,0.7323057165348974,0.7213457390406428,0.7307901144926756,0.7422763925436344,0.7409278660053609,0.7486872342193127,0.7502975183695217,0.7430755481347906,0.730996074502642,0.70871385093518,0.7146858387808757,0.758933212837599,0.7818193055017351,0.8091868454896911,0.759745557691752,0.6699276115142769,0.5793668757834605,0.49395403380105196,0.41111716290062694,0.3212898827903159,0.239568598008159,0.152989524473651,0.0693997878430368,0.0,0.009003048522959078,0.08431044429654677,0.16827334083792844,0.2586895558033955,0.34390459168411724,0.4269040990890274,0.5141018690215129,0.5952496249480377,0.6792914818853677,0.7322504770754055,0.7478376917724585,0.7424211679279784,0.7349700327680555,0.7312182597068104,0.7230702846512722,0.7272622110136702,0.7465844617677413,0.7564105022503043,0.7576065518031676,0.7554012459926507,0.7462537199723256,0.757647450503808,PM
0.7786563394159731,0.8013948785614926,0.8306170980385514,0.8816230333683692,0.947828017709295,0.9809317333574872,0.9284553207801793,0.8469981627666714,0.7670158875216433,0.6802933656567478,0.5931178506382411,0.5059421471216741,0.4188426019875693,0.3479572182879269,0.38481020575488967,0.47050529643314065,0.5506485708085282,0.6331845732408108,0.7115455577241598,0.7866985541278027,0.8307604741937149,0.8163109064702978,0.7796226416048928,0.7451604910840051,0.7618346052762959,0.8024701989230802,0.8177316097716623,0.817749343218084,0.8113450213275173,0.8040778149854806,0.7962134278800403,0.7891004495826273,0.7903401681913407,0.7793773434294977,0.7823198589079079,0.7951967584365627,0.8009236511691913,0.7957534260245804,0.7753430475593692,0.7388700620791104,0.6865917921318696,0.6387201665563682,0.6497355756050869,0.6943586142460934,0.7347141635423118,0.766950811928486,0.7893319150358662,0.8140616298749921,0.8584111564830494,0.9243457440164495,0.9836307834250224,0.9617021916040049,0.8878488587637059,0.8040129068960216,0.7169721651289773,0.6348600610867572,0.5562930743831338,0.49215660457177335,0.4590207084101541,0.5218926022000479,0.607249159930457,0.6860084393652803,0.7639914048776559,0.8169889577745064,0.8066688597094358,0.7736530040732061,0.7296964457236841,0.7290272797775885,0.7669607466228494,0.7838361204477524,0.7815814971846662,0.7783975681315978,0.7743545505015095,0.7713078308146055,0.7674538584339046,0.7585095279582195,0.7642970902222768,0.7755400859880928,0.7798148805428844,0.7721600119195531,0.7548789551995172,0.7162492813039143,0.6659438610126722,0.6239733511511276,0.6392968502826011,0.6837505064160887,0.7289631917877286,0.7580534822114984,0.7796567664229055,0.8091410129422818,0.8606881930196579,0.9341694963653051,1.0,0.9998164179181721,0.9277765794813715,0.8486046879804481,0.7640732087743165,0.6772593517984395,0.5980592699541465,0.5664775480071225,0.6373642977465608,0.7156974484907239,0.7872911429728153,0.8188247913720184,0.7992080525703373,0.7646324374262397,0.7308861919538339,0.7571422311099689,0.7920726435327707,0.8119837311884317,0.8124114630116157,0.8126658617527909,0.8163637358308382,0.8135878106037742,0.8132360241242831,0.8043382993442518,0.8027588480010459,0.7833145344365713,0.7675736605247672,0.7667681580224226,0.7744177080849359,0.772945406624358,0.7756100924673108,0.770559488298725,0.7727679097599975,0.7610565490304493,0.7281604391759953,0.6950658246415418,0.6984511232340753,0.7402005171301793,0.769171394895455,0.7384388603028025,0.6619812569665529,0.581519004344907,0.49590169666159656,0.41679236145700505,0.3313068900484195,0.24914308957840858,0.16781726002127018,0.08720777617525721,0.0261352182928547,0.05897459906281588,0.13938958932851775,0.22023836617921888,0.3071661440591178,0.3943415589983561,0.48101038956605713,0.560861633954195,0.6449856884965579,0.7321264516116706,0.8162816779092084,0.8525201219820726,0.805967690054957,0.7672662914756274,0.7410008842113491,0.7181679508003953,0.6821697018761113,0.6344741505355187,0.59124406444457,0.5749285867454308,0.6045835030849451,0.6540552091239982,0.7038429119236402,0.7294350442563846,0.7410171215357173,0.7411795053844168,0.7278298238772176,0.7194578284583655,0.7275608776634606,0.7315926024103099,0.7364230498841631,0.7383589144025444,0.7432680010890245,0.7441948290149352,0.7295445073493811,0.6939408458532734,0.678959871065826,0.7141502391793304,0.762200688717154,0.7658215958803722,0.7029657692236069,0.6211227326001809,0.5416949035341987,0.45521022691754487,0.36803516344302345,0.2811762234905244,0.2007562119165327,0.11769182542007472,0.04142696401105428,0.027842561132563448,0.09659997339545034,0.1827661675154384,0.26286581024224787,0.3466360845221743,0.4337798692791959,0.5202533473447726,0.5996736884136946,0.6844130128586208,0.7713328015795169,0.8395456880722763,0.816476340582843,0.7818183600325781,0.756475777635379,0.734741687608045,0.6987907419505179,0.6578119637216766,0.6115377686722046,0.5905452538151001,0.6220671567096738,0.6769844036324022,0.7252009534520676,0.7528544202678256,0.7602715119141585,0.7600787669072457,0.7480185441398521,0.7392919626523555,0.7492286033664859,0.7549223221346806,0.7623966132742788,0.7646246802235235,0.7694578457322117,0.7738219295384838,0.7793197036125359,0.7827191557307389,0.7556636743703768,0.7184490741590417,0.7008046704526543,0.7332499729610156,0.7744538704882709,0.7674827827360389,0.6991147353520126,0.6207559565972105,0.536001617286187,0.45521352313438634,0.37225063968129435,0.2856129188503631,0.2056928815044563,0.12191573251238363,0.042092832396714686,0.0,0.05776776143336049,0.1364742007936517,0.2224312290943431,0.3096026778747878,0.3957808540649974,0.47353643568994097,0.5436210322557284,0.6256214026996147,0.712603197371658,0.793981559710512,0.8532874538931658,0.8265883874170517,0.7881215502496188,0.7616300253630364,0.738229354127228,PM
0.9992848441268896,1.0,0.9434442315354445,0.9069459529829436,0.8296650933712355,0.7932070082962444,0.8089701564977112,0.7625607842841369,0.6495617762569417,0.529150560589267,0.5486873247578012,0.6134271569343213,0.6359209833500374,0.6552540348283351,0.6360271381035316,0.5669323092282763,0.5271773349917579,0.5693784150203367,0.6380662022094699,0.6791670894382538,0.7146428761373214,0.7167036704980365,0.7269121244753389,0.7175442473114595,0.7223960479502596,0.7277569153627388,0.7399108047063496,0.7525782513421895,0.7222164038568168,0.6907164128721996,0.699678552835846,0.6807729595439715,0.6782786933954217,0.6626721821109207,0.673022293410896,0.7134379146863363,0.7583318567966639,0.7497264168008178,0.756843163358722,0.7440795801418592,0.6543728289646618,0.5527602874030944,0.46190201773137574,0.5289543223654265,0.6192676113530107,0.706129365775114,0.7567905262727752,0.744113675879623,0.707289250111689,0.6212614843564079,0.5481878703695253,0.5516442893690936,0.6209399209843545,0.6846653773360716,0.7315472233193541,0.7439735396080245,0.7600109858477779,0.7663437017555754,0.7754807252487801,0.7521274113385843,0.7608032071116781,0.7679173100923782,0.7703598358775796,0.7611813703788846,0.7477064509464455,0.7603134305444232,0.74566562237578,0.7640086428863055,0.7853299969190672,0.8060691018761252,0.811756871609326,0.8078402107610669,0.853466300346879,0.8653232845447958,0.8337422273953967,0.7388657202614635,0.5918396422149712,0.49122171673413106,0.5771938269034651,0.6774742810342635,0.7694826974356594,0.8212750637838218,0.8053538480114906,0.7672236505214309,0.6843206921827587,0.5839117184633897,0.5401909718591504,0.5972976287907557,0.656368029334562,0.7216425487553781,0.7505598809645324,0.7684847319936265,0.7641017033168405,0.8067887814423997,0.7823017577305427,0.7816575457558645,0.7950026379720256,0.783875947060678,0.7868222981945099,0.7781179828010023,0.7737606310957101,0.7781288498737009,0.7548612651316162,0.7829864916363638,0.7847429830297656,0.787191592618071,0.8319886342911884,0.8522715223061237,0.8718187306533753,0.8760117947010064,0.8181477517061566,0.6943687533682397,0.564031706565931,0.5376683891305936,0.6615706306869109,0.7515329920763572,0.8129737224201738,0.8513160095990733,0.8429750932624973,0.765123029806265,0.7227472843133533,0.6963006113453547,0.6022883450091179,0.4876966152246833,0.3453535624749886,0.21303224072011462,0.10315048962843987,0.04923983478985061,0.14692779120737942,0.29110277574523025,0.43022576993958417,0.565218723894092,0.6928957157441831,0.7652011331402715,0.7450498913938324,0.7471047067776526,0.7172458204072605,0.6872430707371864,0.6782302762839647,0.6706385817147984,0.6646210366707059,0.6718771436814697,0.6580730934446413,0.664193615659352,0.6680972875259439,0.674496137520233,0.6610880128731322,0.6770585900173636,0.6772330536156188,0.6628839594735503,0.6596662280721022,0.6601523103333813,0.6331349172359388,0.5711635510045472,0.5062676732397611,0.44147590937027736,0.4446955869598588,0.5187164261066162,0.6226221399075502,0.6867893887345158,0.6925803090969307,0.6637686911919909,0.574043600656708,0.45947495241756187,0.32481381350741856,0.1825157576840053,0.05379308925173332,0.03969220330669465,0.164236596738506,0.3054768392485414,0.4500977705267992,0.5978073625417872,0.7094761058072683,0.7440800753670418,0.7117944629909188,0.6918175101403055,0.701962246389666,0.6880030882624464,0.6606402811629719,0.6603918887942397,0.6511803727189989,0.6510802179750854,0.6549944702821797,0.6742543451524892,0.6494502863453606,0.6479954384077438,0.6510946957479078,0.6563436179857094,0.6491578137024057,0.6421090760411081,0.6507649365808161,0.6355931193767672,0.5838279267990654,0.5294716216179065,0.44254297416384425,0.39093110412665677,0.4315810863171432,0.5162450808780603,0.6045087499096278,0.6480384610996133,0.6125888106689104,0.5284145749368401,0.4290252314536529,0.29960792445599527,0.16508332499397804,0.03084533546174395,0.0,0.117805634479486,0.27163776703142606,0.4078880455125464,0.5514348620820249,0.6212551391270873,0.6445564386980651,0.6473325575295696,0.6073033087042807,0.5734971735476924,0.5580068610603632,0.5328606930278479,0.5611569507264642,0.5837844523924627,0.5985675013948795,0.6114929450782212,0.645960693239779,0.6483761785599285,0.6268761742949378,0.6128552008136685,0.6231624339859101,0.6187671413740947,0.6126527403304296,0.6194929809162,0.5850458201338862,0.5227056589591532,0.44660734710111427,0.4156088229151793,0.42442256085405816,0.48923738854210796,0.5521007074531532,0.5271941271973093,0.5459574401355862,0.49847225865304257,0.3892917314748541,0.25266329458993386,0.11730606163310497,0.07381470124520151,0.17556922033468814,0.31415634424225924,0.45096037855424687,0.5886330558707993,0.6774657797808583,0.6795992843446408,0.7258534426355023,0.8141511238766599,0.8439244172324223,0.8639690022279956,0.8557934895830135,PM
0.8888127961991459,0.7840046479795793,0.6770658156737124,0.5475556053261252,0.40563989248118704,0.2788903015177615,0.3324490396196511,0.4715098106232225,0.6083649720257522,0.7423425285460725,0.8622462811136975,0.9137541399832201,0.9181732615219591,0.8697446062451419,0.842046593537852,0.8657314230819528,0.898859368682638,0.8936446096941904,0.9109916035639056,0.9219118977175267,0.8941808821085648,0.8742392426250283,0.8354796523779551,0.8504451065960379,0.9113527101938068,0.9297525587555828,0.9150937859039354,0.8909170184132438,0.8806061981727824,0.8773483084083376,0.8147132501583436,0.6914198032334866,0.5558896363728745,0.42048757846576823,0.31002010047826056,0.37771902393798173,0.5237463340697044,0.6572367061568882,0.7783421003638078,0.8380014748393205,0.8337865146964454,0.7933963921128062,0.798003288088355,0.8565685560695573,0.9083230138513305,0.9489023902135343,0.9625659006417191,0.9650689089002356,0.9791368253113499,0.9530188055718916,0.8971145898245272,0.8734777420078785,0.9040054013805041,0.9286701907283428,0.9872488486326718,0.9820768071324184,0.9712139475364792,0.9693653883722662,0.9282194193081548,0.8150540842108391,0.684374092931201,0.5495744558211029,0.46515419002484837,0.5561276279852638,0.6934678614747956,0.8209491436551528,0.9219224076329864,0.9282168513470785,0.8918472075870745,0.8167337578108897,0.8075237476697184,0.8572119378057721,0.8922681460705801,0.9719838108487862,1.0,0.98096103007583,0.9340300326047464,0.8934309922320929,0.8462219508697078,0.8195565365954076,0.853366819091955,0.8655581189924018,0.89014133273283,0.8909119149216522,0.9063983052262023,0.9070036932046133,0.8839214427812632,0.7799049898990953,0.6527082899659105,0.5367562466951297,0.4143922885293816,0.3117359526286614,0.39941854571616586,0.541485964562824,0.676876097193464,0.8080183461238,0.8951941308639668,0.8925395209357467,0.8748706302902063,0.8545156249468144,0.879018284775607,0.9039159662363896,0.9100077411177532,0.9418904225393137,0.9447285336566145,0.960033081867798,0.9194597080148696,0.9035121044654044,0.8954667673227208,0.8573163890955313,0.8672875946011764,0.9007824818199479,0.93221693646265,0.9368474679644003,0.8888619780065081,0.7809727518280876,0.6510668235414165,0.566833406632985,0.47876344569421425,0.33944868888968305,0.2803378016738374,0.3330077901713637,0.4724619049672647,0.6053760432173099,0.6643184476946362,0.7741458022646595,0.851783484815507,0.8483955211221739,0.7959575056941484,0.7935631531815126,0.767314141082418,0.7909180900539923,0.8079806474165379,0.8095755658156429,0.8617222804630367,0.8710312388787456,0.8546675962320132,0.840090245583176,0.7909687276607031,0.798691997431944,0.7919650955769639,0.7566095017437173,0.7804520311316048,0.8098852521658859,0.8159884132557953,0.7394050368852145,0.6051204097013536,0.4673900717579209,0.3265446190512238,0.18347229385287767,0.06095658477766719,0.023582336715641805,0.12635220045665152,0.2555315608301436,0.39331649041581684,0.5293481758705227,0.6647650939006451,0.7836427052316175,0.8259943555049425,0.8151316080167681,0.7874958126999521,0.7554324147971281,0.7753329832697973,0.7787732369200384,0.7553245276995009,0.7273982402888164,0.7751068668621381,0.8245361108955733,0.8658647571388305,0.9067844634426181,0.9074815365761979,0.8506437716812858,0.7942456195809227,0.763268129660204,0.6994271644911523,0.712770433071165,0.7849226701089425,0.832320472682964,0.8101194925672908,0.6923399685480733,0.5590782551065963,0.4133033246215332,0.2795374785523035,0.15480854374932473,0.12072841093862685,0.21696289432793092,0.3492284328883888,0.4974397736301519,0.639572220192048,0.7696883450316889,0.8649210623869936,0.8918770325225256,0.8964375988195807,0.900999100129404,0.8627505870571581,0.820676990559905,0.8186420892190673,0.7904359035917135,0.8129747001040886,0.8697294141181189,0.8992256347858527,0.8741039127679517,0.8820642669818888,0.8727935415778667,0.8281322466961951,0.7726322745915555,0.7106012254858265,0.6772012854605363,0.7228437011690914,0.7474045869500419,0.6632350723118838,0.5331958325768782,0.39539145135686526,0.26044356365143484,0.12379662110882705,0.010912084040282544,0.03093140342866274,0.15257428135641637,0.2801360249409215,0.4197806661172301,0.5417156116767283,0.6577289414238865,0.7732236501048537,0.8106619811750697,0.809365201828391,0.8152604647465123,0.8397329262879332,0.8573744742845495,0.8449089644400396,0.7899157805948955,0.7407636670753734,0.758863524316117,0.8037239691041558,0.8325852907740892,0.817445321300974,0.8264973696425488,0.81535033371877,0.8111376463704967,0.7745750671364049,0.7544320115046115,0.783868073923288,0.8245737026992392,0.8209784606873307,0.7325114027829227,0.6011864799420317,0.4566864132202455,0.3221215566285984,0.18050250802677903,0.055846719379187615,0.0,0.09311100510809478,0.22750417032237635,0.3619910406285891,0.5021811574956656,0.6287824331281855,PM
0.9771547865314792,0.9358241589785471,0.8948702781039867,0.8698622157582633,0.8566555145044802,0.8537016723199667,0.8465029164422774,0.8145305281320533,0.7547363861440707,0.6895503049696375,0.6190633898580974,0.5519776046538188,0.480350431155972,0.4146282146259558,0.41892948229346694,0.4854878014185945,0.5580480089680732,0.6306395561714687,0.7013747324913832,0.7642725983069955,0.793370493797458,0.7822212363865523,0.7691879855973579,0.7612771179483743,0.7638934631564073,0.762494769936437,0.7623331151708351,0.7624195277538784,0.7670531686468197,0.7579363743560438,0.7496336896164785,0.7540084698712043,0.7874412491685606,0.8372229548458962,0.8932772124153346,0.9449712254183541,0.9695844944711914,0.9460597689120295,0.8970913126311876,0.8587380708169962,0.8361960036256667,0.8219487758994587,0.8221995203532398,0.8203488411417709,0.7891421428442756,0.7287740455541226,0.6622146118840736,0.5929580403120692,0.5253612293896163,0.4549869700368051,0.38781509525748625,0.3898876107132241,0.4564609340768526,0.5236861084542775,0.5956810094494102,0.6678023233270979,0.7315202749783277,0.7655259141072145,0.758373695119903,0.7502495980418667,0.7562882294210788,0.7652780760287404,0.7607998081849704,0.7614943674887956,0.7556023446061632,0.7521714500694617,0.7512289344338418,0.7503094554563144,0.7724467868523793,0.8215318402332431,0.873487255417477,0.9280396143378223,0.9766189472055861,0.9756607514579473,0.9348638469864617,0.8901687444217378,0.8629343439481444,0.8476115384564168,0.8325389975149192,0.8323096746659803,0.8224042803202943,0.7767121917846928,0.7139691541197878,0.6469606128637854,0.5767443322056803,0.5093414707218512,0.437261518840216,0.37597830418408373,0.3920719505178999,0.4564213976697614,0.5258563787581519,0.5983995116578017,0.6703712511678691,0.7318160574526761,0.7651717091423181,0.7610110233108801,0.746333633367095,0.7598328706844594,0.7656413976585664,0.7646292296637344,0.7639048158026812,0.7600134739396921,0.7516933182992037,0.7508845919868253,0.7566581547143113,0.7889026103219713,0.8342121214049433,0.8917356106080639,0.9526917558754356,1.0,0.9935313329035401,0.9532843990111736,0.9093134514539142,0.8665947842871983,0.8344242123807094,0.832448408070335,0.8685175173877425,0.9152914253913628,0.9515097655360366,0.9318284781860938,0.8761534561427736,0.8176312947392671,0.7684014198877797,0.7324917916326995,0.7148907302372834,0.7172278906657735,0.7268879455176379,0.7349098876362729,0.7318053166136124,0.7280492562779929,0.7211201606978134,0.711303018140567,0.7250400496931525,0.7245803572437058,0.6728550738146336,0.6043592389297993,0.5373117489457439,0.46649953179710224,0.3993249687604282,0.3309675571983647,0.2701210191502945,0.20449720787559977,0.1329714082238146,0.060486167399207535,0.0,0.014976253182673316,0.08229524617128003,0.14946517683014993,0.2212905066834021,0.2901689794753486,0.35915821647893553,0.43149361170023237,0.4998314100817982,0.569391163037965,0.6409088093989178,0.7075733414050535,0.7697727313600803,0.799959074567859,0.8008098580338495,0.8126353860738135,0.8312428571663998,0.8663138021342037,0.9112139022413112,0.9451767371041301,0.917187054625295,0.8594910712668452,0.8065786575925228,0.7576523360254427,0.7258202868883551,0.7156372895835074,0.708525292397295,0.7066763177402072,0.7235711590187767,0.7340335173883553,0.7295432203659645,0.7321001680733,0.7304683526047641,0.7190712250092149,0.7176156311354186,0.7258107281715497,0.6927019288538311,0.6270164373790926,0.5599715113824882,0.488397687420285,0.42050030881028777,0.3504314285062937,0.2781120283948365,0.21015788662916912,0.14015455400892884,0.06762167445797862,0.0028725614628785645,0.00278248468760256,0.05860120578164718,0.12665481362860298,0.19909038589564365,0.26978723352684264,0.337221411927051,0.40937969270935115,0.4813447575046528,0.5485476816813694,0.6181865561528993,0.6762668578305303,0.7366967399315857,0.7822977886986106,0.790521857034382,0.7966561335764913,0.8125594205413974,0.8417564196255246,0.8845176417519308,0.9297229040433023,0.9300517917961703,0.8782059408983601,0.8214302971660649,0.7720563022034642,0.7334288540017103,0.7202861738111018,0.7191701601002557,0.7266190524436277,0.7315891882833031,0.7304074642308199,0.7257448366654576,0.7305499439132562,0.7281543874350046,0.7233573575053643,0.741380554848703,0.7269290440289232,0.6662248599438257,0.5955549608690919,0.5275526278707994,0.45766587000162673,0.3880227857561144,0.31979214723835125,0.24780103455760505,0.18031203404168672,0.10969439004385595,0.038433014918708874,0.003724100570659028,0.0504810432319337,0.12160539713095098,0.1890266194669994,0.25973611980518463,0.3303876940398395,0.39584573428805414,0.45700297668781953,0.5244171372250861,0.5927644808171203,0.6637025096064381,0.7299293342399557,0.7895300715514092,0.8144551106441477,0.819928233269933,0.8380180813602399,0.860223413172213,0.8994840535551422,0.9430850882349086,PM
0.6991767938258313,0.7103235719631957,0.6312133178449137,0.6054627686591711,0.547845760915596,0.5407423555036033,0.5695297329458366,0.5296805839026693,0.5018139252605032,0.48238306775621176,0.4544985435007316,0.36506029794216666,0.3471237614450633,0.41318542521170265,0.4906851493873976,0.5367013128887965,0.6052569870446245,0.7077400510315481,0.8104636551002145,0.7793582661866196,0.6123699941338216,0.6651957266030504,0.6995256032913026,0.7797307359229517,0.8097133824294644,0.7265535529194462,0.5409737401667911,0.5697054950387077,0.668948793116849,0.7839717057941264,0.7981690175149296,0.7611398603399042,0.7124380924200882,0.6407312664811649,0.6155348990134613,0.6586592272631453,0.6156132873670739,0.6106037499889538,0.5946317149543461,0.5909168451070581,0.5900348019897361,0.4752907417978651,0.46000677235876175,0.5016507435553752,0.5563670678806698,0.5749142061329842,0.6422805502660776,0.7017126206412918,0.7444690064966775,0.8578093754074523,0.9563166518449133,0.7995493156672939,0.748580424136005,0.7808114762574228,0.8904719123092999,0.9059026393857472,0.8295718001349908,0.6747155164658523,0.6600468838477305,0.7681386054758743,0.830291115912777,0.8924555012807378,0.8397548339658201,0.7624010137377084,0.6950617440177371,0.7195574686317254,0.654929098314776,0.6784974443591221,0.6124125718446862,0.6122809046905804,0.6708147650170098,0.57190299277622,0.5901495772153726,0.539179704180258,0.5301280083485516,0.4734787200227988,0.49211922673888076,0.4924030852690571,0.6035369839320293,0.6489513414467183,0.6981077065917596,0.7417697996439347,0.8330790471256719,1.0,0.9228687677477918,0.8107711471932131,0.7727688663626591,0.7581592819279805,0.884788796959084,0.9065939531182128,0.7863197564559883,0.6456528677341211,0.6777249550790483,0.7270927399652347,0.8059375813189575,0.7729874607875704,0.7520097181480665,0.7252033393727029,0.6463705002599163,0.5676160510631743,0.5346681610244417,0.4973057433085586,0.4603975494555872,0.499695446873055,0.4916265571758007,0.5036191267171564,0.4649317913764772,0.394830289291237,0.3349095594102529,0.30839841590311146,0.355270521525906,0.4160604672560275,0.461147056393715,0.5471285814210951,0.620827908458546,0.7480468541935714,0.8887119098410423,0.7726281755864388,0.7032439408169768,0.6983766322736624,0.7179239153948238,0.7549123303580636,0.6951361536773,0.6081570735066393,0.5181561364099814,0.602171527448057,0.5263324708168167,0.35046515776276976,0.23765218426124157,0.14958077468310904,0.3067052397701353,0.44144873776255444,0.48529450398106455,0.3416349300195378,0.3082486116393497,0.364887784585779,0.4072740416022267,0.47774397835381244,0.3238851366177897,0.24745086580389675,0.2229859314639544,0.14862806614597268,0.0876930572826069,0.034472651538065335,0.0,0.007955695811016739,0.07253724414889717,0.178835285841922,0.1521659069380057,0.1542738618384547,0.18971851439525445,0.20154235876471027,0.1768577785796861,0.18764586848506504,0.27317317558312126,0.28968606789044316,0.35188881558919327,0.4174603329500588,0.48772632860856113,0.5315943623755643,0.5218888768086405,0.37311158632455843,0.32554949968809765,0.3182423477976748,0.4544080595145772,0.5399730820067905,0.5474834096409982,0.4217424843722899,0.41983658064067697,0.4633186137258125,0.4778581426653954,0.5494984409332542,0.48960949950039456,0.374910866102244,0.3109181373874286,0.27599211433143545,0.168357321056801,0.1969650242158405,0.21154006305640927,0.2706591606546578,0.27741689550482995,0.2670019138466859,0.23791694540385322,0.3357873203118924,0.3052122623800848,0.3533831814219237,0.4151851938454012,0.38089561443187137,0.4239847433511308,0.45256014241568643,0.5620114247667551,0.5568630519124458,0.48541042935474366,0.3988291110265596,0.3259682396151842,0.357047082129494,0.5689411694794178,0.6399032301061744,0.5294845192941775,0.4694186839856833,0.3887347525333915,0.3026558833254356,0.4422206799806432,0.5238037495991108,0.4281706078106815,0.3613220980620362,0.34682370704006793,0.2499010624082505,0.20228809904127942,0.20164928285703,0.1848854194058731,0.1608183333490718,0.31358719669565716,0.2850622025445304,0.31167255094076474,0.2864945500435372,0.3741833144819413,0.3885620956754323,0.4042760730860806,0.36154386135889816,0.4180501383010249,0.463703847356971,0.4355399426669795,0.40045859414123086,0.40585629307539683,0.3015967950356284,0.2069355388189571,0.2817004758887407,0.4722657839286164,0.5169917917424431,0.4218686510509464,0.40215719818465523,0.27206566131756027,0.025835872612493205,0.08317145364617673,0.30168401664367117,0.46810784156382645,0.4112980395224817,0.27240257651359734,0.23630446947691297,0.20649669426621742,0.18109641705260415,0.12000280879135872,0.06271857367242895,0.14302554706965864,0.2007782863301859,0.2162467496712086,0.2780476766202078,0.3093974650182325,0.2355991637053929,0.2099659229951083,0.2753065340452441,0.3387542252711686,0.31000578997688244,0.4094968231681406,PM
0.6218642524692561,0.6203650321488419,0.6169779109650366,0.6234795066473056,0.6019469941880282,0.603296241174657,0.6334896974889577,0.7120742302848169,0.8082637208099617,0.9048639453321194,0.9828210920092153,0.9999999999999996,0.9574969907933748,0.89864001436777,0.8367233797899574,0.8129226820286886,0.7742073272236341,0.746137869166525,0.7462130612171003,0.7544402390305307,0.7821253549576963,0.8132575827360968,0.7364756591409578,0.6194783877095889,0.494576151568868,0.3651839936093868,0.3628902644946588,0.4845255995961262,0.5916745993176677,0.6547454136361659,0.6803933671917783,0.6565735784451792,0.6047721330351106,0.5278799676147381,0.5164365956399029,0.5598180947831772,0.6030896825098315,0.6242428505469224,0.6243463104949836,0.6196359354088683,0.6354481094630144,0.6375547647167408,0.6319799722298884,0.630805282121659,0.6399184370671627,0.6386054113530353,0.6271394652185416,0.6284844450707414,0.6067450036662976,0.611513424425171,0.5777554486104437,0.5907901731675183,0.5976812386688719,0.621197037800088,0.7090946314781261,0.8087456765301839,0.9113289590158629,0.9723975465704568,0.9916144314466098,0.942983412855138,0.8716702556875005,0.8111181322340708,0.7701462170536173,0.7454920003477619,0.7465134217471201,0.725227539200783,0.6935769058343308,0.719475922153535,0.76511425116052,0.8087882808264868,0.7211563716381559,0.5903790710801924,0.4602101884628902,0.3242807987653835,0.2845319937434989,0.3893910595889576,0.5083564945500085,0.5830249424537315,0.6330108623320583,0.6410622787994145,0.5875320035843603,0.5207383950727986,0.46814890179071966,0.5091020411454479,0.558148395012886,0.6125537073498242,0.6110417793928042,0.6317482091746687,0.6206162582209704,0.616725711240723,0.6240278613972761,0.626398143738887,0.6360620644961985,0.6421305869132352,0.633602224284854,0.6402873731627321,0.6297949659600812,0.613046721419046,0.6128717399042904,0.6153336805284235,0.6210953759309432,0.682758120825159,0.770535871995591,0.8645428864061313,0.9491394736222962,0.9947068257233069,0.9725112120238388,0.9095469340000402,0.845096876144944,0.7993520502504383,0.7645348802779974,0.7463200143368334,0.7709577344561276,0.7520196096038791,0.772162476072479,0.8074379045881828,0.7876925573844602,0.6739574611652954,0.5486660798753187,0.42667457365559347,0.3163855492097194,0.23647281897519346,0.1370136707371934,0.031350419651053674,0.003006788268223204,0.05661547786561805,0.19121597296297388,0.331444421767114,0.42228703803298284,0.5165631366760248,0.6431094717891224,0.6809469102081129,0.6463531695910216,0.6219736111573195,0.6191391916692917,0.6389910680994415,0.6360962027693451,0.6883585439375608,0.7224559614896866,0.7726730231888728,0.8442428687180499,0.8923331960501639,0.8489430190621472,0.7493026990305034,0.6526845458354922,0.58031150881768,0.52775836084114,0.5086207991306426,0.5075573412615895,0.5028101153201741,0.4989509173588984,0.5316186670647265,0.5333640084926587,0.5442086494593048,0.5383852853655897,0.5336578622540449,0.5156986321290509,0.5257152932965781,0.5172168456576451,0.5154802401412475,0.5293433315534006,0.5252998920644303,0.5024898030578311,0.4399988609534957,0.4374682584405587,0.39373527006264286,0.3584652237661903,0.41257271049538247,0.49245623065458766,0.545050934187508,0.5245900523189508,0.4784203537149869,0.36223383164005396,0.23497310524402382,0.11215514005976424,0.006318210126516899,0.019482135680727986,0.12515464426925815,0.2427388664895207,0.37315082337046235,0.5158855176395964,0.6294432079586834,0.6167769181732825,0.6170822287848878,0.6178971949685401,0.6084261715567085,0.6002575709248834,0.6490827701982416,0.6958492570276684,0.735214123571637,0.793649227140365,0.8641074827771531,0.8844375043145933,0.8139385768598877,0.7203016640892899,0.6103410795269979,0.5281121728947773,0.48547326213148967,0.4876150705330242,0.4789907557773958,0.4917074009219551,0.5073812926253853,0.5112061664521867,0.5239533257833715,0.5437190148793318,0.5392767688007671,0.5482632156263776,0.5491355392013828,0.518400991428607,0.5326385253985961,0.5128219493776349,0.49835058836277346,0.519293503163544,0.5274207598499641,0.5022466285634772,0.4580654202291341,0.4086698884644431,0.3442397785713345,0.38592350050479407,0.46001685589791075,0.5239251974127401,0.5814341022030791,0.5666801452538244,0.49702733518002384,0.3709845766889681,0.23189375069432172,0.10631432519173689,0.0,0.023333893223557833,0.13626891923004436,0.2591446938243265,0.3877094666657488,0.5143588766382368,0.636462885448644,0.6531150222655011,0.6314326730641708,0.633590086915266,0.6291926677380069,0.658197144559868,0.6735856952144768,0.7310831483562388,0.7838398548633516,0.8424705487818422,0.8999589800603673,0.8518479709423197,0.7587974918226053,0.6706394826115178,0.5637427232060466,0.5083522234886835,0.5175152407936658,0.5104946401808395,0.49569896088461807,0.5084728866601989,0.5336101342424904,0.5151947865408459,PM
0.8995175054581082,0.8800003774881371,0.9104080059289461,0.940429646321912,0.9713878813862284,0.9825224124857992,1.0,0.9918547176352779,0.9516467235102977,0.8714121393461425,0.7665377554142356,0.6536102070852996,0.542520041195306,0.5053119799195769,0.6028365135750149,0.7217186743539892,0.8305387578882217,0.9339389372269116,0.9893382853652564,0.9872094115816794,0.9301053401618846,0.8603707684384125,0.8697313718974877,0.9074692000678173,0.9411678363770388,0.9721496006381392,0.9717320417280644,0.9574027069245261,0.95076695830587,0.9390005935290087,0.9214788040552313,0.8837189512837758,0.8715267626954435,0.9116221284093879,0.9416968666969328,0.9717743071240847,0.9773722140922945,0.9914985593782699,0.9982537579367117,0.9748598889022637,0.9233634332602567,0.8467465992793697,0.7427922959648665,0.6213907717509124,0.5419228482974803,0.6188214654793862,0.7317828930855859,0.8409350018523485,0.9294916659492101,0.9754911316984898,0.9813545491492226,0.9419597983504842,0.864176687177149,0.864728740168704,0.9074352422011276,0.9321857548277901,0.9670869418048591,0.9667323367635108,0.9500707522427998,0.9575335270453595,0.9467895651488081,0.9136963808664547,0.9003294321821929,0.8774575959943802,0.9137579911924485,0.9559454114139814,0.9717085619907171,0.9930137165551671,0.9849207414457086,0.9880597917098068,0.9827083253571454,0.9128030624637593,0.8236616333228781,0.7175918748951431,0.6255350580972352,0.523084506002117,0.4899850315111167,0.5935940271727214,0.7097748526295793,0.8328997870397701,0.9374088724190055,0.9905908303807562,0.9822367782494679,0.954716798366011,0.8824333482530187,0.8687813204889681,0.904366802597151,0.9477197380759961,0.9666152838148814,0.9616528710032153,0.9667913094002802,0.9726287481216693,0.954298811277897,0.9236833489535319,0.8828605437794974,0.8944022840948116,0.9173796553151288,0.9197061688293222,0.9343202795960548,0.9470048280551739,0.9586614284336585,0.9314458787840758,0.8698596068409556,0.7718690728127546,0.6604270489051047,0.5463646949458427,0.47716150028124016,0.5561830719174607,0.6693640451284577,0.7822876794862434,0.8897795402293824,0.9550957502990207,0.9511693527459428,0.9120630476764888,0.847227705482362,0.856402172662635,0.8623497404487761,0.8056093078621975,0.7700821351721063,0.7769321378340601,0.8559205246348776,0.8781124465599541,0.8248125999516551,0.7166677812710978,0.6023955306965809,0.5050381672310991,0.40357777849553367,0.2820487768132587,0.1645185327064076,0.047461451520085074,0.0,0.08344850926266423,0.2064185789595938,0.3227579009687567,0.4486664820767641,0.5721204649580622,0.685279816480326,0.7859210050970007,0.8609878993986273,0.8869875398907139,0.8673405049915144,0.8628855813418701,0.8457653878712557,0.8376728475587583,0.8058136440215895,0.7972675315973619,0.8439588801010278,0.8849028326066435,0.9018173374614324,0.886327561495027,0.8841513979621904,0.8825233028297297,0.8723111239188319,0.8272944390995871,0.784781875351551,0.7709192284167723,0.8338321064384315,0.9053053215512459,0.912931992019101,0.8264560999044157,0.7137496862683195,0.6004855965217666,0.4826740280138462,0.3668062460369783,0.24032305758458605,0.12189872069128471,0.09198587027558558,0.185641451759178,0.31052788092950223,0.4264046501208121,0.544293301126467,0.6554621160113263,0.7668066136936997,0.8664215192322278,0.9232192368008323,0.9235584190729962,0.9243082174853745,0.9081977133233519,0.8853747938330727,0.8399175866472275,0.8095626704762031,0.8297315087507382,0.8556289769895669,0.8864335496695288,0.8893282207527524,0.8779246706566215,0.8879799868566773,0.872716099612314,0.8366504326609734,0.7831300173890843,0.7732422523573206,0.8465292131171775,0.8923997103709995,0.8724925197272526,0.7741351644237535,0.6621372446152343,0.5460519169586835,0.4300705741644517,0.3332877728548014,0.21682961986851268,0.10394482799142146,0.022921461273414767,0.0753192599565371,0.19779539735962448,0.3106605524852588,0.41109432251553146,0.5207321214267036,0.634904094411298,0.7447829449685965,0.8411853230260768,0.9043029089223715,0.9157755990353245,0.9103431693433421,0.8970622793564274,0.8720050403276152,0.8404075764684675,0.7987272228901374,0.7946129158590289,0.8335032380844551,0.874044938139916,0.8850651434286494,0.8941038646567137,0.8992608244927642,0.884843619337675,0.8656397585565427,0.8251852215367821,0.7812348220589436,0.7684311768131789,0.8313005448953783,0.9022288391192985,0.9140135314198048,0.8330867552378431,0.720743887147707,0.5933997501250139,0.47257528990042896,0.354251277406918,0.23857894607619157,0.12616481557806658,0.06580587434393115,0.11743534041200965,0.23045339010768684,0.35380314917648326,0.47396101708142346,0.5891372525789307,0.6985380518771356,0.8153942631160915,0.9022978494300222,0.9291114486169327,0.9280322458377799,0.9144058621239153,0.8879337169434907,0.8651653618540647,0.8355833383777229,0.8139739846219434,0.8245576079397221,PM
0.7574941327540063,0.721400688986165,0.6780937057285952,0.6989076765636311,0.756517032136649,0.8324047645206192,0.9182227326124748,0.951838538945422,0.9200233516525618,0.8641889689050233,0.8176531404047909,0.8078008075639218,0.8135461285145267,0.8027608885545372,0.7578102743187594,0.6625017832176661,0.5441321576629083,0.44821030279926477,0.517450369333528,0.649071965208194,0.7740019826974103,0.8855265257587059,0.9036349026588892,0.8129470305310433,0.7539194554739912,0.7736247797045053,0.7812449032884587,0.7407245223200691,0.6638618125654849,0.6756893648623334,0.7320289315349835,0.7261543171673983,0.7092256376115937,0.7053372948040213,0.7302948210783224,0.8050911614815495,0.8928957298876115,0.9343860096064982,0.8927113830204929,0.8141246245831897,0.7480640322439407,0.7252056285506581,0.7336021542714755,0.7539858707680165,0.7264896461481944,0.6432763028617865,0.5349956196612267,0.41555260778364245,0.38122026356028815,0.491000106040985,0.6207206592082639,0.7438166239024313,0.8381561656798477,0.8016744705756733,0.7156157444656683,0.6865072389574993,0.6832216292018529,0.6519823874498343,0.5931825058933571,0.6264315029037246,0.6961871522327354,0.7168246040520039,0.6900794804688202,0.6675113796018284,0.6911339336781976,0.7625969170535867,0.8573798098624326,0.9445830833392312,0.9900596896321554,0.9593511567086837,0.9042042917660744,0.8744044221738134,0.8584241785571209,0.8282056332814389,0.8026845237082632,0.7539590559424942,0.6444333935691979,0.5213202046926528,0.39983342813165734,0.39837283868227846,0.5152440825979077,0.649969829945328,0.7755598311521816,0.9005198577588387,0.9599721702894195,0.8817614207842652,0.7936132606155843,0.7539054926421618,0.7503405257560436,0.7386364183307128,0.6868901868407078,0.6546007586321871,0.7273034372866354,0.7894113125931113,0.7864484750780765,0.7477343148593718,0.7079356791038491,0.7227265010475445,0.7709905677622961,0.8578968765249537,0.9423580997629384,1.0,0.9772228194805699,0.9134884232528901,0.8467329115196116,0.8057345905742102,0.8183508676459601,0.8394797187538665,0.8300113115588927,0.7611150157921518,0.6490122722169396,0.5270674264123847,0.4200593842193081,0.46779661736116385,0.5972229135328573,0.7267258471701448,0.8647104512329586,0.9590999662839987,0.9216764986048527,0.8287157603039828,0.7749616485238646,0.7491665196367912,0.7202430785408613,0.6815725518983613,0.6963511221864511,0.7269495970007975,0.7651832107505312,0.6972011440540578,0.5713186196749662,0.4395763405654054,0.303990198340228,0.18641212552206543,0.09724078643741185,0.1269875012767514,0.24237380871708458,0.35977627220283814,0.4680942139603723,0.5759701430675865,0.695538454509661,0.7715098524250075,0.7697701008932261,0.7477841032443235,0.7447300498818703,0.7589286135217534,0.82059987057053,0.8857714319194891,0.9239005460403051,0.8622222646024746,0.7782773814554349,0.702589654607348,0.6532101185707955,0.6427311948669847,0.6811886390110273,0.7224129220851383,0.6983428277862611,0.6252496983295361,0.558677219281722,0.583469917105746,0.6602894501845942,0.6828928814765995,0.6944578267751971,0.7168103507869334,0.7426582555272865,0.6505605288239287,0.5193117453513527,0.3791229505472766,0.23898838683342039,0.10828721077007586,0.0,0.01987080766448157,0.13353667652206358,0.25768944898562385,0.3805879528958447,0.5036436431067552,0.6284348909483839,0.7250971149653984,0.7578503897067073,0.7881509070836135,0.8111942531128036,0.8334017936894074,0.8700675064835925,0.9138530300809897,0.8586912437431717,0.7704794637986687,0.68269256878756,0.6213834505024165,0.6051346745261457,0.6229961901479357,0.6462374833415221,0.6204628464219657,0.5483687633045866,0.5083006033922408,0.5580674085536632,0.622237173264212,0.6236128911802372,0.6224974377768264,0.6556962383035572,0.6191323576629899,0.4863815329181671,0.3608022500401571,0.22387399345525338,0.09794524371480451,0.009302563220578985,0.060880399230689,0.17592380225903526,0.2963461202048836,0.4216378075660807,0.5423315724039006,0.6495020901199569,0.675847160162304,0.6625932833957884,0.6619499905756596,0.691521249014174,0.7560097402116246,0.8375283982963477,0.8442712922328801,0.7672273711892896,0.6890739543222222,0.6390167656407564,0.6396951866942824,0.6474980355970006,0.6604249110469267,0.6643456230579186,0.6043679096399779,0.5713941983750952,0.6324465400996764,0.7064796383678016,0.7206114951546292,0.7028249195417509,0.6824261070721329,0.703278197056938,0.6469040650063054,0.5242466995626183,0.39066864383920974,0.2651785942174376,0.154633449746298,0.17135920200011556,0.2747669539355897,0.37427805260188984,0.4922575717942359,0.6181633618712961,0.7128305335947029,0.7495303239113591,0.7443191310388886,0.7454719572924247,0.7820508713134346,0.8387052532657067,0.8826534687937229,0.8422170491905714,0.7573418450710041,0.6840374201676482,0.6331304554856674,0.6089558275293889,0.6379567544152507,0.6807697177951679,PM
0.3676776949695011,0.38856406591181525,0.4055839325581534,0.465194530876162,0.4748062173086183,0.380374195841787,0.32421274827150093,0.4434639941998073,0.577407928552887,0.7191770351491327,0.8491686047127729,0.9149188212486647,0.8508410125397541,0.7325101015046851,0.610120491919484,0.5074987182190709,0.45272442415827463,0.4418267813560073,0.41094158472583153,0.35560186528139415,0.28536869304933,0.2805602652206476,0.3347517799589168,0.38560087977628044,0.39555258938245963,0.40706669091204084,0.4090688989457254,0.39918986712277693,0.41008389301671055,0.3957550604616049,0.3995242176339904,0.395313152056489,0.40394536491410804,0.39119973652356244,0.3908513003900769,0.3907909560428564,0.38297126885008925,0.38245410598143703,0.3811913851901503,0.37313301446833247,0.3305222148518281,0.32124257945623214,0.3146599497387568,0.33431511044831375,0.34439463464043385,0.34698947640416566,0.3641933561599915,0.4125698653519123,0.4279053538466657,0.3554606373171314,0.387751806764129,0.5266685010812724,0.6594338202022891,0.7918794930970599,0.8881172603401382,0.8506637238315804,0.7359925060211383,0.6115151956007683,0.4978547015236696,0.41997517545270835,0.4150971547276141,0.40581552064042814,0.37695062064339524,0.3094679047744755,0.26043254724377807,0.29780139966961716,0.33636938410802575,0.3553306527861837,0.349517270242238,0.3314563983057939,0.31043068928073136,0.30569166993228336,0.28481110388144515,0.29035917023099866,0.29894381173345685,0.3093966503648877,0.3326141663836717,0.3343676379024423,0.3109812674658041,0.27882136934020796,0.27664059776548644,0.28072055181898303,0.26219565323600413,0.2543948571915946,0.2537067002970108,0.24400379453369148,0.2748605458356863,0.34232408791725444,0.3860113369165665,0.40155685680586206,0.450661546938675,0.4465846333637522,0.362860771228406,0.4048235305102601,0.5325334672285242,0.6799172521650574,0.8152071261099394,0.9441645866884834,1.0,0.927392786498002,0.8059440448172719,0.6887392918854847,0.6013712846709423,0.5162659704680133,0.4730576651073992,0.44475793576319056,0.401223883503361,0.34485015389226703,0.26211518825657976,0.2494898909542913,0.33106030297872113,0.40269933768750565,0.4452039920530062,0.4680546510473924,0.48798451876367466,0.4792064752200309,0.46314263606255945,0.476904114627299,0.48852690665665666,0.4732656884591764,0.4728744527226887,0.48300481450657173,0.488951156386805,0.4940937380564243,0.4749713942979339,0.48826514732980897,0.4780370140951442,0.434064322788287,0.39279196712517805,0.4063397496008605,0.407230821754589,0.40719540582949687,0.3998758483132967,0.3812394862262325,0.39177673630378695,0.3884458647511382,0.4044961029203922,0.39201850875210376,0.3834698381224788,0.4035483282671182,0.3879393778640976,0.36451282823946407,0.35696311143417514,0.28918544511457345,0.2125997890854352,0.14492192090769151,0.15419828282068693,0.2186572025460949,0.30221210145797706,0.3482170914979976,0.37816368511369447,0.4079724469801702,0.47249999642947316,0.5654830390390435,0.674803163607697,0.6533990391669198,0.5076438743949829,0.37121641102580405,0.24017569547866646,0.11452524427812083,0.042900426010652914,0.11016734703134468,0.23326018944284233,0.33929761010704595,0.3333867483152817,0.3037007529179565,0.27437656760132967,0.20471078191619885,0.15285485791033082,0.15353724151955372,0.17080274431031306,0.18070909634702392,0.17359967453334324,0.18805255946405453,0.19948429383234423,0.1905150335844379,0.21354839449046192,0.23048558333851776,0.24265055647976563,0.23941651842733158,0.21862923995514816,0.21604781826332164,0.20689925350097038,0.20824641615782014,0.21617878685320768,0.2266480692523798,0.25572789342148816,0.26773351959649005,0.2397434206466471,0.19758986802402045,0.16892259977020263,0.19735445355305092,0.2689652000571261,0.32144858599976445,0.3253853199467063,0.3362096165251236,0.3991415088206365,0.49487565052619154,0.6166470415387373,0.6555898861607234,0.5255274593335351,0.37408888822960584,0.23266798146459955,0.10036073402093404,0.0,0.016343281016225397,0.1268157920744173,0.2522219960636596,0.3268772172571959,0.29106910093711225,0.2691949289904514,0.24793078262642432,0.24344774589292228,0.24342383415033453,0.23918427070553872,0.24889889796036968,0.28612439551725366,0.30399723809904877,0.2988515091998192,0.29932177913609426,0.3187548667316378,0.32529902399309396,0.3219854848682919,0.3010337143290345,0.30039754802131835,0.32113745166609853,0.32532533285712084,0.3253332149320318,0.3253326787951467,0.32381446303670813,0.2907682781145766,0.24767674143720075,0.2013053765237327,0.17849869091524173,0.21726774599494814,0.2949149129211417,0.34459182325657967,0.35275907478704305,0.37031596796144495,0.4413419032424155,0.5379568257432341,0.6380141458345232,0.5723522839304591,0.4224930192936789,0.2747381098979753,0.14534825404780705,0.03523107606029363,0.029076983821397562,0.135426333042866,0.2352570745526057,0.33298135744265434,0.33733055084260144,0.31124045055270155,0.3083138148803952,0.28011457903522885,PM
0.5841808299172788,0.5820746427902699,0.5921892009763132,0.6065494142822536,0.6117380932329528,0.6456794919301005,0.656641229071897,0.5913015471502665,0.5541950719987625,0.6388125320071607,0.7489007396944487,0.8544927462670895,0.9513836858184268,0.981184154483234,0.9070050798568428,0.8115503512107272,0.7306613933908888,0.6670991932089088,0.6419167415741303,0.6376900674195598,0.6243030886211778,0.5784270480381606,0.5300141174484727,0.5387626957838081,0.5815301332263823,0.6064856505449918,0.6184853284595464,0.6204872161947459,0.6185032655618805,0.6155534944310084,0.62537288402855,0.628996917971246,0.6412565134266761,0.6407737457632026,0.6166806557806623,0.5870247309888383,0.5508592342487675,0.5098384172260002,0.5097653568396785,0.5458191496281621,0.5716711671210368,0.585384646995982,0.5945724929315692,0.6142959540852129,0.6383739153224344,0.6835171553598469,0.6656070340810567,0.5984673667147664,0.6427841398065062,0.7539441912141704,0.8581964807053444,0.9550289019403517,0.9834641255654502,0.9169587276537898,0.8136899274502891,0.7232963010549391,0.6651636464253854,0.6467168421749605,0.6301586531092109,0.6130958559609319,0.5592480685630292,0.5244747475470191,0.5453163784951403,0.5777241081581339,0.5856517562278856,0.5856976135764,0.5815059193348429,0.5771968485436001,0.5829381076183204,0.5720886975263912,0.5857770844090981,0.601825887301966,0.5977185958717466,0.577873186439851,0.5537893534547673,0.5206952001969674,0.4810232926044056,0.44929847872147954,0.45520768250763455,0.47759931451849225,0.5009036657411623,0.5183818586902205,0.5301947170241084,0.570721047957377,0.6152187910395184,0.6035345114562829,0.5367717985995237,0.599592608940795,0.7127090105448932,0.8181427845865716,0.9263327224366389,1.0,0.9852180006184117,0.9021176261298933,0.8033023719239201,0.719580811425673,0.674551890474961,0.6686531942167169,0.6518553969551748,0.6289938151434171,0.575753913545356,0.5823727755324537,0.6276808858637204,0.6587771950748267,0.6698203285991591,0.6604801769762707,0.6691797628277714,0.6483192599429706,0.6255480154376132,0.6079767899813207,0.5924677268747831,0.5794302087789256,0.5564919200734546,0.5317675268883222,0.49648038260148164,0.4648636842279932,0.42751030272527313,0.4280580839523651,0.41552577557653203,0.42853294150300636,0.44835120800636874,0.48679064985561604,0.5018584335503187,0.43232635804551833,0.3465443290386401,0.23101853936951633,0.11120643521120499,0.015785184606247782,0.0,0.04527466009089842,0.1578631071866119,0.27760636667948857,0.363497146065924,0.354591733407815,0.3412888050321108,0.34180564038661254,0.35835310766841255,0.38489448460267406,0.42535720654803644,0.4655661414784231,0.4804079623117219,0.5035405200394671,0.517067915100661,0.5336324489360007,0.5494486351533774,0.5677490167572801,0.5951827442134183,0.598591199235381,0.5980304986739786,0.5725310486802968,0.5200010347678683,0.4864735732384906,0.49585926722252793,0.5450188268453942,0.5936403690612133,0.598589889147596,0.6001693971447293,0.6344837006522539,0.6972976864519875,0.7819308902869389,0.7848983859655649,0.6792556374639322,0.575203165499325,0.46411952796166833,0.3666837974907411,0.3364536391900743,0.40675219554002284,0.49603204985543803,0.5031236760496731,0.46163642905309343,0.44045222704470843,0.42689174265655616,0.4089863802757221,0.3848926479831678,0.38397153081109714,0.39484280266669325,0.4313190096526469,0.47227690232807484,0.5078099637538247,0.5265667599573196,0.5145420316778844,0.5108523238811538,0.49799062283816253,0.5004335192855063,0.49330562662246447,0.5015930976567895,0.5108761215565978,0.5126945101096365,0.5122310299705681,0.4854657906940578,0.449178704463689,0.4366940920070017,0.47305056683760505,0.5350722021060657,0.5649076888507292,0.5654183624079279,0.577781783960456,0.6146738447668909,0.6872636567001282,0.7682255917735215,0.755812695646644,0.6576036614500356,0.5451236514877915,0.44447375278730883,0.35537996751989276,0.34626186408711357,0.4339120891345747,0.5328125636990375,0.5798548580605329,0.5547225895375845,0.5343482488750824,0.5154866821321633,0.5014540202698314,0.4895168778143888,0.46220183411025806,0.42281376659067815,0.42058471147524923,0.45977314443137995,0.4920810981262491,0.528791452233111,0.5537742725715313,0.5556454376899191,0.5556153195388349,0.5505775922649585,0.5500952674985524,0.5393277560437753,0.5449691362671785,0.5358943473239024,0.5176761422191096,0.4791854001332809,0.45114964164646487,0.4621674546320107,0.5095741598144614,0.5532729865913542,0.5717183937861865,0.5819550496188972,0.616037169458663,0.6826436222037304,0.7582294011293311,0.7984909559319773,0.7145787629302673,0.6026957186372486,0.4826781420596693,0.3657111306415781,0.2783749756848106,0.28325900653977376,0.36813221802609597,0.4696703092840129,0.5509666468851604,0.5465430793591306,0.5309928594959485,0.5202931890413365,0.5194489642840927,0.49483753270238884,0.5093613184035335,PM
0.8348464166520753,0.8350259624196656,0.8484147075373274,0.8501831555152792,0.8521937355229969,0.8505441231951414,0.8520601175589313,0.8811852488083192,0.9137115523473449,0.9404173307376746,1.0,0.9946150539733036,0.9465310214209612,0.8952469454810554,0.8379948366314789,0.8444813511226572,0.854642303537533,0.8859771717851634,0.8700499680237197,0.8645311399382418,0.8674396069289259,0.8858682147956358,0.835223591565577,0.724345475313803,0.5910736734336455,0.5964111100782663,0.733980788289549,0.833496899862495,0.8472291415989384,0.824832728151982,0.7347242468078461,0.6981935126122902,0.7382957489444069,0.7865740802921541,0.8161513454687439,0.8108663510528089,0.8165746722757641,0.8137523399860731,0.8503031606011788,0.8372191480796385,0.8100903448201677,0.8187553541950585,0.8316872860788402,0.8656905801718908,0.8988956351664568,0.9482102635059597,0.9134984245161579,0.8577020601634722,0.8288031687189328,0.8069425517302484,0.8376151949567827,0.8641751223049345,0.8401937624388429,0.8333189686761555,0.8533168176700316,0.8550525669190554,0.7945795857326541,0.6708207535495747,0.5294856199032916,0.5396416693006696,0.6711713507238324,0.7686604211557535,0.8024046441523573,0.7786252255992183,0.6857783882830182,0.6909401894282761,0.7544900572127222,0.7880761315663145,0.8108011072424937,0.8232786371356555,0.8319829868556576,0.8241967527712566,0.8462571638386418,0.8502319426643261,0.835494112014616,0.8450659750074001,0.8674802503211652,0.8982251468164018,0.9378192725806809,0.9446236268388946,0.9196045103801262,0.8783159321135638,0.8491576767586189,0.8428275173743884,0.8521628857501051,0.8272357660301415,0.8300594170324933,0.8352083688096483,0.8483872562095094,0.789223634736059,0.6705076539814119,0.5334582775780445,0.5312342954199005,0.667298336426386,0.7648582319056221,0.823388526684691,0.8017195975885203,0.7191625459680493,0.7265782990404297,0.7972710762889337,0.8349527137569668,0.8518254439020474,0.8506621530638556,0.8598839162253009,0.8663296363111428,0.8811875275832568,0.8874799988413189,0.8609736656330824,0.8827823554589793,0.9181375472914732,0.9374254163714184,0.9883936178194137,0.9740321290753009,0.9307887673447572,0.8809931239739486,0.8505143493567964,0.8207043298892227,0.8560201493417159,0.8534850692589941,0.799674940499389,0.7137345411341087,0.7053499167274726,0.6970786479473174,0.7098695935003141,0.7501172392205708,0.8077803280236564,0.842857956234119,0.8668239219600311,0.837591480305103,0.761476191003247,0.7501465392863791,0.7361413007018838,0.7363301061729155,0.7442436695960737,0.7224595283956674,0.7121408864731684,0.6871365758505652,0.7248039621287541,0.7236319152338835,0.6850801996312077,0.6146374952958897,0.563067191737737,0.6040784685702008,0.6702305656087733,0.6697185813183388,0.588023770644547,0.4398651581339532,0.2901938779608795,0.14207518221958804,0.02974938713012243,0.07661550643652948,0.21912521193519652,0.37322390400222094,0.5356651063687901,0.6770987907935355,0.7016835379464563,0.7039396971659633,0.6979894319146114,0.7054481585473154,0.6869205030635213,0.7186759716412316,0.6888643991592103,0.7028308414182289,0.7527054996117579,0.7806253820208218,0.8081692757325518,0.7542172532967246,0.736418220129404,0.7090472792777041,0.7271267417354546,0.7126531346890941,0.6875749361897299,0.720219095899842,0.7077175570803487,0.6823230546854715,0.7023040197465775,0.6950433694210796,0.6615065819048409,0.6273515576687609,0.5694090080012435,0.5202434027744776,0.5714302751125917,0.6662260326323715,0.6564780293464096,0.5574647316913817,0.4034603374116754,0.25250993652979314,0.09867967831406599,0.02247512159661813,0.1112755570917594,0.25993470814249164,0.4156658094518937,0.5650811598990195,0.6876629297105046,0.6807196860083611,0.7072605015557238,0.6993463493609564,0.7073149562734526,0.7048254314456752,0.6909410480924834,0.6778070125118951,0.7136689647687042,0.7727413584747547,0.8194995281063555,0.8053408645838127,0.7426816860583711,0.7051457874724214,0.698127284186083,0.6754889464087608,0.6667723887062706,0.678717231943323,0.6787024131275272,0.6493637534657806,0.6833822066989628,0.6574532880282131,0.6673812740434881,0.6532041236421975,0.6345355759087363,0.556369377792227,0.5211289626305806,0.5778462041579644,0.6664026017436289,0.7295765315589673,0.676467011607464,0.5484311608998196,0.40255675005718583,0.2356313795474012,0.06842642194507143,0.0,0.09107134769585468,0.23933728996452075,0.40450373239356274,0.553725653230595,0.6905072244139321,0.7362071268798704,0.7123382482200107,0.7304346590464537,0.7301772593759752,0.7223605730083484,0.7120655485418164,0.7068661071542577,0.7396648543497806,0.8001293951996953,0.8402633082802771,0.869769152023876,0.8275662761403719,0.7756455815100569,0.7316813605996133,0.723865240588002,0.7183542183734035,0.7280840410210034,0.7262768476627608,0.6903858549746325,0.7010588857075861,0.6996346531098672,PM
0.8562312373774068,0.7454290319521597,0.6676085742451816,0.7326814475640866,0.81029730980097,0.8491173640052452,0.8521204152395558,0.8535490860966339,0.8883831124306409,0.9016546321080474,0.8892154729227091,0.8520618625785739,0.8298713299146501,0.79656694375109,0.8015782301660508,0.8167891184613891,0.8306681850448019,0.8585435464440438,0.8990660187965798,0.947363417557602,0.9504855608731182,0.9603057120746206,0.9582870789072091,0.9281635610269143,0.8469434974849319,0.7867855857746688,0.841713866189191,0.896168350747959,0.8732826867568155,0.7679835119509972,0.6747580520540151,0.695459501128985,0.7874204258915638,0.8395497917173964,0.8625481965169417,0.8576345461900914,0.870704282183409,0.8740849217330178,0.8523420311573862,0.8553511471973616,0.8489500521015225,0.8479313941408728,0.81842832550306,0.820713363890353,0.8253202229608698,0.8441410215004383,0.8734337489404549,0.894383383558381,0.9038877087885693,0.910771594634272,0.9505789277069239,0.9567904867164962,1.0,0.9666534374474454,0.8391154224851869,0.6980919010633908,0.6862247445982614,0.7866203513466017,0.8351304637746768,0.8217420147297281,0.7425960730241385,0.6562188616734748,0.6406931510760874,0.7229076768995855,0.7785133740797496,0.8166311055235909,0.8223058004532584,0.814620456735077,0.8188170118818681,0.821420250375291,0.7847201303964972,0.7447173168476136,0.7040826414222705,0.6734181417420224,0.6880332696747935,0.696934904529189,0.7335675005739111,0.8085162430443775,0.8679815434304761,0.8756829104684334,0.9136449597757705,0.9271787116475139,0.938782239235799,0.9147839870386694,0.7977164667319769,0.6849041252191643,0.717239367124197,0.8118939173587822,0.8466322866662512,0.7876701383463462,0.6865660817166903,0.6163893686549322,0.6854440030019875,0.7651090661686855,0.8227747497765812,0.8374317656347037,0.8396185334720485,0.8677945586794502,0.8440745827849687,0.8215632725718685,0.8037196775992577,0.7767680395464236,0.7723434273031486,0.7928885144712483,0.8144035419059197,0.8354442784483824,0.8461257420689918,0.8750568230717342,0.9004925397614842,0.9078674275881822,0.9353138361486302,0.9551844520552653,0.9627320748706705,0.9284725121870672,0.802734918870585,0.7181991648019839,0.7678772554779725,0.8088186333654175,0.8030193005689039,0.735849367840518,0.6463134105480774,0.5898109100819431,0.6478790854930816,0.5860991746902879,0.4951881841228305,0.36775080857748765,0.20942821661070843,0.05282427497520814,0.0,0.10574012168808311,0.2677434671453418,0.40183424687549874,0.4983382526301643,0.6037594582034087,0.6363741245374266,0.5657938116418784,0.4546032704422034,0.42019243071144885,0.5313502705155297,0.6669853668048225,0.7604368045435521,0.7558050114229404,0.7349916310402396,0.7196174987322879,0.6994875483663412,0.7020665389231935,0.6693088588275051,0.6434841215038976,0.6155470236071494,0.6078795144013069,0.6101047600567888,0.6253450475845366,0.6464165261718193,0.6492929993828911,0.646238019073273,0.6311794470955254,0.6338025565896457,0.6408900320888771,0.5962356404697324,0.5215851330106718,0.435055009062733,0.45043371743583904,0.5572052093957565,0.6347591529322063,0.6122822324035422,0.5324559401335742,0.3833043595555612,0.27748158639008835,0.33316396970145323,0.4705853462676215,0.6133598616629801,0.7105950875295992,0.6971078784804607,0.6973918817757259,0.6767022835858443,0.6275578630938057,0.5993029756655446,0.5365567269537665,0.511265000194709,0.4851229625422411,0.4753120446444328,0.48962088880066545,0.5393643323362154,0.55837537906522,0.5865250579676475,0.6257670923922518,0.6219963987762638,0.6169740141792284,0.6323126193887916,0.6087092743544353,0.5482224671763554,0.4582098254673781,0.42679995328523823,0.48105383842338156,0.5974218902383726,0.6609156188044665,0.6325169091380562,0.5426948755872676,0.46890658176335354,0.5180648126812661,0.6533666297188887,0.7543217682283672,0.7468296464802879,0.7276386783198632,0.7152935424592073,0.7013283586364194,0.6849649591974005,0.6605777687239973,0.6395793085989885,0.6217404346078146,0.6044043149871658,0.6402283781440898,0.6508439880694734,0.6729332263850383,0.689631987590972,0.6860962300962825,0.6727172679642814,0.6798027159883819,0.6717750352506116,0.6060663544262104,0.5162528149888068,0.4415499292197662,0.5008378768951207,0.6090117239723094,0.6836241646052006,0.6699263172942249,0.5886611223322138,0.4539881351104249,0.38029094531246965,0.47384781804824616,0.6183661687158919,0.7405584707892814,0.773571466137601,0.7603569763440712,0.7330992833415184,0.7164822466053451,0.6794349847164778,0.659392576404497,0.6247028212321757,0.6391252894279988,0.6278626337561981,0.6081743087453564,0.6212258885640551,0.640425115507739,0.689349389071066,0.7045896727548788,0.6965166689076607,0.6896216787014158,0.6890186655969712,0.6685099005909976,0.6026237633210378,0.5205445310203141,0.445569914667149,0.5095299471928918,0.5977285492599247,PM
0.8958770322464902,0.9192174869867606,0.9334698576727625,0.955841348448611,0.9710389546468543,0.9750075284479489,0.9535895008651141,0.9205575002249649,0.8877642085170991,0.9011462209766925,0.9378960943983701,0.9634012511705519,0.9818653954352266,0.9954148765915589,0.9999999999999998,0.9923468775173483,0.9853425983845938,0.9820138119511979,0.93997896788706,0.8567788701873116,0.7564843515444084,0.6648954490567973,0.5651924015359382,0.4819089479679193,0.5252038056195911,0.6261307697313312,0.7206573334757007,0.8161527492135379,0.9077704487649421,0.9742551710122129,0.9528460276477164,0.8895104043740172,0.873624280598982,0.8633872960693421,0.8362697756075448,0.8206098941279911,0.8607906820648952,0.8885268252330627,0.8927378530446923,0.9036694378101771,0.8991573086638136,0.8779450457618079,0.8587428392571368,0.8336097750887215,0.801631681261558,0.8166632807892478,0.8611073463859695,0.8954227712918474,0.9194042966277534,0.9453826988153968,0.9499518426683087,0.959767418135981,0.9728048116785157,0.9834187899215967,0.9511171540530297,0.8822662843464559,0.7978988332955377,0.7091562172409296,0.6140767707059067,0.5189665995142854,0.4189628622126369,0.3917487298991651,0.48225135458557955,0.5800300960175531,0.6729404067665821,0.7742998710951177,0.8670243251502028,0.958339727399274,0.9986040405308663,0.9528034571011774,0.9210351815940812,0.9065534366192967,0.8727545811547339,0.8368093318178846,0.8445325793064968,0.8617508582600488,0.8686039221430824,0.8724419191436084,0.8856786534966059,0.895203268518382,0.8882596737840951,0.8649551468573484,0.8234387251902195,0.78024367271127,0.7929364727002863,0.8389628003167056,0.8786037277659269,0.9037524393233414,0.9240624178293462,0.939693434502108,0.9575828960140653,0.9702193733259257,0.9984094393241307,0.9926569549510151,0.9238309011888133,0.8296479014702725,0.7359740630725258,0.6339731613056288,0.5483343457846044,0.5880935232457933,0.6885248535960831,0.781130215695655,0.8787122683866466,0.9656479429477771,0.9953329972910578,0.9510134189896162,0.9303011054997807,0.9079087944681123,0.8774885102343737,0.8599138332805796,0.8897312714663832,0.9200989912259938,0.9341818275695475,0.9298930395676586,0.9381362164956706,0.9349055282476477,0.9227925134776214,0.8903612226860094,0.8510913734816901,0.8592795494539456,0.882264041160832,0.8834010594369366,0.881585940398246,0.8837135111713452,0.8648512928941654,0.8316722077582208,0.8038831645168096,0.8124732331487932,0.8537638513483319,0.875959096652821,0.8869329397771735,0.8695190294133794,0.778201120979715,0.6826867568515318,0.587743995295609,0.48566967968118013,0.39013349986754364,0.29517156880123085,0.19422648886825455,0.10453758290246973,0.05745654023343616,0.12270744653539234,0.220987056966649,0.31265641326896865,0.4138350646202247,0.5120878257155355,0.6046536360760684,0.7048091789831676,0.7962533157445135,0.8914932200657477,0.9433485338655621,0.9276540879821782,0.9073293727796898,0.8908855173168495,0.8815237517485308,0.8636606974474532,0.8333608532519114,0.7912844513865582,0.7418635349122666,0.70893645656808,0.7328725353571015,0.7820879444814739,0.8250471242466515,0.8430972474900209,0.8419961238534255,0.8274777689556443,0.8262966374956002,0.8167432636679031,0.7928888614620744,0.7654376838483758,0.7933056428106753,0.8313917786113023,0.865180623838673,0.8764168291762495,0.8868275480481442,0.8599165567599758,0.7718298304917413,0.6731854675328248,0.5745331212149598,0.4822704062589682,0.38061772010983974,0.2806026188260726,0.18906726264272367,0.09147063439412895,0.039614314724562893,0.09613458795506258,0.1968761316739649,0.2931334853536671,0.3873956972150221,0.4877698684938456,0.5792083333737208,0.6794968176778895,0.7739302227282903,0.8656766762051553,0.9211924468875827,0.9195555445791423,0.9088596389077821,0.8992884997054762,0.8847086064157883,0.863300836189955,0.8391911492513977,0.7973251507404229,0.752398859219676,0.7487837779477242,0.7820656719511583,0.8101746730548018,0.8288444971108613,0.8465633550435803,0.8523852073699849,0.8492556834701517,0.8465279674303858,0.8213300103778287,0.7803872582678795,0.7758597103653602,0.8114123551822876,0.8262732729001943,0.8384771665107034,0.8454868295300211,0.7797207754396693,0.6910570104151723,0.597309895579561,0.49522409139494106,0.394334233718052,0.3028888600713928,0.2026424885653817,0.10177812872391678,0.016252209236530257,0.0,0.08267988000881266,0.18481493762784762,0.2866663961594009,0.3793456611787873,0.4774221558988876,0.5787106602785002,0.670394457523346,0.7688897856302359,0.8583026977689132,0.9253886760136931,0.9337865495401616,0.9424943835578683,0.9576135860862311,0.9523196527109457,0.9393544654725521,0.9189845719322547,0.8940575637513268,0.8555217095464152,0.8328309713251667,0.8546532162851046,0.8951495748968739,0.9223685611046755,0.9228878835063752,0.9078182719909436,0.8859584923771664,0.8676543755085746,0.8360614104843365,PM
0.9167189433759413,0.9182987850799478,0.9032030694502176,0.9205378361330991,0.8312489279537596,0.6772849407030614,0.5190454732082106,0.5471147723535399,0.686858302130811,0.809971114938886,0.8581705136027749,0.8421641959633117,0.7864679454517995,0.7228450630981866,0.7515902825281762,0.8077160491691737,0.8155072055115022,0.7942980291017596,0.8199249281235206,0.8348088913343492,0.8566357882567699,0.8319278359932074,0.847779096559214,0.8379289000310788,0.8466505594109286,0.8320432200020313,0.8332417617446772,0.8566227556002142,0.8778127540536023,0.8464006180325976,0.8548921238160672,0.8251127018556881,0.7941939038007249,0.7931960389411552,0.8011034702768152,0.8228352745861596,0.8484717031449316,0.8651173409986708,0.8684669887268042,0.84616820332299,0.8349063649349997,0.856715781884164,0.8449106156144932,0.8849335490688564,0.8831323677786092,0.7819849688334459,0.642074422097882,0.49327540640934675,0.5154635242860559,0.6564337701019536,0.7981242679923319,0.8766736314300196,0.8596671362932229,0.8162222269082031,0.7390605941681478,0.6895089691880552,0.7542945067420437,0.8139952255933718,0.8421799176835654,0.8335437269681734,0.8454747248830259,0.8456691998309651,0.8248872595539458,0.822805628832251,0.8239593190521042,0.8490998602198117,0.8592996673599131,0.8593323855569199,0.8537962322206232,0.8399674629323961,0.833603269602186,0.8228692885823303,0.8228048897815077,0.8228182834038265,0.8290241426282874,0.8430312748133773,0.8450013300038943,0.8337331648502762,0.8579152827626118,0.8808565734398357,0.8976590206227897,0.9389283717909294,1.0,0.9741322883785104,0.8558041166659152,0.7012030476539968,0.581198264768302,0.6708579469781588,0.8188240624070415,0.8792913477703213,0.8775297944604086,0.827986290124822,0.7646683797589082,0.7790351097100059,0.8440136802315577,0.8821911338042927,0.8785685230843061,0.8671530748941523,0.8663969732592225,0.8891164672151417,0.8765699012820711,0.8952709307139948,0.8958879544810996,0.9007022438310646,0.9255557928526574,0.9013018253720713,0.8985171429189265,0.9256526032406915,0.9223981811005437,0.9162870720402232,0.9097549017357922,0.8665699321694191,0.8742982705706881,0.8596784124153896,0.8648418122766639,0.9140979936972844,0.9117006140817034,0.9293170509195141,0.9322709057339047,0.9177275013431672,0.8996012079708997,0.9265157917319069,0.8885500690939319,0.8186224018110018,0.806409778106147,0.7808769961905417,0.7969873710141941,0.7924989182092572,0.7876768544559267,0.7797279337377336,0.7705899854883791,0.7573280431265133,0.7371499117671458,0.723520992539421,0.727166512044465,0.7108455207229367,0.7648281425304093,0.7845325545341622,0.7913187604250105,0.8021437266619609,0.7761780392491264,0.7992034166851667,0.7955895109450166,0.7691042148352754,0.7497265481699138,0.7699313908340635,0.7524738681831691,0.760824617013788,0.7366827400014655,0.7122248679872643,0.7123948419545636,0.7241572964831855,0.6863480100088086,0.6308122622913848,0.6045453172094977,0.6666543907800184,0.7367881032451136,0.7536216483221558,0.6455457031068228,0.5033063627120855,0.35250509039105804,0.20109219694171454,0.18646427134421195,0.31745614732120053,0.4806554196462942,0.6440606065972085,0.8030193659841087,0.8509659741568738,0.7847923712396128,0.7710192038362598,0.7487899526344322,0.734995020122434,0.7211058056939699,0.7123310781017302,0.6804525029695574,0.6773384570312242,0.6968539740488975,0.6772281200480439,0.7152262139809249,0.7119578424458473,0.7120072675555704,0.7322515572510309,0.7185730290768664,0.7122094140283997,0.7333851533145452,0.70996294346926,0.6986449502821968,0.6985753609704037,0.6985753609704037,0.6985753609704037,0.6985753609704037,0.6979117243548494,0.6701422734444407,0.6056077264542008,0.5755334657999551,0.6024837775874676,0.6862705508067073,0.729698063683383,0.660406481657617,0.5171424384179133,0.3694388166608915,0.20266315722449502,0.05444908883867683,0.02518431278285327,0.1431794254336154,0.3036729565432301,0.47315598017059024,0.6482991627539985,0.7299855504886201,0.724166037505932,0.7282428046075538,0.7349708025082471,0.7205794143281912,0.7085667078223938,0.7007743903005679,0.6780998853435651,0.6871084889064667,0.6632640407208301,0.6702806488314694,0.6968251872346443,0.7031046997872652,0.7302567627497574,0.7130638330633516,0.7304205106948709,0.7182440871069113,0.7246204070827469,0.7000227111486543,0.6986016290431465,0.7053834890889261,0.7081988755735766,0.6986490516270392,0.6973635930157407,0.6725483654644275,0.6855126366477604,0.689515459537029,0.6322052734028558,0.5682207404152901,0.5694172568866707,0.6561388596229918,0.7352319515899,0.7419209405434124,0.6316370447921473,0.48699627988155303,0.331986426114236,0.1637886854261783,0.03001316681659638,0.0,0.13421300362599542,0.3158929534780883,0.4735565890984281,0.6337314347828613,0.7659944444129909,0.7653983965344233,0.758186065952958,0.7775871874143352,PM
0.8742462858279372,0.877014060886423,0.864279712108301,0.8605053011714525,0.8713490137015678,0.9124040708567409,0.9581479001664879,0.9778257727916677,0.9563143761802877,0.9267729911821871,0.9068980403964653,0.8820115026315576,0.8896193061250748,0.8808127910567731,0.8311512490031197,0.750799357405973,0.6613265026742869,0.5720371480291839,0.48041703170807937,0.3847405355489837,0.3525605098982145,0.4364366427800339,0.5265667801143217,0.6170874319836313,0.7054128101394492,0.7894388430092643,0.8452002048334961,0.8692376616864177,0.8712567923847345,0.8560139383831493,0.8513576108581358,0.8733675302637409,0.8624329129609363,0.8483535473479105,0.8503211993631878,0.8718224619608574,0.8749188978237443,0.8538879116536462,0.8627978832497152,0.8713409097739304,0.8623292521788062,0.8538006972787473,0.8684700674452306,0.8808331104475213,0.9266266876117997,0.9761993801070115,0.9912732143123408,0.974074782513465,0.9380878677418116,0.9066064368416775,0.8822060647453451,0.9106166916417737,0.9217278847697603,0.8700012702468976,0.7870427844196839,0.6990643104211975,0.6077409904570654,0.5178609567976504,0.5094644779216133,0.5781515535938415,0.6604960105098003,0.7491628013019498,0.8345100715335843,0.8759669927448477,0.8544395990791962,0.8624776175020847,0.8646704984901001,0.8451534678612345,0.8313948844777639,0.861656513812814,0.8836800844998547,0.8746558444845327,0.8572459735628262,0.8590325839972262,0.9132646815349279,0.9695452791143602,1.0,0.9844900656303279,0.9339662483243214,0.8946340599576796,0.8905916613747404,0.8890648826324132,0.872556909169909,0.8310818316636586,0.7537329257701546,0.6664066848872667,0.5797295569196299,0.48433279522964545,0.4048571060697663,0.4391584258395884,0.5299471992425444,0.6189055893630169,0.7110312622603052,0.8039626959072832,0.859512223484654,0.853252015080812,0.8473025122794886,0.8456831458023761,0.839325433415,0.8496043558561306,0.8391759700925379,0.8216994504625834,0.8179326685201374,0.8281348057689057,0.818190660559456,0.8197602331054088,0.8371513744432155,0.8459566262124403,0.824611216868194,0.8460411496283267,0.8972029880434622,0.9440035915504121,0.9592370475238612,0.9200016251922878,0.8781412311394972,0.8493975555626001,0.8599414272547277,0.8543620555817553,0.8250272120809239,0.8022322554955132,0.8085264162428576,0.8405150347858377,0.8816335899327359,0.9035247185424038,0.8611721235996495,0.8120094603219461,0.7758199005257467,0.7783144156152,0.799244967087593,0.7793202296481434,0.7781717859979511,0.785197515450498,0.788602595830854,0.7661301971120991,0.778545843344673,0.7990151472437641,0.8016890161604593,0.7979842892327138,0.8014023008077413,0.8010392571454825,0.7984367882204086,0.7384979064943389,0.6532929849582052,0.5668434176798498,0.47347518463974025,0.38082387636654214,0.292256954113602,0.1953322242086819,0.09803759262701917,0.009909922975983365,0.0,0.07463446616988723,0.16515983172449444,0.2586889857739103,0.34648482647206347,0.44310717267263433,0.5352058924864598,0.6242049782332355,0.7158256836132963,0.7936357040306157,0.8375681226166769,0.8471654616436246,0.8443631396709952,0.86261875221272,0.9051995255507337,0.9456912221570781,0.9302175179721504,0.8699449431455273,0.8133085101726722,0.7933663188572138,0.8127309064826895,0.8324189296527753,0.839895452015115,0.8083646006358207,0.7794808501751596,0.796508502273598,0.8150979877457285,0.8201946203708474,0.8012912238419085,0.7838917322268637,0.7091683623860101,0.6151355801328182,0.5269960068805601,0.43380942581214055,0.3364960252772382,0.23914938920296214,0.14231933190993473,0.05508224821162799,0.0019108173363797665,0.052381923529376095,0.1374549984107627,0.23249908599492541,0.3295130199284937,0.41854292018446637,0.5106791563226405,0.6072968197490058,0.6950009192168949,0.7836507735727105,0.8578684292965559,0.850323025592512,0.8292497462518198,0.8552331460934348,0.8889037170652916,0.9214438250418082,0.9424952821824353,0.9052763929043417,0.8531777754515213,0.832690570667562,0.8205200457681823,0.8145148599649241,0.8238161742748216,0.8235333741040574,0.8082464857248688,0.8126792858107321,0.8310615340577825,0.8157928354016648,0.8032591830300517,0.8102058145971442,0.8222429294476372,0.8047285636385562,0.8028897041485581,0.8217450098100327,0.8208476094829473,0.7912974366711292,0.7254092833182391,0.6403862697822773,0.5474670677483755,0.45015820135119333,0.35281445031799885,0.25709302507574217,0.17022273621665707,0.07820874392580746,0.03166513711700292,0.08208436190842372,0.17337906313204487,0.26041317044104884,0.35527003728994777,0.45063183032510756,0.5375240306021658,0.6331229869319475,0.7222878048873156,0.8036412406694913,0.8356090144525816,0.829066369138209,0.8540399643910761,0.8796190438136193,0.9083115640481472,0.9263277041396694,0.8987493598466592,0.8557085286856272,0.8231321979778516,0.8154579955924683,0.8180830647407098,0.8292995227303841,0.8223820371590098,PM
0.5781124978183989,0.7020417818397213,0.8249105041078915,0.8814108299819603,0.8473334938216137,0.8385980394096482,0.7877016264155161,0.7459739313078897,0.7901043168461586,0.8349528087824591,0.824083351619084,0.8117884352474798,0.8116634835279255,0.8116634835279255,0.8116801973868917,0.8182118499320854,0.8433923255669553,0.8694067735318836,0.894495125359624,0.8986351122840004,0.8759390852223925,0.8713272049330669,0.8713200130233538,0.8735286616197655,0.8961626986866715,0.9011351563383583,0.9010103132788716,0.8882992852408922,0.8716389365726824,0.871321946324537,0.8746267779012866,0.8977676787102808,0.9086607333680492,0.9303340843147883,0.9496095684909136,0.9344985620277919,0.8285544683676775,0.6969475184625065,0.6044837845922846,0.6947806466825792,0.8288776797352364,0.9358567383153069,0.9417370053175356,0.9266271368564887,0.8789933758822306,0.8078411651543567,0.8273552826909958,0.8600862777974294,0.884588618931053,0.8987015435986914,0.8890848640387219,0.8728364978159986,0.8597227997874803,0.8419785062914737,0.8414911406710077,0.8414911406710077,0.8414911406710077,0.8414911406710077,0.8414911406710077,0.8415191156441546,0.8488956617761731,0.8717170006787898,0.8949164071125484,0.9011232917083145,0.8981536051797185,0.8642012179086613,0.8420451458176634,0.8414911406710077,0.8424283239830812,0.8639627441573561,0.8931550812747373,0.9075234441395263,0.9442963135906792,0.9856742362105217,0.9475388071469926,0.827251892095731,0.7015651308137913,0.6450618296787605,0.7623281512194113,0.8909481944364952,0.9221151650919914,0.8799755768393833,0.8575600398858754,0.8063686346966019,0.8014129591007908,0.8375027216876658,0.8414859538996886,0.8414911406710077,0.8412413334435129,0.8265163680395329,0.8118917695622647,0.8116634835279255,0.8116634835279255,0.8116634835279255,0.8116634835279255,0.8116650146915996,0.8141406774138913,0.838079089111754,0.8642404105518615,0.893200190312677,0.8873733333672638,0.8628283671006134,0.8332809444805731,0.8124974946661387,0.8133798148776821,0.8360515617991657,0.86159470587471,0.891030989901151,0.9019387531003229,0.9339183861539437,1.0,0.9801479292510829,0.8641186045966815,0.723770075381017,0.5974617040051715,0.5636942075331275,0.6896417402430961,0.8132009079510674,0.8866521516540571,0.8439032672409441,0.7802055230500473,0.7240026124108621,0.6095708392181951,0.5197020909005694,0.39415787337460095,0.24318387329351498,0.093882864928017,0.002451804146743619,0.0,0.06964462692838591,0.2024593473225389,0.20037858353617022,0.21307986697510017,0.33122290935008536,0.463107641247265,0.6029019383630212,0.7351593069465352,0.8362725679451497,0.8294207107764464,0.8083210139655632,0.7892082728580894,0.7644187293187557,0.7416364165860792,0.7400776228484682,0.7408414775359757,0.7611076505073511,0.7903816271554494,0.7990539001823143,0.7803042062304462,0.7558763899506804,0.7382340644295606,0.7185904936130827,0.7365112249591137,0.7400728752193864,0.7400771063845308,0.7400771063845308,0.7400771063845308,0.7402753639346251,0.7543124500962524,0.7696449031193096,0.7699040830104238,0.7679698592539479,0.7305523598665324,0.6866149428878252,0.6991683366146972,0.7715732305097136,0.7980433844276753,0.7537331404636687,0.6318520759745976,0.5103844929188037,0.38583695190314415,0.26529415612443596,0.2694839521002077,0.3811847408991955,0.5170705848687991,0.658228726641152,0.7859228834073821,0.8426105481541608,0.8296445654082811,0.8145317760905515,0.7847979256664575,0.7701311390835617,0.7699047635276122,0.7699102575559946,0.7739557251427769,0.8054358549762339,0.8281770549851961,0.8116365081683092,0.7960380187950662,0.7729612590973796,0.769908168207956,0.7699047635276122,0.7699047635276122,0.7699047635276122,0.7699047635276122,0.7699047635276122,0.7699047635276122,0.7704310644793404,0.788835603115853,0.7996586504998815,0.7997074486613291,0.7924189308607801,0.754805934205244,0.7140505227879377,0.7328711709472415,0.8051890739445122,0.8347084906325675,0.8201574734426291,0.6996897253121208,0.5713491948801073,0.43241685130132623,0.30288136914496366,0.19730919314518047,0.20780337607105448,0.33226892689911125,0.46400580087956733,0.6045345346733626,0.7346651370365596,0.8218192930054897,0.8295035727881377,0.8205112792592395,0.7891729171481927,0.7962299777595838,0.7994589445795643,0.7839677277291814,0.7781277698672557,0.817459927595177,0.8294658400792709,0.8228198311180259,0.7948441595373135,0.7914278534347128,0.7996755070592743,0.7997324206706935,0.7997324206706935,0.7997230855619764,0.7948792614956695,0.7698996251366079,0.7351152860881491,0.7110151315328794,0.717725229663932,0.7389776906046723,0.7400771063845308,0.7400768633426784,0.7386852561769954,0.7129104411263478,0.6652668580996304,0.6635428837584412,0.7266109921779629,0.767574308011981,0.738610569718742,0.6212027795438759,0.4944766856412839,0.3683174967423337,0.24290197139110958,0.12908255231619847,PM
0.8605885314260409,0.8605885314260409,0.8607561271666859,0.8673450506124913,0.8692678824791167,0.8907888321692194,0.9071370782874286,0.8970591028809758,0.8802134727534563,0.863690930350133,0.8632961642369805,0.8785621965935753,0.8980125376432251,0.9461836410197586,0.9134963232723199,0.8208086231581517,0.7152575304906157,0.6020111102021568,0.564845944425624,0.6531855476743624,0.7551618378087408,0.8425655374905454,0.871361622164815,0.8604587978156131,0.8439536248318666,0.7976803635893042,0.7303419318830882,0.7447303502882865,0.8019433474858375,0.837115162289781,0.8600564096724073,0.870563919393867,0.8801789166524281,0.8871763449178167,0.8885894579698119,0.8937994790013422,0.9029152283396633,0.9312345251249861,0.9567227859395144,0.9450010121159407,0.9204299257993469,0.9041972666292395,0.9099294938270801,0.901323689135058,0.9152835267091111,0.9505517956056977,1.0,0.9595658517781502,0.8773062672580263,0.7695566862577325,0.6640206307996985,0.6021577531492648,0.6809949603810668,0.7827007194705078,0.8686944585039069,0.9255395678528564,0.9214219050102286,0.9134328595533749,0.8729200503216483,0.8016867626188198,0.7693937444151375,0.8280737894051629,0.8687891532966567,0.9005207978295604,0.917829561498329,0.9187454923812521,0.9041495875462546,0.8772030171952023,0.8412249599900248,0.8115592979000668,0.8184419068364708,0.8337276078249647,0.8607864845244921,0.8973952736605937,0.9097448602362732,0.9089667845801102,0.9062477414795964,0.9094214505014877,0.9199431025052252,0.9351264153283076,0.9757257091823255,0.976080050576039,0.8923866085007242,0.7875978376287183,0.6823778528577531,0.5939143968025076,0.6569062086746928,0.7589253578014281,0.8473004099134402,0.9083001696902548,0.8959361610251073,0.9092910118319488,0.8979608613420176,0.8388685411062689,0.7741451636471881,0.789551700588051,0.8306421122641643,0.8660098950750652,0.885964233429692,0.8993172831442919,0.8973664736107034,0.8860501301888268,0.8890645902052601,0.8878780553772261,0.8793609068941297,0.8780447031348597,0.901146822304828,0.9272061232102691,0.9330675981419692,0.908725564622828,0.9058188937342098,0.882395777592039,0.890818259119428,0.9028732044099872,0.9368975689287935,0.9848672515750292,0.9483625814010179,0.8888212513474101,0.8466582007847694,0.8332126723904518,0.8246095916682017,0.8189748719043797,0.8474224010761682,0.8625235636501252,0.8613839025039343,0.8341305431976958,0.8161190726329779,0.8160466534132111,0.830919290465367,0.8296084002125022,0.828267206393269,0.8327753241452966,0.8231276467345672,0.8078830820057257,0.7760129664762081,0.7328541836578903,0.6792034155411986,0.6900978083760965,0.7550919627886774,0.8240386926942165,0.8411420890740668,0.8261706216449438,0.7679858517652232,0.6570491229383721,0.5412525366994765,0.43707971128865,0.32152739560272714,0.21735833958015682,0.1034695888404209,0.0165930730935826,0.028137216017687816,0.12308266760856723,0.23558568740931607,0.35445397775879117,0.4659231198154603,0.5732342361573952,0.6888763111147282,0.7913971975588692,0.8778183407326487,0.8792326662455814,0.8591481364115818,0.842808032109724,0.8447575344062082,0.8526120327252853,0.8512496388530382,0.8282969155344846,0.7968992704622533,0.7678216983844228,0.7514770698224669,0.7406069433113345,0.7665507120472936,0.797995351643622,0.8342299505167876,0.8515247525556795,0.8523229025714496,0.8362176297658332,0.7952896761768735,0.7463922453850609,0.6862653998076582,0.678402112863719,0.7452994276402256,0.820125396093816,0.8563005876264338,0.8572646838476623,0.8114726759357693,0.7058887460851766,0.6019966508192196,0.4924445342362982,0.38542291726404043,0.26955903839844453,0.1665324625654021,0.09444368310645146,0.15015547142065122,0.25498462027064184,0.3665901512645484,0.4850743871241323,0.5919728085718381,0.7037112232874736,0.8126279997465171,0.8835174314851897,0.8595550424562015,0.8518144198693083,0.842573563239398,0.8516948558982338,0.8527985642401048,0.8631742187755678,0.8895491871992633,0.8782557155619841,0.8517575455270441,0.8348690915009507,0.820762701700827,0.8270211464819708,0.8227317728304966,0.813457019243153,0.8031432171089596,0.8063920124385708,0.7717879352097801,0.7212426563056842,0.6600429072318654,0.6100650258559974,0.6485973704368675,0.720421619521745,0.7829560563842888,0.8061071672241247,0.7979902946065316,0.7200052607080902,0.6212626809019333,0.5130801676735617,0.39433782663398365,0.2754903962907189,0.16570098151746038,0.05976558420713429,0.0,0.06343692807977241,0.16675667819837514,0.2800053365584665,0.398204777297098,0.5037434242637606,0.6171969417938854,0.7276751301509856,0.8271941255335524,0.836952864323298,0.8225430113332322,0.818269155592124,0.7998097304007756,0.8063969370263937,0.8261255433504768,0.8453790830689107,0.8433528379828195,0.8188928344142683,0.8114106128586003,0.7911635506158299,0.7876731599151525,0.7952066137188569,0.7963424121620823,PM
0.6249962423847446,0.6249962423847446,0.6250210992841705,0.6370442539871135,0.6525913392254488,0.6253135264662362,0.6249962423847446,0.6250027647052789,0.6334023098060708,0.6935385682947839,0.7635788117973643,0.8422519499529546,0.838779381391138,0.7638040149549656,0.6570038702070988,0.5406741782993922,0.4144031186936381,0.28746406433756455,0.20181328115261365,0.1786616207738323,0.17887047183073257,0.21025858492338578,0.25264311253057237,0.2920436113975651,0.4025074564568918,0.5898002861731904,0.8254623094583007,0.9740001355978514,0.8526779015901109,0.6208868607204447,0.6130753446460151,0.8677242081927385,0.8706786526091896,0.6948703675188135,0.6262993377482697,0.6038384099650802,0.4623620073617474,0.3716480549065935,0.4290597886567191,0.5146798128403116,0.6160627178868072,0.626682233227104,0.553079145525798,0.5508489270412422,0.5803164085164276,0.6239864338354604,0.6249962423847446,0.6249962423847446,0.6254058466401577,0.6554131963117662,0.6359221393788488,0.6591174607742065,0.633633048618794,0.682004971150528,0.7667077307334829,0.8127650650560891,0.8346577535929462,0.7683187073980307,0.6725921818235214,0.5549031765385486,0.41841336782706406,0.298966158316766,0.19762853559786997,0.178815005588012,0.20522647745739064,0.25155593234265083,0.2539165706444386,0.2984351204353981,0.40418270421932867,0.5379016995804804,0.7693749914861474,0.9411787630004014,0.8346227896845004,0.6292037730658251,0.7306953558600426,0.9029536666171971,0.8358228272942672,0.6589243053858809,0.6245578462272228,0.5697900391403508,0.39305985528094034,0.4035159238026189,0.48956890129027464,0.5631429964781844,0.6210204215890531,0.5996207473871067,0.5591366391972947,0.6082582492241446,0.5593987560731222,0.5590191961340274,0.6500363704956591,0.634094853839569,0.6604258091867656,0.6319917073845183,0.6620956749238491,0.6288038637687663,0.6271148875544466,0.6798651552887627,0.7485088759777057,0.8027656789270452,0.8445047829786514,0.7905324241138896,0.6850831111918154,0.5610182389448894,0.4462330243003674,0.3125340133919856,0.1937345856804562,0.178607215486128,0.18713349040479343,0.2452588536864635,0.25296621388570983,0.25665138605708115,0.3467561565152497,0.5233645915991296,0.7642669393718826,1.0,0.9981121875418157,0.7842113225794378,0.6284084051634924,0.8013297576107998,0.8957562865197524,0.7388665296594485,0.6306912211201041,0.6175776796299175,0.5040588710918428,0.3603501341371089,0.41135667742296356,0.5199184575606708,0.5663752496563479,0.6186548944182473,0.532599997713902,0.3902920689486713,0.3666977788050847,0.28749175538744787,0.20468124781804065,0.08151997245055753,0.03997578863112494,0.19354274585543862,0.38757613361371135,0.4456937643037904,0.4416039910732774,0.2928125202461249,0.09184529903421357,0.17514102179002222,0.4036787275915099,0.40503103204881796,0.23375597069923337,0.09184394055381162,0.07401482102825163,0.037315774161980286,0.0005719128639789517,0.0,1.819632903021784e-06,0.0053120946615656806,0.082260044959515,0.1836332550051214,0.3146395938283284,0.44619984610414676,0.5807911630235125,0.6296927370009655,0.5804457660088165,0.5185549836221046,0.45794927240837424,0.44644521431929185,0.44642588741767497,0.44642588741767497,0.44620526869825206,0.41835832015030405,0.3732522028655101,0.3720215728480625,0.3720215728480625,0.3720215728480625,0.3720215728480625,0.371274796911333,0.32929365319520265,0.24260264836670054,0.13250324620039322,0.09722747941039955,0.26153898324677627,0.39131126830209517,0.44576307622531,0.4774395531857536,0.35597322143396504,0.11420857236759474,0.042330663504486665,0.2228024258435113,0.36659200658776037,0.27041647044780603,0.12671708535928694,0.07501985110462073,0.06106631143332564,0.004604271774658386,1.5360537464204072e-06,1.276106171843594e-07,0.00238093678945539,0.06649654811905492,0.18763716036578515,0.3222046348464591,0.4314920192687026,0.5442324435466155,0.5822504375353983,0.5510461277647565,0.5404416137162826,0.45519255088220056,0.44643749268331767,0.4464226546153238,0.44075280348170764,0.38295997695869843,0.3720393757425793,0.3720215728480625,0.37202157284806425,0.3720215728480625,0.3720215728480625,0.3720215728480625,0.3682408553425187,0.3059350737009705,0.22649393606251778,0.1247060532239388,0.08774629460827299,0.21745098868615642,0.3674598991820446,0.43596829409192317,0.4382959541319629,0.2888314046338145,0.04923863519779914,0.08347991325699766,0.3245330932073234,0.4360824785208255,0.305549743602354,0.12110880123825929,0.07480398506469221,0.057307721505347686,0.003048499736879151,8.176532251269464e-07,0.0,0.00023569817370372448,0.044041747843596823,0.17301033244676844,0.30334803542239364,0.40683088890719965,0.5507722143887204,0.6276842255431418,0.6095265336118292,0.5295404396628296,0.45482196271698605,0.4122987886745957,0.44524224820138514,0.41498312611823174,0.37285263620025866,0.38580516706009327,0.4067829940672745,0.44141972307456356,0.4347506311483844,0.37771079091222504,0.3720236098916505,PM
0.6881626267178675,0.7374342239554172,0.8032006338309756,0.8381116985130412,0.8160294663363881,0.7865716018737299,0.7702816070118876,0.7900864513048331,0.8341190626308133,0.8649401605694687,0.8582130906117911,0.8277163795505964,0.8032674896127134,0.7999973332103871,0.8176569123661834,0.8771602066512485,0.9071259714969773,0.8244791813011063,0.6866227842023234,0.5553592370788962,0.4183826233646548,0.3824286571855331,0.5037411263497629,0.6068015439251284,0.6994627978895847,0.8174895480514821,0.9295191254342954,0.9595754729994361,0.8744513608309026,0.8332186381703659,0.8103068197950822,0.7477659964107932,0.664661852062407,0.6862089571242334,0.7604185148320339,0.8046971818685953,0.82470659414028,0.8035015982678417,0.7881879452681151,0.7950573911743439,0.8218871106472276,0.8452699449561751,0.8601080200609101,0.8415894388875791,0.8125794511407674,0.8077856289499836,0.825538329862185,0.8586148656618642,0.910195639770464,0.8712543650822235,0.7464284810628583,0.6129283393283451,0.5252955674881887,0.6183013179251797,0.7492198311843561,0.8745532347111817,0.9649551045604778,0.9343447066956383,0.8598829841401501,0.8304249260616707,0.7778573605237789,0.7004401512005138,0.7217616219402556,0.7920559544361523,0.8468682813185531,0.8374081721653965,0.8069898219419493,0.7888460705400182,0.8029687530970522,0.8248753491706626,0.8350430008329779,0.8571587933418101,0.8489999412587457,0.8285431412702735,0.8222909950005182,0.828329049920923,0.8478952043236849,0.9091215233198704,0.9251893176687673,0.8260884952437544,0.6913750083322623,0.5604055549163323,0.45271141374304813,0.5282962089430638,0.6566255467996132,0.7854138744443446,0.9102072476117331,0.9707180433446991,0.9065909401302563,0.8472732771047751,0.8223715414032866,0.7560771041539858,0.6968250060199623,0.7383821583939927,0.8024267799069396,0.8369745121431738,0.8323307001089795,0.8145234162074799,0.8241115509291248,0.8417510087499873,0.8656275952325263,0.8704227366242474,0.831904150635542,0.7984722065195311,0.7873189143268338,0.8044032940580692,0.8282533255371698,0.8761030859707786,0.9316217819991848,0.8735533491732612,0.7549590243651121,0.6293170468567579,0.6489858398438031,0.7731481100810651,0.9037885986451961,1.0,0.9811591535203004,0.8875513928962762,0.8503257984985484,0.8398002942874143,0.7168855599001875,0.6120570974998887,0.5528012419841546,0.4228755214849165,0.2822913682814434,0.21476237330985004,0.25070431584138664,0.379164453055302,0.45795495524809215,0.36008413302518827,0.23418976982276218,0.15149157021908888,0.20923016035327047,0.3408017148982361,0.48623706779454956,0.6314910213398885,0.7620746667731058,0.8230163076425301,0.7805821490006477,0.752492896886582,0.7431694607187231,0.7227520325572945,0.7379866023965982,0.7725369459964591,0.8004583911923264,0.7889028538150153,0.7599294040658657,0.7500063275704427,0.7575616303850805,0.7667588173564357,0.7298269048628403,0.6682612833439077,0.6188449239988532,0.6488233785272461,0.7277682541505497,0.771439274083082,0.8040805907477151,0.808072254050499,0.6913433334542254,0.5635564298670821,0.43285737130617763,0.30325689503613207,0.17280829751570614,0.10506422401208182,0.18816347205234818,0.33020444123955706,0.4755946024864035,0.6103081451296264,0.7412936307349192,0.8092625344627202,0.772894601508546,0.7619960747554124,0.7408424171445169,0.7613218634106049,0.7619567173056008,0.7863160133927773,0.775573801480697,0.7605813061087927,0.7470834216510398,0.7236426944229346,0.7344777205686976,0.7589451620348728,0.7775725788705383,0.7361335899051427,0.6658694469348378,0.6112129463084783,0.6146493182867814,0.7022765181003039,0.7673282231657579,0.7953500532220845,0.817783424637037,0.7260661900721712,0.598599822330987,0.4662273399834116,0.33600384845517706,0.1979589606095149,0.06972024056728765,0.0,0.09274529757112937,0.23736030714400824,0.37582955334733326,0.5085417082109931,0.646360408783015,0.7706216258189214,0.7982364576723602,0.7677911332197085,0.7473313952269516,0.7433792181664698,0.7559883320107574,0.7881909974204473,0.8005852543611534,0.7708353494375575,0.7445986097624777,0.7155214998198756,0.7167138975061107,0.7328841099915948,0.7565676413914075,0.7268922190844429,0.662595175279193,0.5985928953246549,0.578347796379048,0.6545248163345523,0.7400872116614412,0.7624033135543362,0.7820099416613511,0.7717913653190265,0.6512417882435986,0.5167568717604238,0.38671011224346064,0.2505287860165093,0.11949964235107391,0.0030534618324828955,0.010427241914463536,0.14067407328750114,0.271182783544095,0.41461296935345526,0.5469065330334866,0.6815975830666643,0.780281757506744,0.7656720301031008,0.7386530936540705,0.7371930932910025,0.7217694707144169,0.754041045617158,0.7886837330331731,0.7991640980382266,0.7676766259810801,0.7268738559475807,0.7093168280913895,0.7203247919602802,0.7497935276495662,0.7572274338051748,0.702973173399974,0.6466831632670011,0.5933154285376747,PM
0.7012443259777292,0.5999275065657641,0.45745228461952747,0.31439613541460654,0.2195646383903922,0.3120902678586619,0.4651131711502061,0.616129786625665,0.7644675332305013,0.8932835441183347,0.9015958494829799,0.8218980196776853,0.7717192499480818,0.7074285118042276,0.7314682288288381,0.7820915690916248,0.8126893805251956,0.868502528481284,0.9415148399011648,0.9929198039243583,0.9601706274625057,0.871686681745429,0.7808405246340522,0.7128865457953353,0.7027780533353174,0.7227780982217951,0.6276819638146862,0.48679534361518906,0.34423135859827747,0.222492819561118,0.2855808212662345,0.44534439235151346,0.5955734029249475,0.7521964344399636,0.8953978844065258,0.96833675972879,0.8919198673308926,0.8263577525157899,0.772589763632114,0.7164036705342505,0.7641492093872486,0.8088403851937946,0.8307641831881432,0.8849357987813744,0.9516773526856084,0.9911257300480592,0.9421897806728818,0.8569579829131082,0.7643637845711106,0.698605339391781,0.7029002539348279,0.715413223986213,0.6054123013357811,0.45995575387160903,0.3239669903515816,0.23503147495982368,0.3113768576158349,0.46328942348444135,0.6136654626371953,0.7665530344738043,0.9021494592069041,0.9343029968653473,0.8501862495560744,0.8006515641469929,0.7288207587525992,0.7128957870937245,0.7643705940529126,0.7877981360318755,0.8350618288620719,0.910851722249741,0.9545326204789686,0.9185225969683097,0.8301393304213027,0.7432801191163936,0.6703220289812881,0.6594517539962732,0.7184712869420613,0.6570170383194176,0.5218225824270122,0.3790222871906326,0.24948927202665638,0.28412745740519707,0.4440006945046666,0.6015527897718429,0.7508173644614073,0.8927217699288312,0.9468788737415017,0.8659368623251802,0.8108805229356877,0.7465103633757959,0.7365990114601111,0.7919506384476671,0.8226375407862823,0.8590935793551746,0.933683920158364,0.997329635540142,1.0,0.9224614771009261,0.8279632114580866,0.7361368695416233,0.6894705296220955,0.7151052631808179,0.6767708054347108,0.5427307297270727,0.4018767926636899,0.2582351865061119,0.20052439102789288,0.32472893291169447,0.4823117671174604,0.6327632876224678,0.7834355396539965,0.9122360403499314,0.9184670488863329,0.8374113479105212,0.7877611877289743,0.7119205781686224,0.7036368133305912,0.7657194108441687,0.7969828466092292,0.8465262523669268,0.9109611555906931,0.9604077600671292,0.9242598629244143,0.8369579002404506,0.7514652752666802,0.6903304959217791,0.6868030000616283,0.7154919957923598,0.6585581784710337,0.6163186938041147,0.6302820818207402,0.6957244545632975,0.7780037915146303,0.8674690563083942,0.8719950665137457,0.8039304710158066,0.7511761734180142,0.7120454632922502,0.667411755240428,0.6096133594404827,0.6473727837371022,0.7283896338917271,0.7618678762933673,0.7030192439542264,0.5517424332970076,0.40156286301248567,0.24766473493110652,0.10357191644592456,0.0,0.048212932617544446,0.18097346377551204,0.3150471746221264,0.451220892805158,0.5795396009376192,0.6062855151360758,0.6134123877832769,0.6569232532811169,0.7493872266059594,0.8464948842287088,0.9209496400812336,0.908619638139474,0.838806684289993,0.7780105075310266,0.7490876172053267,0.7104308047831305,0.644420847875701,0.6452640219788686,0.7259405722000811,0.7781877413183285,0.7682289760420988,0.6361832900590008,0.4854534040617513,0.32646933032667436,0.18338592234331497,0.07024992004796538,0.09897707156824032,0.23327451181488046,0.3756799039010801,0.5164306687645865,0.5985474489600473,0.5825933540947852,0.6162710842214576,0.683505156257799,0.771441912216011,0.8603102852747266,0.8663929213815704,0.7994976180257636,0.7407882035323818,0.7137703031246354,0.671895535614556,0.6239291824190993,0.6634232698447038,0.7375281045041175,0.7800567981544071,0.7532678873404679,0.6118535598728445,0.45745206830015883,0.3081525113803223,0.16542814916243254,0.06215244635785755,0.10874936019316594,0.2541651961543092,0.4022818145478184,0.5417822641919323,0.6230040967595318,0.6158675013894843,0.6544339809246802,0.7299644105632517,0.8237075245200978,0.9012543632127037,0.8955994661948501,0.831535466524636,0.7708735957206705,0.7364447292457998,0.6885899322275328,0.6335890321952489,0.6642488529471184,0.7461333250568489,0.7861900326621849,0.770380491663845,0.6349687237076269,0.48041946366923494,0.3283538950858236,0.17965773296013587,0.04827411038275553,0.03878012217724969,0.159525017606041,0.30363454717222904,0.43455884201617634,0.5516665525455386,0.6288362910028864,0.6280345016043025,0.6705089884247459,0.744799670871441,0.8380404513742836,0.9141450421359836,0.8874842402918217,0.811789042419047,0.7499304011563943,0.721603662156304,0.6777126469287027,0.6211576017608067,0.6603363706793783,0.7269371370096489,0.7659927195355767,0.7207406725216288,0.5756834883675084,0.42010216363163133,0.2709125322450707,0.13408410248965152,0.06098500289106701,0.13921459737369535,0.28972811823080225,0.4341489201777158,0.5627448492970171,PM
1.0000000000000009,0.9579648151105689,0.8763012893452027,0.7889594402858986,0.7643648739068265,0.8109515914503307,0.8381528516663481,0.8390887908858504,0.839088944098056,0.839088944098056,0.839088944098056,0.839088944098056,0.8395688322960382,0.8585495280876341,0.8714956283758895,0.8716106346818364,0.8716106346818355,0.8716106346818355,0.8716106346818355,0.8714956283758895,0.8585495280876341,0.839548258396837,0.8317545240654711,0.7869222777736384,0.7481627088727576,0.7769686459887852,0.8060434650382424,0.8270645333853484,0.8333007147225819,0.7854666243452826,0.7091888032527711,0.7022140522523097,0.7093298032662858,0.7273836283769981,0.7331449712968983,0.7005733994570624,0.6292843315996501,0.5108137813043552,0.37318989553512694,0.2974973828982135,0.4000114429575321,0.5560355414579954,0.6917652818772559,0.8190431287938411,0.8635931178188967,0.8303163926135984,0.8017477097750509,0.7725652028981038,0.7210014507555904,0.6547808372421802,0.6975669884276741,0.75414397460536,0.8015491443669305,0.8065562061046929,0.8030364271730406,0.7774125588554828,0.7556342158496641,0.7574544463920052,0.7757780735079614,0.8004197753132223,0.8153399894029221,0.8421047717653938,0.8685037348727809,0.8851193298794122,0.9041388098197309,0.9236368648961131,0.9534853398982417,0.943880805385076,0.9589871511252914,0.9296041056650513,0.8874609165411096,0.8433346366243333,0.8556282973732312,0.8713660265840568,0.8766427814208031,0.9014601778354887,0.9013168769245476,0.8761340903902557,0.8519959318182719,0.7801095536355982,0.7260473397484102,0.75344695934026,0.7400236432693976,0.6360459052649556,0.5064077125830551,0.4607564935339026,0.5907737252229586,0.7283287947916568,0.8540166885429867,0.8919298465151408,0.8030872583558217,0.6906798407685573,0.6448124919988949,0.6129687148636611,0.5350023371836707,0.5027947543296394,0.5728145910030298,0.6542796335662544,0.7522324643489107,0.8455830615270434,0.8997785873071731,0.8950447870808516,0.842250811841315,0.7645958375074073,0.7128299430374012,0.7197024223025092,0.7430791471120992,0.7686205077738784,0.7761697476117506,0.800550441599901,0.7952401548610206,0.774738362490738,0.7740455629304979,0.7740455629304979,0.7745241019243672,0.7914094296295131,0.7778474607572416,0.7457687491985912,0.7051240559517025,0.6518719121613872,0.6619126679454714,0.6935857785747146,0.7087939930786362,0.709822472786855,0.7299486518049276,0.706075195778646,0.6447976311616976,0.6310243896171484,0.6265456611297147,0.5998202799642023,0.5728548683929038,0.5661591182506402,0.5838189391085571,0.6402412438509515,0.6780453578970507,0.6956404243042176,0.6848393578792082,0.6842199314476369,0.6958958736467951,0.6959968585797638,0.6991516874129253,0.7075948492145256,0.6743536650254232,0.6635371518494404,0.6588521778415508,0.6295030060776945,0.6015441892663125,0.60498103368763,0.6727524993322609,0.7571448294363892,0.7887427802391187,0.7302003323596473,0.6417100520773431,0.5508395322513211,0.46520743335607584,0.4087939754004015,0.4203517412714852,0.4906944009458316,0.5450518819128396,0.5440131996251321,0.6130223270485393,0.6538698308707254,0.5462616327253906,0.4014716938048517,0.26650662774146827,0.14289823177272698,0.1497288045173253,0.262589388351131,0.3913799823114319,0.5258574351497085,0.6315756626120264,0.623684309336026,0.6083809512801972,0.6755414462709686,0.7527267118904719,0.7950159840079918,0.8121456699338898,0.7945400123683122,0.7935206791473455,0.7846115819740209,0.7482227527439731,0.745327658592382,0.7729692610166365,0.8244761336408004,0.8560267750276314,0.8582485505134549,0.840190925923781,0.8252307912753141,0.8023612120081518,0.7825760827106993,0.7561084690094644,0.7307037415309319,0.71845032726314,0.6918847692791275,0.6661416531359672,0.663552434803151,0.6744357540494565,0.6977842851143281,0.723244987255943,0.7201950604781011,0.6738771339005662,0.6080450690158452,0.55058304175349,0.5644759699008164,0.6257720250477918,0.687862696505082,0.6973398839181293,0.701031682135433,0.5861493854171007,0.4504643442445744,0.29428570222480754,0.15824198547246304,0.02579143477037249,0.0,0.09978213417254977,0.22958416647802338,0.36294767630086877,0.4865906443210566,0.578761396888666,0.6279986901992132,0.630877380729852,0.6192983655340996,0.5991577781613753,0.6159903908536402,0.6876240208615707,0.7412101604879746,0.7285596609233673,0.7015735494181179,0.6662162380556973,0.6663658169822844,0.7031199183758234,0.7505543333840343,0.7609894855045125,0.7618327071312656,0.7828628736017693,0.7934824337329225,0.7866931995097666,0.7667580175060627,0.7903395142582958,0.7758871603634683,0.761222812112579,0.7610368866969877,0.7610281953991338,0.7558145664126483,0.7377333524874041,0.7592233800885948,0.7610298375327611,0.7564716515412178,0.7192765490132347,0.6937551015243342,0.6403548148623246,0.6584987954347428,0.7267606017007697,0.8209339542721459,0.8872643684620263,PM
0.7932548696733757,0.7037577267840072,0.5861164571783317,0.458812052644475,0.33208493875280887,0.2162524322348296,0.189160710953733,0.2937988750600713,0.39983723816771466,0.5067464693064152,0.6253361404567954,0.7399870306083414,0.849127254695897,0.9167667090648144,0.9172226168213675,0.8967712293530572,0.8992637721559524,0.8871546401850137,0.8893535483220165,0.866082970103633,0.8317343428867363,0.8397367534409734,0.8920351424332247,0.9057997120622878,0.9181969711523013,0.9093478710094955,0.9142134199346175,0.9022897849999292,0.9002810378481514,0.8885297810996176,0.8643376855861722,0.8333068837042981,0.8251606175101984,0.8212848263674766,0.802646051548662,0.8173553456120302,0.8677086572025421,0.9342178891682669,0.9835180402598396,0.9901785184334995,0.9748657154159832,0.9318021953078692,0.9183086871568285,0.8996668115720321,0.8802682514854543,0.8741131904806276,0.840754255510189,0.7754514103143895,0.6640111939934643,0.530914878916728,0.4112377660198212,0.28879587229178716,0.1686288548245649,0.1421019030603876,0.24696132484865307,0.3524181054397708,0.4619142628083104,0.5813885232065314,0.711358997405036,0.816497606826164,0.8876400176329997,0.900368031486654,0.900472560175094,0.900460731210766,0.8954212159893316,0.8557088503379933,0.8209912676192794,0.8222924004269063,0.8419490534439285,0.8574779191632618,0.863066186307123,0.8627665786452972,0.8676459262194016,0.8857316808909288,0.8960651507945729,0.9004425029918726,0.8964187725442572,0.8874259748907183,0.8703419588270642,0.851435976025416,0.8431646201200471,0.8231560296959608,0.8227933179865157,0.8812107356841863,0.9420881362392355,0.993794097284185,1.0000000000000004,0.9762216716287884,0.9388993428344716,0.9181981973361917,0.9006982686121892,0.8942897967821115,0.8833103777695723,0.8504237287635239,0.765986711299457,0.6581061419275724,0.54585014529754,0.4256470024064316,0.2956684384359263,0.20164817478839092,0.2548986340535375,0.3507104409529185,0.4679346931697377,0.6043984010246333,0.7130789493620839,0.8232699939939834,0.893135926480896,0.8876934908824086,0.8734501574740468,0.8593191514615355,0.8737441365671921,0.8651712750461864,0.8152270111770217,0.802480292526202,0.8314447396769666,0.8525847465477159,0.867556804732565,0.8806057700040806,0.8993606109536718,0.8934054256853092,0.8968629991569004,0.886666550732524,0.8855142206666362,0.8754383854782675,0.868700588812009,0.8563615087249228,0.8206146150969036,0.7700738675488839,0.7683110875644243,0.7837624938482111,0.7824703414031355,0.7872442047833927,0.7767058857920479,0.7780525968070857,0.77441287614714,0.7773545673044624,0.7651051258591424,0.7588569499392741,0.7175099860261853,0.6903709787292613,0.6967469014378769,0.736733263919001,0.7641974680504711,0.7648425540874526,0.7664727684023203,0.791178851009962,0.7760696999785996,0.6847336398542923,0.5791566979123925,0.45711584022671303,0.34048178704971077,0.2302916835970139,0.11072103678681566,0.04288330851426769,0.08258418400426448,0.17450839070502067,0.29083002843149064,0.4168044931891415,0.5467512485386488,0.6646356889580196,0.7529738045055985,0.7870786306256954,0.790043288369628,0.7990920577830329,0.8011119290515514,0.8273677621687301,0.8794459858110186,0.9082944291499149,0.8850675027582624,0.8215755747183304,0.7647041618565109,0.7230249255222563,0.7287460762710558,0.729812899493107,0.7459004911222613,0.769805180417372,0.7702375895245246,0.7807821410360076,0.7893787410887279,0.7741958625140728,0.7648495467443737,0.7565510926535484,0.7577448715154449,0.7645017616907874,0.745285410431475,0.7000327329242286,0.6958379531864511,0.7433709966131237,0.7786040256652567,0.801524679401433,0.7971014513475265,0.7899980634739756,0.7845763040155771,0.7238071953495555,0.6175152641778792,0.4951311046861009,0.38002882983312336,0.2611891840760405,0.142506390916604,0.042908470234462204,0.0,0.04672868376018524,0.17154015487343433,0.3034835351536178,0.426134721756537,0.5383302171327444,0.65523420939869,0.7420027539149943,0.7703088722513258,0.7808297050000772,0.7898577829000017,0.7931200343421136,0.8224330159056543,0.8458937803689,0.8849059396913952,0.8728735562439591,0.807419923904964,0.7463298582583158,0.7007143876246658,0.7056511242612422,0.7001131182976725,0.718668375946947,0.7382406664293248,0.7537158238248378,0.7808940210642015,0.7965847542677058,0.7976896988521696,0.7837194556513638,0.799763172924219,0.7930124969825836,0.7973340714059289,0.7803669654255105,0.7525486515189574,0.7228046373572705,0.6990663386250264,0.7483872220850203,0.7874348599031156,0.8008520434374886,0.7979911298654225,0.7915698737653503,0.8201966447180911,0.7976097079087592,0.7049646177824278,0.5883495046373044,0.4534599800057353,0.3466975923792641,0.23541401845277665,0.1227611244402671,0.04552874626547876,0.03389945438552022,0.1368838274384836,0.25381514768973057,0.37147501581054954,0.4872618928991339,0.6010394063881837,PM
