0,1,2,3,4,5,6,7,8,9,10,11,12,13,14,15,16,17,18,19,20,21,22,23,24,25,26,27,28,29,30,31,32,33,34,35,36,37,38,39,40,41,42,43,44,45,46,47,48,49,50,51,52,53,54,55,56,57,58,59,60,61,62,63,64,65,66,67,68,69,70,71,72,73,74,75,76,77,78,79,80,81,82,83,84,85,86,87,88,89,90,91,92,93,94,95,96,97,98,99,100,101,102,103,104,105,106,107,108,109,110,111,112,113,114,115,116,117,118,119,120,121,122,123,124,125,126,127,128,129,130,131,132,133,134,135,136,137,138,139,140,141,142,143,144,145,146,147,148,149,150,151,152,153,154,155,156,157,158,159,160,161,162,163,164,165,166,167,168,169,170,171,172,173,174,175,176,177,178,179,180,181,182,183,184,185,186,187,188,189,190,191,192,193,194,195,196,197,198,199,200,201,202,203,204,205,206,207,208,209,210,211,212,213,214,215,216,217,218,219,220,221,222,223,224,225,226,227,228,229,230,231,232,233,234,235,236,237,238,239,240,241,242,243,244,245,246,247,248,249,250,251,252,253,254,Target
0.09993283447867585,0.10342348717846894,0.13727461241250083,0.1909750159007233,0.2508362480230564,0.2783675849576661,0.2669958084397379,0.2573010906633093,0.2382261328521582,0.19615594698061578,0.14247243863364822,0.10372015767914666,0.055126345593659476,0.019919646615197184,0.0014043221385198201,0.0005876856718614043,0.01966579258042067,0.07392151829106064,0.11850530369701495,0.16236495823948172,0.20349117902626324,0.22361620678287064,0.2533839617174758,0.28074128325477865,0.2680215110234334,0.23613912842226759,0.19812326029358962,0.13999316728623867,0.07926302935546792,0.022690392334095755,0.002181752341325005,6.512633972999282e-06,0.0,0.002766784281264645,0.03051725325466048,0.022379145555629254,0.00902250182484643,0.04170933505223484,0.09371866096874859,0.12859103069144417,0.1465038864516619,0.12432882612336638,0.1594800202853186,0.18287389883306382,0.1898262619290021,0.21277156657309693,0.22690338820399214,0.24893218464201539,0.24330685807417707,0.24457714144515919,0.23169008042472683,0.18487540353547693,0.1741778188249521,0.20460986174699913,0.2572948906357553,0.307129459478217,0.3624004153838394,0.41950118348211474,0.46777767993534525,0.5279472170019255,0.5853057882779429,0.6334249553933073,0.6918624060334331,0.7374906210276237,0.7380640001199539,0.686693315641453,0.6355913607768264,0.5749822129699038,0.5170426101420222,0.4693317188423123,0.41061515014932937,0.36306680830944105,0.30462501014314025,0.2516015163237961,0.20822853748939174,0.18630885091897742,0.17143802338645964,0.17536817468731458,0.2079557502061098,0.22146401245630587,0.24269886768584126,0.23455327804281545,0.24218478200858673,0.2614662559982279,0.2670167046895582,0.2806211383432937,0.3054054892181015,0.33194507215154045,0.3486870307610639,0.3636742791758736,0.3970993891732202,0.4319269759814981,0.4444933244780347,0.42497684360094823,0.40002090066135354,0.37509060335614786,0.3516801495464046,0.3338132376444163,0.3330598230984063,0.3262671689799528,0.32354846246650526,0.3382042354095254,0.338689247710966,0.3445639091429391,0.34972988001920147,0.3510494107050768,0.3643991284725123,0.3714468816674037,0.3803494097115836,0.3674769568692695,0.3712142326494541,0.38380500915452975,0.39968151324483436,0.41427778148025984,0.4003160390860456,0.3867241653650031,0.4062721945646155,0.4024070916554372,0.3994574010370613,0.3877575690255286,0.36437387533412213,0.350658528751584,0.36608745414014354,0.3809644987997358,0.3685478268584079,0.37894645768140967,0.3940551874558973,0.4088954506580187,0.41623592176938295,0.40721578324761065,0.3848031459569117,0.35712494237049786,0.3630909334538166,0.40811608795483156,0.4551813045741473,0.5141454786017223,0.5666152052849163,0.6191212752931579,0.6797978838621916,0.7366847674574637,0.7851172297218012,0.8433839987664751,0.8748103182390983,0.8382474833333924,0.77780076884526,0.7227995381018366,0.6726868171750575,0.6122083486603311,0.5514677226479892,0.49208979922314233,0.4446403507871488,0.3911016529924365,0.3427944276502952,0.30602048703045304,0.3065195070801128,0.3220762008271705,0.34559443566493897,0.36353176809160725,0.382081318678944,0.38667301777837615,0.39469427036496674,0.39449262766760107,0.41586618861181,0.43073170425999807,0.446586969412865,0.4732216646236611,0.489310754246179,0.5225200990787329,0.5579064366840436,0.5942449695542984,0.6224762481106212,0.6218218924665622,0.6269818270509213,0.5933476724028073,0.5528763201239983,0.5201966988472657,0.49523259796815466,0.46050149642411276,0.4377074650167643,0.4203986829267663,0.4032747350179813,0.4080847516793611,0.40392321435494205,0.4255110813444496,0.41388716525228375,0.40045602993246465,0.3998086365620499,0.4094983725629935,0.4311432179906589,0.4289935451365108,0.40636840971987187,0.41352798213962183,0.43204561406906583,0.4366486077970566,0.44727341678898336,0.4230313398672232,0.42390392813882993,0.43292306508017564,0.4375944377540111,0.4472501237735864,0.42576349446341943,0.4207914267027868,0.43079182250934167,0.4100564742517614,0.4124812914228153,0.41710324382170727,0.4262375849948796,0.4186064154087523,0.44864337464096726,0.46803083331108297,0.4854321250190692,0.5084449609851203,0.5013955237802881,0.49732630148765855,0.47094214873080187,0.4519767800579224,0.4762792554537185,0.5296289141063304,0.5771631070678014,0.6366994501526029,0.6953022404621336,0.7428110172709785,0.8022546758785083,0.8577264023952171,0.9073753228524946,0.9676551090982564,1.0,0.9634834271636064,0.9051361999766696,0.8477881576135573,0.7996402504535607,0.7396051217573825,0.6859947597047813,0.634692445812814,0.5825709207875618,0.5307100581892619,0.4834935952230506,0.438954277307797,0.4059442674815621,0.40917249621957064,0.4317295043556846,0.42212871803400587,0.41913402504746333,0.4404315741144589,0.43899125825026797,0.44907701069927386,0.4422294418690971,0.4331411109266976,0.43540163092047734,0.44903106965898854,0.4690200259206039,0.49893972530695496,0.5219015419174684,0.5471645775665133,0.5371448113666966,PM
0.8878811932120743,0.8804295754918183,0.8702658207713367,0.8700379267833724,0.8775475957294614,0.8845960037046556,0.8771896931333247,0.8754633009146937,0.8698694956411346,0.8432399654406886,0.8152767886010432,0.7854504874518822,0.7679850342361496,0.7553309722542505,0.7820553848144509,0.8220409607403469,0.8577279801157969,0.8818173643617169,0.8699046442193159,0.8237226906730977,0.7625188872233981,0.707404103971492,0.6526770439308287,0.5907026418656594,0.5374853650622631,0.48213478991231296,0.4315186301183236,0.37123186408728603,0.3096705490188276,0.25878692962054184,0.20056143065027454,0.1498909807969937,0.0898058771529322,0.03592468399793969,0.0,0.027792556970861026,0.07909933660912016,0.14092757014996726,0.20317733453349418,0.26503131855810036,0.3149715014050942,0.3516717527527693,0.40765661702780265,0.46987885078845637,0.532052858094185,0.5871970508316553,0.6417059241059666,0.6952488997817847,0.7419619828615416,0.7889225714411217,0.8423589865157834,0.8862200189668694,0.9301173547118455,0.9569283302544116,0.9709315082683043,0.9618282042948734,0.957803278600083,0.9446998314933526,0.9266197240710274,0.9009659348402914,0.8614200291331728,0.823958254537698,0.777046061108366,0.7346761012540075,0.6901465867302565,0.648322529345265,0.6068217541829231,0.5689053276707183,0.5478875847760143,0.5613866852285565,0.5951178304640978,0.6355473516341907,0.682059813531376,0.7252657856780467,0.7708730910132029,0.8123353322590112,0.8494757290707604,0.8809659455820189,0.8964943436860782,0.908712081287278,0.9144466426269602,0.9118536501546688,0.902280040547988,0.9061963763532599,0.8992015151528319,0.8884334876838251,0.8951099383021079,0.9067168714524507,0.9042750910084518,0.9050043694050711,0.9142600772496119,0.9144797255345269,0.9158739483692091,0.9163379471219348,0.89364105671024,0.8684518387307512,0.8384790534101614,0.8256487580091247,0.8260956513941478,0.8431653747751342,0.8792133089438667,0.9119448209755869,0.9256653188932977,0.8942787813135455,0.8416165538671583,0.7870629552804227,0.725613747897438,0.6747129409384593,0.615349613374385,0.5599295686867116,0.5055214273353397,0.44813501566780656,0.39569467034580064,0.3340592591024434,0.28161875584323637,0.22459104129764174,0.17319141168091212,0.11527922804667279,0.07547402922906965,0.09486437373980605,0.15414829425484755,0.2050252323025905,0.26467252161484023,0.32691985026314385,0.389165581878788,0.4490457506799179,0.4998034367289208,0.5610698059096941,0.6233005194383041,0.6812177180569627,0.7331477155564212,0.7858979900366945,0.8317690720570619,0.8756654678387596,0.9199887421633666,0.9645342777755033,0.9900278373140374,0.9945086015429532,0.9922658902873691,0.9999999999999998,0.985461255416187,0.9595035200080477,0.934341183424974,0.9036277045631522,0.86432459889988,0.822731368408242,0.7751876325578408,0.7273524053684419,0.6876083205510322,0.6471486707702605,0.6098469144342731,0.572646206273131,0.5480997011213466,0.5649273323275439,0.5981393504019816,0.6429413151040795,0.6845485641981826,0.7260379373879118,0.7695113341795425,0.8136298951802312,0.8508079930557371,0.8856299889108505,0.9002932075593078,0.9174642839358136,0.9170262832628604,0.904976258395785,0.8961123954217871,0.8848343168702792,0.8728134558143432,0.8580799937243244,0.8552184084682477,0.8630546009210727,0.8750465198693431,0.8845417286908301,0.8880085249139757,0.898013734100074,0.8836753496665104,0.8618513681038242,0.8421785502595969,0.8544290264419916,0.8892424214496388,0.9038493989153429,0.9162495910269788,0.9143311036824062,0.8740185455129781,0.8375824913233407,0.7819095193960528,0.7306814538337967,0.6691666372197818,0.6116171407262205,0.5592457963157795,0.5032732473377644,0.4496541960229965,0.3881247091313478,0.33666878645270515,0.2787363318909193,0.2279261393018166,0.16837700799437894,0.11330907410431501,0.06130886828115201,0.048810118685637116,0.09103632760873981,0.15141078039588352,0.213659053512947,0.2756427878642149,0.3283102552143895,0.38558029868183996,0.4478090091594973,0.510058415639074,0.5713500258077306,0.6220301875691503,0.6805195014924135,0.7304423816893431,0.7780586504549161,0.822712491479807,0.8712983638452105,0.9170434912703362,0.9464965737535926,0.9665481949265906,0.9647159555813285,0.9457443949886313,0.9481654678781195,0.9345739851460253,0.9149937768960352,0.8863608226444633,0.8492053053520501,0.8120054864043007,0.7657846098016419,0.7173406453728128,0.673330957079407,0.6360078480522862,0.5954042571624154,0.5583189936538451,0.5215946150457655,0.502083445951419,0.5282363799743754,0.5696914512088072,0.6157448219567276,0.6619297045333778,0.7038295145239954,0.7455417814101273,0.7911545113692655,0.8311856446157428,0.8712594503139945,0.8867864349842309,0.9009376229431882,0.9135796266183782,0.9121020381714235,0.8947241830609116,0.8845872722759138,0.8744453107427981,0.8790864787372541,0.8773578357069975,0.8829652399580425,0.8847787159084415,PM
0.5391477061027015,0.5391477061027015,0.5391477061027015,0.5390370198805972,0.5105224321972557,0.481540269166139,0.48334228454766404,0.5290851796333573,0.5390276756114538,0.509578950087862,0.5139857583797447,0.5390276756114538,0.5265622459222712,0.4818816230011489,0.48141959493443487,0.4898171899144561,0.5301776122277868,0.48568494441219023,0.5208225381698721,0.5376730810119241,0.49551631902641446,0.4814205404417553,0.48141836344032995,0.4826985197259095,0.5279538473032108,0.5216930001598783,0.48174181318574405,0.48141783086290424,0.47646477773593965,0.4286802919183703,0.423689201708374,0.42368902077795845,0.4240415219135887,0.4649854293504916,0.481366715878897,0.48142127583633787,0.502753256153218,0.5711468955057022,0.5712695831773296,0.5028670577842913,0.48142128750926894,0.48141836344032995,0.48141836344032995,0.48141836344032995,0.48134068308363887,0.4607366050132846,0.4134985297112852,0.36505252797543264,0.3156451918049452,0.30823126345113927,0.3082777969916002,0.33274448149503044,0.3748595565176256,0.42178328232547635,0.4545846614246951,0.48131511515972747,0.48141836344032995,0.4818616501703765,0.5258684391517203,0.5390276756114538,0.5151138548838574,0.48188732316610405,0.5198172634896423,0.5433849458012698,0.5883741153610966,0.5471796625330558,0.5261105060460594,0.4619761258364754,0.4139001962174511,0.34883606431991865,0.25146387589392205,0.18083969876755823,0.06736033598858704,0.09519358727325056,0.23186429813577192,0.3279020043395082,0.4525899989162294,0.5915568936569713,0.7305585602145186,0.8601792774167016,0.9490370877430045,1.0,0.9718441508638147,0.8419424432287776,0.7030561530487613,0.602542668752374,0.5555980255122179,0.5414148660133318,0.5873821823807237,0.5967514364210498,0.566074719190393,0.523119979732563,0.49834158894356406,0.5379085195656081,0.5189213454947197,0.4802782486549013,0.4352374501065217,0.3469194577800412,0.31534633280726787,0.3632620171870844,0.39002545295960545,0.43239275860915427,0.4793170013766872,0.4813330306520509,0.46057328804600317,0.4710730201084363,0.4812983329490841,0.4525691176965161,0.4238072950799907,0.42368902077795845,0.42368902077795845,0.42368902077795845,0.42368902077795845,0.4236884327541173,0.4175376310437606,0.3765481166992384,0.4207613285542937,0.42368827662867936,0.4212079935056554,0.37379091162244826,0.3640045385612929,0.3178690546103198,0.3314573749081742,0.3485281426563027,0.3011548648210365,0.2540153916931054,0.2518568861142736,0.29722170884221377,0.3082186668273543,0.30823033545321366,0.30823033545321366,0.3099649139659153,0.3555833899602163,0.37556388865265156,0.42169000981760796,0.40845430364782054,0.3663466777770914,0.36595967811558516,0.36595967811558516,0.3647178528009558,0.3216052189212668,0.25859967845319254,0.2486241013135455,0.20264803608449178,0.19742379133690946,0.24498225084491843,0.26773399527259834,0.30713396953014005,0.3082632712964948,0.3320688640497256,0.40076310406032967,0.42360390247976554,0.42368902077795845,0.42374011374012177,0.4483642288269998,0.4633126870226292,0.42400339196393233,0.42368902077795845,0.42368902077795845,0.42362296220486506,0.40530009955418755,0.35739148637136253,0.30854848752992226,0.2529405156029263,0.18466565333075557,0.11342804354566383,0.0,0.047452332961398724,0.13862331131408112,0.27529092747177053,0.4142938532466296,0.5532970547944593,0.6919023624094471,0.7884302157481535,0.9123027968447772,0.9981126465180292,0.988669210274665,0.882810070542055,0.7917044575710648,0.6620610655782269,0.5744748786101255,0.49398518533639013,0.4343122109167794,0.4794185106991815,0.4890981111985546,0.5366029057679,0.5271295806243455,0.4821676381983959,0.4723650104554231,0.4261248873343977,0.39907148468238773,0.35349841594616827,0.30869929517898775,0.3302792913014603,0.36572866096484624,0.40839140685810627,0.4239455863915822,0.46315630240995276,0.4813528946358403,0.4788368365539739,0.4342774593616099,0.4733120619408666,0.4814176849512801,0.48141836344032995,0.48141836344032995,0.48041133050752904,0.4418206114373522,0.43745352099083057,0.4783323016914558,0.43543522974677806,0.4238564354589869,0.4553900548410166,0.45750895475000597,0.42415798050373077,0.4618639489889027,0.4812983329490841,0.4656161627782627,0.4240596790324691,0.42368902077795845,0.4237019837904672,0.44607393438375986,0.48073566803012824,0.45536876567615003,0.4238526878771989,0.423688975545355,0.42223532289379406,0.37960969002492995,0.3659618084252898,0.36587688417411357,0.3441028366115404,0.3330858158818337,0.3656003093622626,0.3659606411323004,0.373488140024099,0.4211186605153827,0.42368868372210855,0.42368902077795845,0.42368902077795845,0.42368902077795845,0.42368902077795845,0.42368858450220515,0.4207382555347916,0.36276881733901156,0.31043676780513074,0.28296447716143014,0.2487770070377735,0.20257222317259327,0.19277331352097882,0.19316772834941887,0.23558258350456285,0.2573471777900327,0.31766433754624046,0.36458582875987133,0.40144686109645633,0.42360461189590204,PM
0.33152235440890987,0.332231154343849,0.36390507813912176,0.42154709052109984,0.5006649447883764,0.5796261517721812,0.6251809083383937,0.6477296880356094,0.6693106407748757,0.6884214087177907,0.7149203408805369,0.7280010557093521,0.7491187817650204,0.7524444966220698,0.7547416973851395,0.776252374144065,0.7812996657377336,0.796926860096701,0.7793784482170483,0.7874323570593664,0.7814740830876006,0.7787577878980936,0.7827285104301009,0.7954175596315349,0.791540078260319,0.8049762173299082,0.8050604069900653,0.804437493614707,0.781105993300208,0.7335831412964828,0.7059697592855039,0.7018050568348628,0.7179245948268664,0.6875734537638212,0.6823714030371657,0.7200638119830001,0.7711608735184456,0.8153815114319953,0.8559724476102288,0.8679282968285942,0.8945710335524075,0.9139585960799725,0.935087138921681,0.9074248731425114,0.8477389784411646,0.7885062871470825,0.7592759854500808,0.7187823049179127,0.6596401225873119,0.5860712651891835,0.505825882022013,0.430303149622977,0.3703432341256767,0.2913383734056212,0.2110744621125722,0.1308102736428043,0.05176934070156447,0.0009757495243309933,0.0,0.049605819768587356,0.12499168466637567,0.18369716428975424,0.26275424053501606,0.33838514666861075,0.39798040412678093,0.47187823099409876,0.5318869941862778,0.5971945855344756,0.659025716911207,0.718261859042904,0.7749608082899537,0.8302746146183089,0.8905642223710042,0.9420538897478905,0.9801942495926865,0.9980975781685726,0.9999999999999996,0.9879601287773174,0.9657277820001888,0.9462953033145625,0.9288810547543869,0.9084736962841302,0.8860409844277508,0.8659269672193575,0.8571956506908252,0.8388909188500828,0.8313865671700573,0.8275133418302727,0.8084601119110384,0.8276595250959216,0.8386934493979976,0.857449837027263,0.8745295702795723,0.8828759920837039,0.8644165907626928,0.881939854483837,0.8934929005162551,0.9088032904026426,0.8868768325157901,0.883984363272567,0.8839834200740913,0.8839900961586697,0.8885398036707035,0.9092676123242343,0.9104604193130466,0.9205420686186314,0.9084117154637812,0.8856736639305782,0.8714075970130257,0.8321462338269341,0.7856967240500876,0.777787097583134,0.7518568882236987,0.7129294717680827,0.7025009128530919,0.7338576280140097,0.7744421971543765,0.8260406018086512,0.8700682202126644,0.9096115886483651,0.931416288075368,0.9571861459727438,0.9624772823968475,0.9410747459157647,0.8798507197339203,0.8110477565456811,0.779863616485319,0.7466594883385427,0.6890231197006904,0.6103316529164649,0.5310030600975408,0.47105123018487305,0.39583819817196453,0.3155862531258311,0.2413108345618733,0.1806798774586329,0.10121185311239156,0.038687537480696754,0.019701206145479322,0.0566104018580007,0.1305057027670098,0.19876279909379946,0.26491287429149857,0.34507757911223225,0.41978878928789465,0.47866203857815126,0.537272266384329,0.5985153910452756,0.6605202977569902,0.7200319948847844,0.7782197151597514,0.836455114843917,0.8770692405520486,0.908335653264619,0.92866541145681,0.9353078574961828,0.9133922315266321,0.9101367639850424,0.8934932275449019,0.8837297642212225,0.8664329949628846,0.8486992717868733,0.8222475741636974,0.8053299446045563,0.7946420195773771,0.7790202148849912,0.774749433110602,0.7543064825103829,0.7683935405925051,0.7969086145433288,0.8286221736320125,0.8488253865284698,0.874132122455213,0.8605319259262951,0.8377501746945719,0.8588397013572568,0.8855418294091053,0.9017551352588034,0.8843935938409575,0.8817996076191617,0.860119130675193,0.8576767660254112,0.8588852012520314,0.8758502341086847,0.861073037145593,0.8799075038074178,0.8947579133763992,0.8810978321196763,0.8582208294075033,0.8366566834658058,0.817878058388223,0.799617616732379,0.7652079002509233,0.7529601906964332,0.7810907707799974,0.8269854180460574,0.8592571071950048,0.8659893176567146,0.8615896583558951,0.8945247641455691,0.9101970228929983,0.9069908900860564,0.863911564851946,0.8035651874407121,0.7489972090613022,0.7263476701345319,0.7093238014335879,0.6372436161881789,0.5569945442965465,0.4767303558267799,0.39646914252006393,0.3217920466193873,0.26264084408561805,0.2275531280845704,0.25530241488553074,0.31155848399415653,0.3898316437561582,0.4470432848491983,0.49555013530541636,0.5524532595628666,0.611533982881356,0.6734692811319598,0.7269985397362837,0.7806303889302497,0.8420477084312297,0.8815217624380787,0.9064763575090757,0.9094229334915345,0.8897407479447641,0.9006995964583058,0.9092007075211597,0.8872223290794374,0.8616782096186033,0.8563232477903244,0.8187262259573473,0.7887026538055237,0.7627381522402703,0.7648157666048099,0.7528275743100008,0.7524452783002995,0.7535481374039272,0.7736707500499933,0.7801079502778516,0.8020128028444415,0.8273368906493617,0.8463279514677366,0.8576220819546285,0.8576757490460829,0.8576757490460829,0.8576757490460829,0.8576757490460829,0.8576765845643943,0.8603050129673497,0.8820918133010918,0.8684420919285043,PM
0.7845774156044056,0.7724791772588278,0.7655729252094146,0.783724562825924,0.7840833094439885,0.7672766596152436,0.7780966864295236,0.7833206588116814,0.7619615670606721,0.7374516839454861,0.7001339090866696,0.6675718996674043,0.6791206375500001,0.669211294245867,0.6950192503626704,0.7304850745323748,0.7599172095148039,0.7606814245891451,0.760789896834908,0.7772815381975811,0.7960592270008231,0.802775736071712,0.8086910940535339,0.8087037675141158,0.8087037675141158,0.8081511921126037,0.7843696372896329,0.7240493193125479,0.6863044946756447,0.6751968232258214,0.6954288906283654,0.7323302762445376,0.7675246196601861,0.8055116154679283,0.8106631753755216,0.8367207052908512,0.8352234239627974,0.8335470090132642,0.8696187631098304,0.9362805208727902,1.0,0.9644078615275706,0.8815379477114309,0.7996097696352846,0.7353513971645809,0.6552631015104158,0.5718406231459507,0.48863017545635046,0.41939735607238227,0.3455011742893195,0.26214528698516615,0.18318343465524212,0.1409179760420769,0.1502791548545197,0.19099076775321056,0.26362319778648047,0.3294216576580471,0.412142792556244,0.49556984320629116,0.578956599590553,0.6509941514736903,0.6818015026750759,0.7421500596600583,0.7943475137218692,0.8284899392853688,0.8326508619022617,0.8221808059649729,0.8259607521795362,0.8281035980041862,0.8104912496664602,0.8235673723302321,0.8097417446399162,0.7976541816091225,0.7588938142014352,0.7322999180427741,0.6816724767165669,0.6664915066728128,0.6934462352368569,0.6965465327356499,0.691685962901968,0.7268992044665983,0.7673008858674422,0.783740579410475,0.7667068766952685,0.7710085387062526,0.7733239464218662,0.7608019334608005,0.7606621372534583,0.7537031465730153,0.7436603922112854,0.7514401691700869,0.7157193370778807,0.7123239372216439,0.6921884184939522,0.6598479562047221,0.6536618037533062,0.6884117320594632,0.7140031913369413,0.7414829411886972,0.7764709970566313,0.7956845887602317,0.7956723320844663,0.8091552024698032,0.8317906358331495,0.8810064299601388,0.8587600781951279,0.7766415869660226,0.693214740852397,0.6097876902023489,0.5263947419682236,0.45311907792580985,0.38332318174486035,0.3000906590646455,0.21666360841459742,0.13338335042368943,0.0630262047895096,0.011160378994653275,0.01092513518058258,0.0568489484049004,0.13409575839305754,0.21750882222023282,0.2982412476825078,0.3622601292316272,0.44378147783924593,0.5259197622806955,0.5702502731692802,0.618607919461422,0.6826954029472834,0.764860959027454,0.8390879930329387,0.8408954517761442,0.8118173851112216,0.8336835339168287,0.8564340574928933,0.8505806452571365,0.8333664761937234,0.8334162349395635,0.8501039714333167,0.8377800252451406,0.816413862251093,0.7784958313571684,0.7601766425810692,0.7432241584691033,0.7541450530718463,0.767740874431738,0.7843503213783132,0.791467346857722,0.8119543180470483,0.831402014337927,0.8327148319617654,0.8327151210744272,0.8335039952987406,0.8504719980978805,0.8374588642684611,0.8410299582551302,0.8320233718116992,0.7947911639380507,0.7519003391436749,0.7073327578634592,0.69679693283629,0.7136862256799663,0.7408304062152493,0.7821808158868064,0.8075882417382436,0.8127124327074018,0.8315192774183364,0.8328567356495382,0.8547464232852011,0.9088651208895406,0.874366172731122,0.7918017437455398,0.7085373341487085,0.6382008287823693,0.565443818056587,0.4821047548959547,0.3986781909908088,0.3169429587888013,0.2527982430266458,0.17242963075077,0.09808504812837926,0.07453966918429966,0.12087673444717728,0.183659471268649,0.2629926779579619,0.3464180957687364,0.4298451464187818,0.5131988748879088,0.5827481174384177,0.6081549334145389,0.6645837085138355,0.7259632988660485,0.768994740843771,0.7928073656834589,0.7798602658435883,0.7667598357591792,0.7821633895643529,0.7551992719365268,0.7519254648848261,0.7575925103192693,0.7382208483327419,0.7208821036711872,0.6895637484183159,0.6653878732171572,0.6534836098178869,0.6311455548411233,0.5977023290243841,0.6248801955991823,0.6596538317116498,0.6654569964490413,0.683690927197182,0.6975975631653064,0.7017649445397938,0.6695561968949622,0.6649992231538739,0.6782917653814433,0.6675618171419235,0.6675294616113057,0.6783567184464587,0.663167205823306,0.6256172672270992,0.5777202444805094,0.5377349967541005,0.5267745147921095,0.5277364760412491,0.550820067103408,0.5986109585744757,0.6457011608033776,0.6736871109478493,0.7012130268679115,0.7125995174007871,0.7186326488452837,0.7456744663499584,0.7863765622553895,0.7587487898245526,0.6868116121609322,0.6035767573700981,0.5345677346245585,0.48278907547805217,0.4041837099988639,0.3399400516251472,0.2583767462423525,0.1749511290732939,0.09399281936541382,0.03498773559771129,0.0,0.03779825183288077,0.1163845419378795,0.19980870766250147,0.2832260851028958,0.36064869177088177,0.42668803430637725,0.5090769585374866,0.56799664076881,0.6048308221458596,0.6587026477551317,PM
0.0,0.0013444853672321955,0.05204872310383024,0.14324994966030768,0.2648255877102539,0.3418461710994043,0.4264256389014047,0.4939415510107681,0.4893869025154798,0.5556504644069546,0.6357969380010049,0.6960005251748695,0.7609564655376158,0.7432701568036038,0.7785023569138678,0.8132218599153314,0.8150038370746788,0.8150038370746788,0.8138892908201525,0.7761939689978226,0.7045652780125966,0.730619483515313,0.764952599516123,0.748819076475792,0.7738941955708247,0.7789299592905223,0.8129457745187851,0.8163638389027996,0.8471389248314853,0.856021722563499,0.8771160987937492,0.8963929226338516,0.8965042282249973,0.8964994648010958,0.8882301191504274,0.8264548694671756,0.7429965238614678,0.6694178849598664,0.6265215739998595,0.5731541187074001,0.5304344837647292,0.537482959629001,0.5981193266796314,0.6817120657893163,0.7654145350250321,0.8411863581729078,0.9196002212238374,0.9732727864459454,0.9448390847457988,0.8299185837707865,0.7381436182763741,0.6178183021471924,0.5046768721113084,0.4205230681691319,0.3369724009767916,0.24301635587783021,0.1744444658730515,0.17609685557314947,0.25251113233564926,0.36135066068407085,0.46774453816310135,0.4323645695527727,0.4265823545620995,0.5065033373943191,0.5901743457727608,0.6750266955860846,0.7651366056304054,0.8150667556525981,0.8841347019532684,0.9298409869794257,0.8990941889469006,0.8892024899758502,0.85825912755032,0.880764276110499,0.8528469916630081,0.8160546455111914,0.8044197913299946,0.7749193749676238,0.7578676984603341,0.6928472316099938,0.6403162263813664,0.6062307669393574,0.5737083686521061,0.5940224604457818,0.5919891510370023,0.6002291976024878,0.6618816805322671,0.7352726636297255,0.8076735191341777,0.8585335309481321,0.9115949017613385,0.9438815361482629,0.9913270216759607,0.9832128625607188,0.9954094834634892,0.9999999999999991,0.9873320754276165,0.9703956760560448,0.939077167390538,0.9372486928057748,0.927706238968363,0.912456091385538,0.9115588313196827,0.8961153522468743,0.8692909621143228,0.8634941144543582,0.8952982488222156,0.918434299768041,0.9371469304370388,0.9301160194265519,0.8985583426965098,0.8965047120102367,0.8965042282249973,0.8971800820505917,0.9242023349845079,0.8891836477654547,0.826460242704294,0.7740567271717405,0.7213172931442546,0.6426768603238555,0.5506700080199138,0.473726385914385,0.4517492873400837,0.496958704975194,0.5695074786644589,0.6433335531098168,0.7343979155852765,0.8096299324421095,0.8911023042562567,0.9668252439400007,0.9731349900391955,0.9064281813626947,0.8066990304696322,0.6828773114204472,0.587390571769566,0.47156076602053876,0.3462827578134666,0.242640308438701,0.14545380732381563,0.07664384080558584,0.017020752969367337,0.03805544380437276,0.1363235613564555,0.23073927697460395,0.34743242893399007,0.43962479729821524,0.4610209010740487,0.536803957458047,0.6202908364477056,0.7007404501426189,0.7738009894634814,0.8289201544907732,0.8554716128668716,0.8554716128668733,0.8293910616553068,0.8144527134829627,0.7869123986529241,0.7691223685958377,0.735408108559092,0.6963433549814004,0.6542678295351161,0.6302132838064134,0.5697602727804272,0.5219251235193507,0.4664829195668938,0.44831609421268315,0.4368212205831101,0.41449004907901,0.46707325521834075,0.5417036345176651,0.6002447256167605,0.660586923770297,0.7177791063369412,0.7718054471749944,0.8101601452365133,0.8150020507907163,0.8150038370746788,0.814815706384052,0.7899936448048939,0.791125256134448,0.8143118794036583,0.7872923917416657,0.7591659458397162,0.7343051941739089,0.7585955027273581,0.8076096065288221,0.7830272916520897,0.7748135732871511,0.8012957616347638,0.815019648665567,0.8298464834956807,0.8302703968430487,0.8150563288915835,0.8150038370746788,0.8150200332747053,0.8233487196528735,0.8532462193202397,0.8063131180797143,0.7231345681964898,0.651743900277947,0.571603522435348,0.5072303902492745,0.4550244095112612,0.4779101104090966,0.5053299252080379,0.5483108818578817,0.6277060538481614,0.7185365295010451,0.7955605398519783,0.8584380812491172,0.9182652079072549,0.9095318121265219,0.8162059883585746,0.7110579897018381,0.5860128381383634,0.484045403151276,0.37563676820542735,0.26169012165291594,0.16490963465646935,0.04482088276359075,0.000603248430964598,0.011320756435963197,0.10563035362606055,0.19887731056443325,0.3150401923246129,0.40766715970526857,0.5108461168689935,0.5344094428672159,0.6017192884314229,0.6846817602104114,0.7537957706890968,0.813094962810637,0.8299088841379509,0.8183041412020424,0.8149205739100793,0.7975039447141734,0.7560844426561655,0.732350360355035,0.7005206601841678,0.6690411159281755,0.617415169298229,0.5849442079541358,0.5343971205363252,0.5173485704849021,0.4589199316140613,0.4068126811758628,0.3547067081685835,0.32882616064977643,0.3606633801001031,0.3911488878947189,0.44806745873770115,0.5542512728105464,0.6214827786989172,0.6842889953157538,0.744049942645824,PM
0.911954069222989,0.8956257792953186,0.8722582255710811,0.857121877908068,0.8817963044775439,0.9228456191945096,0.9560270819402399,0.977039604390235,0.9992150373980475,0.9749735653418765,0.9168934008785956,0.8584865414566423,0.8068523905274845,0.750413849175954,0.6915276786949778,0.6346958077009275,0.5833014909079148,0.5250523309456896,0.4661501946845741,0.4072485809402906,0.3492735488736636,0.29812148029116026,0.2407753224612268,0.1818760580386628,0.1229883800240813,0.06681917505053891,0.017314555588483382,0.0,0.03937722902580065,0.08994106262136226,0.1476682770741451,0.206559968281667,0.2631479642822505,0.3146752322016646,0.3730385919425927,0.4319409341729472,0.4908362812375544,0.5477219790933812,0.597677195957913,0.6331674971683432,0.6504941498151862,0.689867568697949,0.7364877954281037,0.7898633770178083,0.8409865670512116,0.8925624987972034,0.937106673622482,0.970397629485128,0.9710856518941737,0.9557677838888283,0.9391621549349483,0.9088126707663726,0.8652076521106757,0.8262516637878485,0.7854168037572125,0.7497420931544865,0.7444211913807242,0.7747927669627137,0.812063997881753,0.8503466760326364,0.8841606282681582,0.9127647829988672,0.9302059916724907,0.9308204876767407,0.935107768777192,0.9473270934011306,0.9383323604265688,0.938862894684058,0.926464151087437,0.9010005965588206,0.8836273738508484,0.8743417434271232,0.8927032921951394,0.9308389140479509,0.9675265296888229,0.98775690825861,1.0,0.9620243048747943,0.9046127489356246,0.8479917665989185,0.7964785873645985,0.7381375649998061,0.6792353420263606,0.6203327772721869,0.5614302125180128,0.5025276477638387,0.4436254226116032,0.3853012396074238,0.33387016639677913,0.27714766121204804,0.2182535388600162,0.15958479787208402,0.10713990222518066,0.056412592069391976,0.04279158746999945,0.08583115349835613,0.13881812979524122,0.19326035335693226,0.25210140620161425,0.3109927270927655,0.367326650189959,0.41903561922593635,0.47747313992220053,0.5363724678988948,0.5929252698913916,0.630348354922007,0.6824108233736668,0.7404377557942259,0.7915926002386615,0.8465395174264287,0.8960693955307304,0.9454296993724476,0.9746272618298011,0.979526392176767,0.9640348705903263,0.9458552311428026,0.9171112368775804,0.8812751727076313,0.8397440760804955,0.7960916096363251,0.7575941511488489,0.7359241242861421,0.7567929353339204,0.7925358861050733,0.8314901647387354,0.8653185056327277,0.9007300976308086,0.9199040735194053,0.92655506329275,0.9283827520696726,0.9415321691764051,0.9453968131517334,0.9351324840073576,0.9159283009371049,0.8856108916804264,0.8582727000389752,0.8353651862748235,0.8283529351682555,0.8603987543690976,0.9038694805537775,0.9397729750663397,0.9675862447155623,0.9723130266897404,0.9255437090099583,0.8690055281254323,0.8175295032293439,0.7592614021729103,0.7043596932660863,0.6514686032230954,0.5927485282215947,0.5338909198929176,0.4790079999069323,0.4260997810122764,0.3673769569078178,0.30847447769174985,0.24985368295674482,0.1976662628021506,0.14722232123469792,0.1392528382344549,0.18981740748115106,0.2428141597624467,0.2975629751542408,0.3563922061611575,0.4121470640477789,0.46428566676479366,0.5228846431618532,0.5817869144935297,0.6402599890620118,0.6919905530014014,0.7463893809999274,0.7901821687806061,0.8407171190372433,0.889808305860099,0.9351758836695401,0.9646434690669532,0.9734604039724783,0.9582136417933145,0.9381667718442699,0.9042883375191595,0.8714941114355927,0.835346868757364,0.7997789417193326,0.7617331008046562,0.7422244308140118,0.7619181490806775,0.7998686035212572,0.8341798828915434,0.8714325063207535,0.8940788190656972,0.9035045401921296,0.9133842676626376,0.926942037268494,0.9274387875500476,0.9062333229481039,0.8907334230468955,0.8641079225624861,0.8356112055812439,0.8085776347307285,0.7958340834615125,0.8249478829761283,0.8685038139359254,0.9137829681660457,0.9370817706653283,0.9514039375637318,0.971040553332208,0.9287158958534796,0.8732052131559813,0.8210551648470679,0.7624697910490066,0.7035672808409685,0.6446647160867942,0.5858895388131324,0.5324945704617541,0.47812823873164856,0.41929314419505737,0.360431910814784,0.30545320414478816,0.2528708929358485,0.20794932260782417,0.21785571373381152,0.27077607875379983,0.3225779679737073,0.3787150724289805,0.4373978172927806,0.4901585786197993,0.54520721670097,0.6040713330148992,0.6629019871749338,0.7171932451512595,0.7706595671405705,0.8287926946784314,0.8780233263092616,0.9222549927795707,0.9619380437117897,0.9705840134577166,0.9666193343161376,0.9524467299216928,0.9276117215261357,0.8989686835018813,0.8626877178027097,0.8210022692988947,0.7885714726877715,0.7746785871015796,0.7866530627575599,0.8281470165343887,0.8606032527008225,0.8937335766580925,0.9164593809665436,0.9177679760747659,0.9280148916841373,0.9340472273418183,0.9425683351140608,0.93829657350663,0.9240877469188042,0.9117426046329689,PM
0.9425685770726684,0.9362923936704548,0.95315315262601,0.951791082820789,0.9418088817896266,0.9376378938209151,0.9490749986250688,0.9437475536108484,0.9493885544855671,0.9434003014938832,0.9429704154381757,0.937733816636678,0.9211233885649852,0.8966966285495701,0.8862070859066566,0.8871940473105266,0.883518509695246,0.9025398627716661,0.9244892005046084,0.9509579708035849,0.9687502657845584,0.9717564419200526,0.9843303816766289,0.9926079437545647,0.9523287595257868,0.9092929111642367,0.8577732949355594,0.8058965301375101,0.7627100763802188,0.7116161775671401,0.6587507412708495,0.6061641921421845,0.5615524925194866,0.5125754831358416,0.45972768139156805,0.40686849304534056,0.3570659703411718,0.31311258845947454,0.2607046215122868,0.2078451743706149,0.15801572462081048,0.11408093678013365,0.062305072258473704,0.02282668557738332,0.019069240075026972,0.058510013517292014,0.10310262583175978,0.15176665435268077,0.2046149732902376,0.25748276182329155,0.3103420943889674,0.35984079805525515,0.3943749455203016,0.43215679879263025,0.4812613510157333,0.5152899411929728,0.5646176582682285,0.6017999563992786,0.6381093959336466,0.6865961391121824,0.7392820966325127,0.7849552082421898,0.8324885048876254,0.8768019519851773,0.9194110929741992,0.9617739512211902,0.992541451681626,1.0,0.9946313901468415,0.9980415546301651,0.9911028224758076,0.9810233574397955,0.9720488296345642,0.9612295599604552,0.9390060572424632,0.9222157440710341,0.9011426294652405,0.8745236926882831,0.8470787845222352,0.83342068254482,0.8327908641216761,0.8518037182653193,0.8788309338838451,0.9045979634514003,0.9168497131052491,0.9252572466900579,0.9299583618282465,0.9205863374535248,0.9181433297972506,0.9223933704838654,0.9303441122302747,0.9305586105791295,0.9310938683194059,0.936979551045507,0.9353069113495662,0.9329506775778209,0.9340674813564314,0.936743818053448,0.9329263700029671,0.9348793824141071,0.9231450250459634,0.931501752380107,0.9334563157444768,0.930567846235256,0.9320919306554023,0.9386560735427989,0.9303250962627643,0.9106782984450268,0.8839053829056329,0.8877467251971245,0.8979517302257731,0.9094108713245954,0.9292012467448729,0.9490674564579988,0.9745920311218321,0.9803954490240412,0.9876256441916262,0.9851702456212559,0.9450160938905654,0.8954025242769212,0.8425431917112456,0.7896754031781914,0.7368076146451372,0.683939826112083,0.6310720375790289,0.5785912727661024,0.5344630394863223,0.48490812245832715,0.43257241781047506,0.394611797390487,0.3601782584738298,0.31078065408416355,0.25797568632635626,0.2106673117065685,0.16451337908454033,0.11237914811111493,0.07175422134450127,0.04968884340740476,0.07193736968506892,0.12087084771903212,0.16442302868844805,0.21677017120781006,0.269637959740864,0.32244874743845453,0.36947652737364156,0.4158858726562149,0.4686610196201457,0.5215288081531999,0.5739711423006262,0.6179989003464033,0.6676937148680306,0.7204960611985218,0.7675921353474862,0.8139348858643398,0.8667011249035745,0.9169855227548247,0.9542204722170711,0.9791363016431736,0.989655487055761,0.9795679073922416,0.9798062515038923,0.9866451650779564,0.9724023485486142,0.976497959417927,0.9687733561423473,0.9613758045505998,0.9349098172998738,0.9073526246668355,0.8887505636843014,0.8641734207382341,0.8438066645570801,0.8322081279907887,0.8322895035287654,0.8537814029748438,0.887100810592587,0.9043312398481289,0.9164470586231435,0.9244574157259899,0.930484706340919,0.9305659635162322,0.9334766350507966,0.9414977958416348,0.9329746192254063,0.940750320580074,0.9430055242086115,0.9442655851920101,0.9456405638901466,0.9438924142677276,0.9492688069884951,0.9429222582536947,0.9345647456141273,0.9385232454490562,0.9493650472000721,0.9428026842741644,0.9370426605881983,0.9463243175436955,0.9441570150812955,0.9526602524740202,0.9330690971187239,0.912743502309374,0.8844862317267577,0.8734041379360513,0.8820798071756193,0.9008376953178558,0.9197078268685441,0.9488217784712805,0.9713762323060808,0.9738792940957923,0.9766041274364152,0.9917729560876416,0.9722605542257656,0.9236542958165597,0.8709553051846171,0.8257329112340235,0.777485890453768,0.724652416727565,0.671930798580554,0.6266788381621815,0.5784622335737328,0.5256293568482835,0.47276415390349946,0.42228799977088904,0.3787994689146972,0.3266061100590065,0.2737410628725523,0.2232377540505277,0.1797678172353563,0.1275849114917631,0.07653399279901074,0.03372260934140381,0.0,0.01199561744249289,0.05580212478112978,0.10149348458903606,0.15423680360777126,0.2071045921408241,0.25997238067387807,0.31284016920693225,0.36570795773998643,0.4185757462730406,0.4714435348060946,0.5243092376857479,0.5748166292638304,0.6027322970572773,0.645656277474346,0.698343844018785,0.7448183239823805,0.7917878981055344,0.8420981401384926,0.8854754571507018,0.93082791692916,0.9632996821622273,0.9820186598008442,0.9922542606843399,0.9953676512895879,PM
0.28237647003373567,0.303571070881846,0.323508967691871,0.30742306579991574,0.29945062197508054,0.24762404724613152,0.2014448482065756,0.2515631168664596,0.33150983322834815,0.4125190502879237,0.5072223709507462,0.5788549261255413,0.672352984126813,0.7637016896942068,0.8102547605853729,0.7767856471231509,0.7116209582676731,0.6285209155019338,0.5569975090424748,0.4855228366021702,0.4034570431894844,0.3426658736844326,0.31357281757655553,0.34381278706374463,0.3633051695374636,0.33368722622616875,0.2911874192807691,0.24992461297807722,0.24263741248831572,0.23156778600036798,0.16311965238916581,0.10419469258940062,0.13990038959995754,0.18288257698447286,0.21516587849909463,0.257592950553561,0.298378774177948,0.30339988955131236,0.31475909218924336,0.35496069148112586,0.3369609478117459,0.31117376568808375,0.3597405416020978,0.3925464484214469,0.3630936859727232,0.33471290741139104,0.3331557056166634,0.3007973379062747,0.2831853294288198,0.32368302625564205,0.31659457365523647,0.2935120945227574,0.24156722716858425,0.21159548209810275,0.1808856290215184,0.11229980769759784,0.11470801169076683,0.14660862700861532,0.2160829379606204,0.24527872523784566,0.27051503098667773,0.2939007887879983,0.35829140402797854,0.3866102038506227,0.3754374405609884,0.394062714539662,0.4131613846472941,0.4528232634819407,0.4343102077934411,0.453034338356491,0.48474230232837545,0.4669386790337997,0.445244570407227,0.48018610677095275,0.4725943962727106,0.412107729520959,0.35404237644709724,0.37784939508246307,0.44372903350283455,0.538910913676804,0.6161894550233784,0.7024030347391044,0.7990352907360316,0.880365940241413,0.9605296325143948,1.0,0.9698277957697616,0.8922769965683388,0.8197331945329669,0.7270032899842764,0.6302942761056638,0.5475736390975481,0.46718910896609245,0.39990628921210813,0.393908134170756,0.3744392338959477,0.40156216285722746,0.44359350194855374,0.40398822466972284,0.36485489071141686,0.35984856564643497,0.29854873150199257,0.22649308245434074,0.15794809646149144,0.14374841344605294,0.15608826058517433,0.21020070375236877,0.24020185160899654,0.2645651757123577,0.27426198775533006,0.2995515533361841,0.32984038140885996,0.3437313121440555,0.3568927473869641,0.3347267542075265,0.33073621277061793,0.3057581023704792,0.30380143745151056,0.3240861875796197,0.3167496710965807,0.3029661358739242,0.2819297768229907,0.24619454847315936,0.20777896485208824,0.1570757044369424,0.07780646232778832,0.05726516207211674,0.020208240150742185,0.0,0.012799768195851158,0.07244669213794985,0.13563695777880902,0.16957453176623272,0.2014220675953995,0.2161733287035661,0.24043054444131862,0.24908798035542645,0.28924791747635936,0.2989633643160472,0.28537097261688515,0.30770083919566016,0.33145118889713476,0.31356924343446035,0.3212613230738359,0.31082939504570195,0.3294722746116534,0.38308229049050535,0.47234691600883405,0.5691169815192358,0.6562824728976686,0.7328459905291016,0.82804585281177,0.8937819928062938,0.8987772681368504,0.8396155465552697,0.7591583484016606,0.680067651184185,0.6074913394906529,0.5181310086043256,0.44734233816414637,0.39050715029179006,0.34946158427382645,0.3476203405758733,0.3339674854691683,0.30361520959848676,0.2886153221465708,0.23348148497259036,0.21006836502222548,0.18512279765501827,0.15721424952952034,0.12552618054455333,0.15312118517235174,0.21595431817351063,0.27221202447530146,0.30220995753275215,0.3141071087541354,0.3709137566451659,0.38687421695831326,0.3559286787723197,0.3145103882689204,0.32159014162975286,0.3201267922498321,0.3036104545778402,0.3171115055058591,0.32377364698241795,0.28898889201212796,0.24501326587960381,0.263503399299271,0.2630935703944939,0.21659342904213208,0.18815162173540667,0.14109663456971777,0.11994288555346877,0.08881292356329684,0.034477374594144905,0.00215813969001033,0.04653147052885309,0.09811253291349509,0.1549858973390439,0.20990459851269883,0.24280869961926665,0.29415684893793514,0.33306453564007477,0.33448579967629755,0.3562179187300911,0.36547836041444004,0.3971798628923562,0.4430419013138609,0.44070843330464005,0.4176372274063178,0.3953291343794927,0.3938888785136001,0.3677873267650078,0.31572372342899424,0.36909649879948425,0.44321140710397433,0.53271255567629,0.6276556083654219,0.6993378070400142,0.7919602321900756,0.8606080422899796,0.8700381175853149,0.8143089235550445,0.7245991539216723,0.6537849458938725,0.5819816743731137,0.4999295507755166,0.44783565086638344,0.42504108548471464,0.4246179338625522,0.40202176160700187,0.3622346852879543,0.3189436168953188,0.33746335015988205,0.36221517128781233,0.3226224654761731,0.2581953891774251,0.1985988724263068,0.22508530209081012,0.2541114920205354,0.3108731815677279,0.3381463204869686,0.3696232963930637,0.41789622217284084,0.4024998012586627,0.3977876003434888,0.43457221306087934,0.4522954699697097,0.4180973965725139,0.3947435141547917,0.3944498808506607,0.38798677088195976,0.3787760297592673,0.3912904737528331,0.3666372788083123,PM
0.16040391244292707,0.16376405176821462,0.20942307586406317,0.28462990471870686,0.36170994108833376,0.38748943529744384,0.42024292784694683,0.46517148517521,0.5205771397658596,0.5807109759833073,0.6285082427293798,0.6645509775286937,0.6683652662919748,0.6760613655910852,0.6946706200427633,0.7020125976147575,0.7425255918373814,0.8116384140369339,0.8779601187444301,0.8815683319397447,0.7955576232694321,0.7063051718972684,0.6367555747279692,0.5493918915266232,0.4943194364324812,0.4918483893744545,0.4864608734089275,0.4475671837639448,0.35995807927495616,0.26875175645899496,0.17754276328710938,0.08645701091514324,0.016786946465606967,0.000979991135982683,0.0,5.535282506130557e-06,0.005212213082103734,0.05123350725400844,0.03695003279335918,0.013405613893709312,0.05244221604648347,0.13632427378211398,0.18715872637018727,0.23696894500585053,0.21236720130886377,0.2044216765359499,0.22737142193067506,0.2888196657913715,0.3779687975991912,0.44890824780891503,0.5344278063273036,0.6132963511372935,0.6897582968187006,0.7569477340002013,0.7702496057699229,0.7350539309896424,0.7120026922344493,0.6954413395089762,0.6950751710951693,0.6950753345649723,0.695892837922484,0.7149234027731941,0.70079021803003,0.6950040725935196,0.6827291566274862,0.6663105795554696,0.646471629207853,0.6740178150230243,0.6772682443073803,0.655323857251811,0.6255027566329119,0.6149439197117221,0.6148744387180738,0.6165650029047622,0.6382505667359313,0.6613175098691988,0.6832033059830191,0.6929539984004718,0.6711480982961922,0.6525253712488359,0.6013597100851964,0.5758562315178439,0.5616618768975199,0.5757201308340516,0.6087747717994931,0.6578020190677494,0.7184917138011073,0.7783267267971272,0.8017785977131133,0.8020098527449679,0.8020098527449679,0.8020926562792203,0.8146317834901824,0.8605580143884568,0.9286105225372845,1.0,0.9985600564825887,0.9192749906484821,0.8454280555018325,0.7546755208105846,0.6634665372545694,0.5725482779306414,0.49931423414987375,0.45753337457708376,0.47794481985552917,0.5236491438460078,0.5867139131889072,0.6557254521444635,0.7367221420191497,0.8081586731907953,0.8283099638407636,0.7809470677421704,0.7647606089732228,0.7347768487877753,0.704892681088805,0.6956788762129511,0.7138721092076041,0.7174737639499451,0.6965859191041792,0.6917239070269696,0.6701564836384302,0.6496946570379345,0.6066247590973948,0.6096714926695128,0.6398907241146947,0.6501255844258056,0.6680122147877077,0.668147146952407,0.6530551442156245,0.637696081643246,0.6166539099888162,0.6268145058625345,0.6440185416744244,0.6668170046039874,0.6894605417398401,0.6884777956120152,0.6595581715146084,0.6233489470416842,0.5705087531540425,0.5326773692787912,0.5023871905242814,0.483616812108127,0.5131833012363582,0.5666570032770117,0.6274965676504944,0.6876453595411132,0.7335624431505714,0.7421807595678764,0.7228064755408168,0.7318973870471579,0.7227521746877779,0.7283315648373669,0.7486226707961015,0.7829577669149801,0.8464715875954214,0.8319381180967165,0.7420947969425828,0.6509121999184577,0.5695723765971827,0.49483550212711336,0.4040520989346472,0.3248333415160358,0.26373724238345186,0.2030764445832669,0.1631940152414315,0.19737023513770202,0.26552662746807254,0.3519854333096184,0.4294084918858081,0.5078730973758656,0.5936662866232085,0.6645335366453402,0.7505474452900742,0.8164502840211822,0.8181568451460519,0.8012523169225281,0.7797772975366515,0.7521506172651327,0.7366963881771946,0.725652644483799,0.7429260559105479,0.7234992518403782,0.7218091203678698,0.7215952117537761,0.7056851354170108,0.6765242204983011,0.6618143303562762,0.647691417594725,0.6753872466685023,0.6923371298539935,0.6662899687963231,0.6429422275704644,0.64160807066704,0.6416078302702726,0.6416089095010369,0.6440144666986081,0.6656048532056911,0.6569818120698585,0.6143808699269284,0.5623539991573869,0.5139539124045021,0.4756142577848079,0.4191521181229412,0.3780321342743713,0.3508481219126587,0.35031141390276854,0.3772144406595661,0.4302617792005998,0.4881269062362579,0.5410750191964588,0.5612595386297494,0.5615923880813263,0.5762851858567997,0.5880891684946938,0.594674118674404,0.6405548080521966,0.7049734707962827,0.7733729752146905,0.8346498206017907,0.7811744456796967,0.7056500274138262,0.6147171722174258,0.5250201282854743,0.45519422922840214,0.36901519132773153,0.305309463255405,0.238193172124892,0.15383966876038135,0.10230460921678919,0.09100402456025147,0.16345279557755044,0.25272891034371137,0.3227468869347918,0.410053349311446,0.48612359903527036,0.5659988120912285,0.6505996275180657,0.7089453137397665,0.7184317834842959,0.6971045246497383,0.6871400254138225,0.6688882684619308,0.6683415487620756,0.6683792042483025,0.6768596779365641,0.6942227100859721,0.6743691501127271,0.6440911644602227,0.6178239065090834,0.6155592013709397,0.6360552637262771,0.6662581535075827,0.6851546513338729,0.6646168759241196,0.6431267816644652,PM
0.5673683559932954,0.5778713942352032,0.586442461149558,0.5690313465597585,0.5424329513011465,0.5183890418462398,0.49513777719461505,0.4553773127365135,0.41996550665811005,0.37753038102023906,0.32624775007328743,0.28224997292354814,0.23692701874859035,0.1769677065345161,0.1341443167759424,0.08405067840491398,0.0381741181166384,0.008096139565314964,0.0,0.002224302442983106,0.034020106525554095,0.09622087629417608,0.14329418984930253,0.1901547889222659,0.23796366204958508,0.2710596452442968,0.27469104811407785,0.3192454651559844,0.3706337795239061,0.3686207586722787,0.3727745459988565,0.39892839694237736,0.4361568552555739,0.4456317493578901,0.4487154378028282,0.4693444528095019,0.4855091334694528,0.48857265774408054,0.5051811838613762,0.5064634585454164,0.5083767321533599,0.5248997934878283,0.5267246427030097,0.5267249160801573,0.5267249160801573,0.5267249160801573,0.5267221685360015,0.5232983449686257,0.5079502437181884,0.5211576226394876,0.5266585353897923,0.5166291423053488,0.4745018497321509,0.44431364805573326,0.41062087662789715,0.3767489803759321,0.3535179997888913,0.3477919466362507,0.379008952398455,0.4166932848654272,0.4328714410316734,0.454698607894779,0.4766311209193286,0.4861339478137099,0.48619990859429896,0.4857527579728633,0.4672523854127024,0.4261334424276182,0.40626546457553214,0.43007038787998386,0.416991024332658,0.36359143150596207,0.30873755702853956,0.2852189803233145,0.30850591093616453,0.3653713897395954,0.4228350903923981,0.47746152226116756,0.5434514142679472,0.6095627990291903,0.6755466174009057,0.7310329324668796,0.7877017647889679,0.8537458343312334,0.9196420591967449,0.9549693495338505,0.901002861926679,0.8349139498065332,0.7712810313390701,0.7214791513536922,0.6677813581895595,0.6250463430194033,0.5915210495889083,0.5592525170095501,0.5359900843812762,0.5267766704039527,0.5267249160801573,0.5267249667353346,0.5271949881549403,0.5428280533006951,0.5633424707554187,0.5672456924380582,0.5658996314711464,0.541944163646352,0.5115874676654064,0.4858350074522315,0.4529349728158638,0.4198954681522258,0.38693349617038875,0.3645231111544853,0.34757998277284274,0.3614372198542921,0.3833550328883413,0.40342166771587307,0.42017189853370107,0.42668235624228057,0.4426242000196252,0.44613947402707854,0.46090930642369354,0.46593038505181417,0.4659395265041675,0.46846272513686626,0.4828052709462596,0.46765626643060276,0.4659383765589622,0.46593740485137003,0.46593740485137003,0.46593740485137003,0.4659285976796568,0.46024382345061143,0.4559797411391706,0.46584845544370923,0.4659280309518996,0.45980864787105347,0.4352705583414509,0.39311809986001656,0.35419380262129563,0.34245647357321385,0.3261874641368374,0.3387574165041576,0.37949076137409676,0.41325806609634075,0.4377231093365377,0.46530728613689876,0.492446775698379,0.50633308761947,0.5117603496910998,0.5260946512482096,0.5126518756887948,0.47197268024408645,0.4472532813967658,0.4547459439451309,0.4640181589130936,0.41029594663821367,0.3604135816152141,0.3281461905065055,0.3435039390835404,0.3954516694756238,0.4454398752280033,0.5086489368314884,0.5747589690707469,0.6408689342510021,0.7049485542201879,0.7544269582156375,0.8189422597392091,0.885053389134034,0.9511105423488568,1.0,0.968875725946754,0.904923351157553,0.8435600387366811,0.7957343910030583,0.7628472857215214,0.7201886190643472,0.6679240920383038,0.6339885806101195,0.6015971839526317,0.5867658879941775,0.5704707752924851,0.5672525899296987,0.5672513189376307,0.5692661272880755,0.585883405277964,0.5875121693695653,0.5875068025315602,0.5828681632580328,0.555303120692253,0.5303096112322989,0.489246270769641,0.45488669500742285,0.4218464764893084,0.3888429868051184,0.3660895598014924,0.36507704785848816,0.37973728808892515,0.3895132886532373,0.4045060007384107,0.4051498582443642,0.40514989362258325,0.40515126478482566,0.40714911669365517,0.423804335089061,0.43433623373812624,0.43084308480601186,0.43199490696834086,0.44548346784278925,0.4456717176198568,0.4420848734639824,0.42641225892636614,0.42834252606915824,0.4446320653348197,0.4456747602388056,0.4457223944667641,0.45247962938724484,0.44746273400681735,0.44154245515208457,0.414522949152897,0.3897390329734125,0.34880361968549245,0.3152724896532222,0.3064758910876151,0.3240260836832931,0.35330918571139236,0.3887736964599666,0.4076129250982694,0.4293720106808645,0.4617186602915635,0.47258274562999913,0.47355531535450224,0.4702545342528177,0.48158831210065056,0.4507141297417543,0.41321498662826617,0.4099593774283443,0.4357679344189789,0.4107641342751722,0.35211807386192495,0.30259458571955244,0.2700219845786114,0.29254039812174115,0.35227739310808115,0.4168733324623122,0.4668385225107654,0.5303409502563001,0.5964517671955307,0.6625631519567734,0.7286720882386879,0.7919389548432738,0.8416970988999481,0.9067443109018369,0.9687104610530346,0.9556959094255961,0.9068638330431189,0.8427067965828212,0.7835842911458943,PM
0.1750173883408479,0.15732762159026503,0.13461626945284966,0.1186403097767692,0.10736560667995798,0.12414735276641098,0.15063296108265023,0.18499252758981655,0.20966202699691694,0.22606218805499,0.2561212832323605,0.2671150044632755,0.2671854864909333,0.2671854864909333,0.2671854864909333,0.2670697893802867,0.2559711989060225,0.2448793312840145,0.26178274848724925,0.28525662802760055,0.3088201253690883,0.3438655813886853,0.3956426668312214,0.4652448651721932,0.5302096490337944,0.5838388100707186,0.6537619319850427,0.7094415255997837,0.7721620001047378,0.839959485387062,0.8920253268198928,0.9503652277769921,0.9758753827321738,0.9552996847600306,0.9026307526145056,0.8404073063278337,0.7702561422781451,0.7158316595870065,0.6517143170059545,0.5811743525217241,0.5106303909425924,0.4410676910553666,0.38807456411914387,0.32407526237984996,0.3179138865796278,0.32931768908631565,0.2972885023897178,0.2458631078586926,0.19126224503531786,0.16789545581335963,0.1892216207574906,0.18926917087207862,0.17562449806621583,0.17552302416940968,0.17538466719927115,0.16366066839580684,0.1389554407070408,0.10460193465677081,0.08270421951293017,0.056981912023682746,0.03087260673154013,0.0,0.011105732280555003,0.05269337700224552,0.08777196077391292,0.11375048144219013,0.1470500027845616,0.17352179834573178,0.1785088208337875,0.19138564384884882,0.17616954590148115,0.17552302416940968,0.17552302416940968,0.17552302416940968,0.17552302416940968,0.17552302416940968,0.17552302416940968,0.17552302416941012,0.1755170088552993,0.17143709508380978,0.15334507253090113,0.1405811480112007,0.12421172241103795,0.10576882202246773,0.08693323955890353,0.096558497134696,0.1380423492924674,0.16659004454794024,0.20106869775219804,0.2271911379706526,0.25859392525054625,0.2692350440563125,0.28803521405339083,0.29008880870209364,0.2849229995431726,0.267876892930345,0.2671854864909333,0.26803223152136324,0.2857724677762614,0.29112155665973694,0.31516240647149374,0.35508043013196255,0.39726723866673863,0.447196896330873,0.49844777510990435,0.5667621907401297,0.6285134772859275,0.6852202675945729,0.7554523293589397,0.8153138259453319,0.8737687496118789,0.9322056722573122,0.9856922883708674,1.0000000000000004,0.9719861704573813,0.9121894242913906,0.8551637741036218,0.7847189379709918,0.7141747880470732,0.6436306381231547,0.5730864881992361,0.5025423382753176,0.43199883709455245,0.36460429712554143,0.36099848786807787,0.4003069576686973,0.40183073807390146,0.36296480268793463,0.30659340505896404,0.24707403754986146,0.23023595971351973,0.2524800803661664,0.2669187236503472,0.2669715966558259,0.2538950062463896,0.24404086593680052,0.2293964509924793,0.20399688445193132,0.16946526697550324,0.15239249471063143,0.13233746130895252,0.08725413093271772,0.06409524020520863,0.09022674658813878,0.12595240633564675,0.1680964058637695,0.19619106953686316,0.22387057721097614,0.23643667212734876,0.22177907406134523,0.22135425533017195,0.22135425533017195,0.22135425533017195,0.22278497909014083,0.2418956146870599,0.24042578901927047,0.2222897652697542,0.22135425533017195,0.22135425533017195,0.22133710695533448,0.21508397935948675,0.1989296136188603,0.19637195649832506,0.17535937926151446,0.15187298950659178,0.12233718953269879,0.11349638376234505,0.1461846958300761,0.18141269738918542,0.2166820486200658,0.24548793974957528,0.2751778477018689,0.28988897012087644,0.29420760708736937,0.3118822544086437,0.30574253037578414,0.3028549420301063,0.2966329121896707,0.2960572426193595,0.3125662781219902,0.30292104963078215,0.29254302228673357,0.3115517730973747,0.3326790806774875,0.36773135089666686,0.4133720213433567,0.4652415084155659,0.5299468895294583,0.5824429742284365,0.6490242612952923,0.7138916311533641,0.767599077968963,0.8309889748249728,0.885694055100299,0.9474385350209329,0.9708002887788436,0.9417266435141864,0.8923128718651365,0.8224629116980213,0.7537671929759848,0.7017516769517376,0.6337446335299535,0.5632013206939743,0.4926581962027785,0.4257074624503612,0.4267671673637312,0.465343797364548,0.4611838360273164,0.41888834540837605,0.366537754048589,0.29829657204001325,0.24628729975215213,0.21324569110974645,0.23324528211164708,0.24416928037289987,0.24426987091055308,0.24426882455063037,0.24122084444882264,0.21242298933251247,0.18783815693410277,0.16424454536702715,0.13957261025631196,0.10381919075141965,0.05914838788871091,0.03939422148713945,0.06174324234854023,0.10756803458265685,0.14833307242222027,0.1672232465051664,0.2017271350741745,0.21785054807952342,0.19952884704573037,0.20630699668132202,0.2210572793435972,0.22135425533017195,0.22114036549506366,0.20879956397961408,0.21646416916481348,0.2213439104924455,0.2213542553301724,0.22135425533017195,0.221323499881112,0.21371430204615116,0.2184103629330938,0.20355921733443916,0.19831101700031262,0.18689335606507695,0.17039993809732934,0.14761877220992625,0.12414551117294748,0.10736560667995798,0.11957272249098283,0.14968374779801197,0.1775586938893179,0.1979307414817577,PM
0.3336021158984721,0.30317916654722055,0.27323319436792737,0.29524469267347886,0.24496086546316853,0.18357808192803837,0.13244567079806924,0.09124600766134172,0.051383604325817345,0.05478262943762857,0.08605417790424585,0.06066928835872343,0.07681649198222296,0.09079330688403431,0.1381917427013697,0.1984123207467654,0.22491347688759955,0.2595302709134497,0.27586968137078305,0.30507789141004604,0.3139424213592843,0.3482726265777707,0.3873124061564148,0.46696884406812256,0.5490239325004547,0.6298825547899201,0.7107181687683006,0.79575028876123,0.8826263469322191,0.9159452964534545,0.9163852334978095,0.9029833301329289,0.8125928710193513,0.7435781805082327,0.6472762970606576,0.5256741386306283,0.43167372238595103,0.39205797762464467,0.35694919080787724,0.31609801315206276,0.27353027732345137,0.2213756195314085,0.17370332829704438,0.11384526218755386,0.0968826515367276,0.15331601754357926,0.21491034803824594,0.29058283666334717,0.3174239499548781,0.34963532160029054,0.3825415019802554,0.35481922554955414,0.3477098235185485,0.3147302937432892,0.314527563449146,0.34492126623614894,0.30937022608765474,0.28811174719614563,0.3451454312079232,0.3347272848999765,0.30569841119653507,0.28205169220135673,0.2926373453254669,0.31638817718958556,0.3481877480768567,0.35605082488794704,0.39044474862334333,0.39263564932798456,0.3761862544121328,0.34937671874509046,0.33770068517639196,0.3061109356368119,0.28556563842551164,0.2417488911152308,0.17757665978487136,0.1476758437834622,0.10615587533504645,0.05202641310323042,0.043697727631257344,0.06754635128341846,0.08792800211384755,0.12422885692039021,0.17425506954486547,0.2140701173342512,0.21818635572715106,0.22445706456839876,0.2592872184807078,0.27455202797075273,0.28947992455809857,0.27012642929955266,0.32396634054027285,0.3972108060741464,0.4780358643436289,0.5602004387369357,0.654801957453726,0.7502871161824771,0.8167563817996832,0.8238868568809163,0.7875898885816204,0.7702142871995852,0.6922781606737685,0.5904060715143373,0.501460709604447,0.3920526104774398,0.30926610009623445,0.2819162471203338,0.35126817248313813,0.3916927683612643,0.357993117712776,0.30703480674940753,0.258143049489858,0.1971832103936002,0.11895971508136594,0.04657834370131919,0.0660852071211826,0.1386988847868711,0.20871404917606373,0.2971172662876711,0.3727896277954823,0.3810760209918218,0.3409082443083653,0.3065448606348937,0.30546553449638036,0.3054653789165007,0.302996190474369,0.26833300417401684,0.2618281352684573,0.26181194522197426,0.24831612681690896,0.21878467320092287,0.21818952132071523,0.21849107817195002,0.24547997330363902,0.2698293104384488,0.3036200069163302,0.30546534376143253,0.3045092771633806,0.27255797792577674,0.2615367914131346,0.23381669281802342,0.17340814060412413,0.11346911180802799,0.072127602587293,0.04114799751010967,0.005417270851426181,0.0,7.618446963952863e-06,0.009360160860472533,0.04228360445024926,0.04949399197336479,0.10005088979935106,0.14246548580043328,0.18301159475806106,0.21774497257321102,0.25257068921460846,0.2928704978858425,0.2879358578391411,0.2711148525396947,0.3259964219672238,0.3734730444787582,0.48309279934994453,0.5937527183225768,0.6591340133999903,0.7610893361075748,0.8506619845029668,0.9474109444923142,1.0000000000000009,0.9863189748641128,0.909836468122668,0.8733718638484511,0.8447848387775068,0.7319193509975994,0.609917670445423,0.4992445675845163,0.4106725555495023,0.3505835306565146,0.3764084113289279,0.3593834367335198,0.3100840951690609,0.2807483578598635,0.22038879739831785,0.15640938322758924,0.07749318751533707,0.04507064879874356,0.0810854580806879,0.1705318416971,0.22875652900980992,0.2976115487596269,0.30316170055235503,0.268774879778479,0.26183791578756654,0.2714113354064098,0.29131558345474584,0.2624810320478357,0.25392294014660965,0.21938731562881575,0.21818957517528936,0.21818952132071523,0.21818952132071523,0.21866620503133838,0.24722137214093198,0.27103608131703893,0.30505789030382147,0.3399528484290988,0.3803692668538332,0.39272741363974184,0.3927415476720446,0.3924522158925301,0.3585738373002414,0.3051746550302834,0.27056986777518865,0.22715632776722217,0.16690383505174466,0.12971397593380551,0.09379781230585671,0.05320681714512521,0.05239650033654275,0.09266349739305024,0.12929816266560135,0.17572073586245907,0.21946803805488457,0.256033101832859,0.28290158667528686,0.30584471005477365,0.33464175092181314,0.31535472459658465,0.3066030313729513,0.34056496378419787,0.3711400560907867,0.44962937370600287,0.530846237215636,0.6357668247000374,0.7174930181843395,0.7959956498282628,0.9020199008783587,0.9559242002447847,0.9437951345474369,0.8847989705698254,0.9122100928852745,0.8746379983719006,0.7821596088999518,0.6967586086796,0.5887378617191077,0.4991233465134899,0.4153197084003386,0.43220190393369595,0.3964142891263869,0.3822707016099134,0.32817850689201666,0.2865633027076955,0.22596039956953984,0.13735804871568558,0.09383110389111948,0.14404884927237838,0.20232660526284274,PM
0.09661586595619553,0.09844846176288957,0.1465995705168135,0.22605738867689862,0.2175780444617672,0.11705311195277002,0.04132367872050402,0.0,0.033900238701764174,0.11224793650250575,0.19851962223804076,0.3058878170700563,0.37302638209364947,0.4311089754330055,0.5219395735850956,0.6073290641905746,0.6931098092916921,0.7892308163431423,0.8348201343331318,0.8798300513178843,0.9069724714875429,0.880003131405271,0.8796516532687395,0.9078442246483256,0.8927054771624068,0.8748939003796616,0.8452586372058395,0.8282237376555015,0.7997369470747193,0.7436211844135645,0.7042777492453078,0.6600331049920696,0.6293840751260493,0.6303828978151484,0.6659406406901729,0.7013603985097872,0.7315032608634491,0.7596737289015474,0.7705679078862833,0.7705782915560553,0.770889841896965,0.7905997105554086,0.8060116865497022,0.8181808730752431,0.8412405479568168,0.8305420119613593,0.8239177073752817,0.8253072149899792,0.770955826372429,0.7061036878816438,0.6601379022169773,0.5965587171840987,0.5583968316174124,0.5599409050422448,0.5977437635560534,0.6535929900480655,0.7009419831944523,0.7637406029511586,0.8263713809914739,0.8932041182137507,0.9217283057425725,0.9716355535733809,0.9877222819663425,0.9254098425568005,0.8437641049842224,0.7325352853345493,0.6352165889430976,0.5436245187382474,0.43199726788155335,0.3219960344273307,0.2393760393581017,0.13158981801296932,0.03953149778273701,0.03552940011206118,0.09712144695395786,0.2007801405248264,0.2832364225320161,0.3917276172766089,0.4767328939403459,0.5811479866336766,0.6715561782284638,0.7460998136911767,0.8212000038686886,0.9014918546461166,0.8998786054656769,0.8774671676500576,0.8756603998624897,0.8490226999950838,0.8574919494478239,0.841933310684273,0.8179933834761384,0.8013510009532974,0.771869811764307,0.7355626630313035,0.6910342272014915,0.6340500206545681,0.6255240153038333,0.5965097771357897,0.5936003083186341,0.6149249398531458,0.6523583652143898,0.6932459002735856,0.7330805580355344,0.7351065737922928,0.7351065737922928,0.7355532678513725,0.7559224943309557,0.7407082157635063,0.7351910287076624,0.7510596175887843,0.7695418923611479,0.7430849472525933,0.7004515999139187,0.6636621837201746,0.6101217376000561,0.5582459681186167,0.49719930763929376,0.45456860355318796,0.4826927687354381,0.544429789503929,0.5746431967586236,0.6410505303865639,0.6883431913467559,0.7721959622847372,0.837428766627264,0.8757537407730407,0.9129911201970655,0.9571569602569774,0.913623981830737,0.8266544182171538,0.7266142381357898,0.6411333750800203,0.5370045247299391,0.4250522008624884,0.3237266597876278,0.2360405731148747,0.14020483232737835,0.09945475179574359,0.13388697394661708,0.21685657027679017,0.31794173560510686,0.42970726088201694,0.5237821974669945,0.6159306269440776,0.6989767342165676,0.7786880058695775,0.8236679963523894,0.8750519252405855,0.8943823857742554,0.9123276915814982,0.9058603402973509,0.8785868881672814,0.8680987770527668,0.841840775507591,0.8175617586041088,0.7918346234326981,0.7634809437443524,0.7012530051878363,0.6654251783488689,0.6641631382647679,0.6643530592593221,0.6820307115684878,0.6995458119450273,0.7106116513566905,0.7581056466096436,0.7684694347124683,0.7444873120114588,0.7689436463424775,0.7705782915560553,0.7705782915560553,0.771160129333305,0.7954478956015913,0.8205569842277418,0.8406869004323214,0.8153695474553047,0.7721165914226438,0.7072843363820285,0.6598090666300829,0.5888578386437997,0.5550868078477089,0.525781362246839,0.5446925795932556,0.6204758949492,0.6904516981888875,0.7499298162190575,0.8241289430381302,0.8751434897757315,0.8795814961600987,0.9311457077381169,1.0,0.9580330008894054,0.8692682835094478,0.770664084539864,0.6634822027009335,0.5797141857280526,0.47025738552713303,0.36645097361421186,0.2809362370777668,0.17032575810133288,0.10053343820284333,0.10563858427523964,0.16538816452731453,0.2495923133744169,0.3492556424740485,0.45612248533777855,0.5394112580325992,0.6416151051212875,0.7177735658379918,0.8034624012292868,0.8982747509005016,0.9386020193261784,0.9479279800864919,0.9470591760069391,0.9220362495849486,0.9327028209443791,0.9186098671483887,0.910378490619336,0.8778531437969139,0.8320633228151388,0.8011904270237009,0.7663450858008387,0.7291725965607752,0.6985553873395656,0.6434715429375233,0.5968480182638976,0.5953426834197995,0.6328719844967488,0.6855429675210925,0.7119054857540013,0.734876637171598,0.7409348411316428,0.7690175762627387,0.7706118592057569,0.7807054549111845,0.7869688001907713,0.793919500502291,0.7756713717087838,0.7983779474072055,0.7919027114165438,0.7916832669487954,0.8043338609158477,0.7654774935669248,0.6921720105352103,0.6293022460423447,0.5776921426756356,0.5095117448149926,0.4902528632275871,0.5194583941471924,0.5530600279297193,0.6184776447845124,0.6481784865073728,0.7216194581214301,0.793685257555726,0.8526492174218365,0.9093295859544854,PM
0.5058244451778653,0.5123796835442378,0.5275060676059797,0.5444618046502661,0.5632238775320326,0.5821955949445985,0.5702888892413451,0.5790186962380779,0.5900490282414514,0.6003144072728195,0.6426763890378666,0.6992141490939239,0.7708339899688861,0.8296601489268474,0.8947519606853565,0.9664295011857194,1.0,0.9409616546442687,0.8686985816963522,0.7963832760541294,0.7256235657487271,0.6703545330271319,0.6005266511681815,0.5351871489081454,0.4808411739181082,0.432886134104554,0.4006129324609158,0.3873995358047919,0.3768921350605261,0.3258221945272064,0.2538077580048994,0.18149196892828368,0.10917662304249376,0.03905985618263452,0.005027427736515211,5.617123982748495e-05,0.0,0.0002327294489465892,0.02005448074293259,0.040943285776289695,0.018156588806886198,0.01609252008562745,0.07422339404677825,0.12824551296305486,0.17193948174769602,0.18381719595534163,0.15565403777572095,0.19889855026324677,0.20457129713406008,0.2107771453313898,0.2708208303223305,0.3125619440988241,0.36672938169307256,0.38024584200731715,0.40242752328555875,0.4292606950526796,0.4427063498062367,0.45477810473206404,0.44512069677893384,0.4449048314613888,0.46156072714345475,0.4486408504604458,0.45730978897970864,0.463499338688262,0.452185679688502,0.44290624340686957,0.4578912435947058,0.487017875665801,0.5189709233815973,0.5544949505621188,0.5817421950863992,0.6168924915893697,0.6541657371476095,0.6903006758656347,0.6701472103868706,0.6425646472282973,0.5999750756617384,0.5621303587267099,0.5361328474135107,0.5047538099669215,0.48502905224291926,0.4886928857988617,0.5048904463817117,0.5090458992840974,0.5312965796038571,0.5503258359287977,0.5669351338792383,0.5522126269038652,0.534327033947855,0.5156548366931486,0.4875026256617252,0.46860766147470523,0.44633547950826724,0.45309747378165666,0.45255666607422773,0.4535865655359377,0.4816896100617365,0.500090575783243,0.516412866738956,0.5093015438084678,0.5024956766288149,0.4885760579179226,0.5043561456169341,0.5129452895377109,0.5519614776049351,0.6060811638305772,0.6743791091170785,0.7298465761534416,0.8008205242856739,0.8489321747765146,0.815170156751686,0.7601864211827007,0.6885288205013578,0.6162131695488542,0.5438973804722385,0.4715825582644064,0.40216110272820416,0.35152187383277855,0.3190680884651802,0.3161843952321215,0.32518851810890936,0.3558373331521949,0.39367565346916367,0.4303491523050744,0.44246687597489043,0.44257262914888873,0.44257262914888873,0.44257262914888873,0.4425721226938104,0.44098674389963666,0.42395619511980565,0.42850574757508975,0.44629121196583066,0.4653439657641223,0.5013854860432518,0.5430617350103031,0.5856518283275736,0.6254409844315441,0.6684634222716421,0.7034614541030741,0.7049627172052606,0.6627132317209865,0.6249896762605744,0.5976903957648902,0.5631527367640512,0.5467542468521147,0.5307256019157252,0.5433221878530268,0.5299983554144165,0.5385344341623282,0.5478997928556,0.5479470646605287,0.5479470646605287,0.5478627971818244,0.537635636549592,0.5265028924216275,0.5010551091295281,0.4614030714269197,0.4430651792330451,0.44257292266262693,0.44386199813795546,0.4627519884207878,0.4840490866414817,0.5079920050231901,0.5347694117969577,0.5478002218618792,0.5554694872883021,0.5687950615025334,0.5695514501939973,0.5884618983657068,0.6307794409867724,0.690916508872963,0.7506952891246694,0.8200739283950038,0.8751397913317756,0.9183251682080815,0.8835708434679974,0.8141483552826547,0.7418360260019465,0.6695202369253317,0.597463123503787,0.5390764506764407,0.47875010029110765,0.43776789009800776,0.4016020169189134,0.36735490234975643,0.36391653116387523,0.3867996803128073,0.41075558581461635,0.42850745168754,0.442318945390495,0.4381666485686968,0.4230038279947279,0.43468837419599327,0.42244988796722316,0.421497937722386,0.4214979664982432,0.42269035284853684,0.4392431554860372,0.451553018457727,0.47710122776405584,0.5146188028393093,0.5531116269961336,0.5967653164482578,0.6418802753675239,0.6834446760095112,0.6798712355820227,0.6358002816458224,0.599536741341745,0.5720438483555719,0.5375882217631003,0.5129938234987579,0.4953958418277091,0.48437039753063615,0.47127299367123854,0.4768491758498836,0.46446386622944935,0.4775609518966757,0.49482667753083387,0.5043646196394596,0.4877440963683646,0.49659293898164325,0.49122809130853495,0.447342560844211,0.4107758406053672,0.38645411423968534,0.3868141706770789,0.415756345390041,0.42770922840985515,0.4507472334393734,0.4689512987982032,0.4947559811826685,0.5253044817730697,0.5268774738932671,0.5310381784227265,0.5593331189973596,0.5697724526344468,0.5936715031544177,0.6472792301170944,0.7065064946086763,0.7760948328140351,0.8313818595006164,0.9016905092467131,0.9546511078530155,0.9400132979511322,0.870351531070451,0.8012609105739195,0.7455074745548735,0.6745577803110105,0.612346849763596,0.5508715817022054,0.48892414400351925,0.4450167150331854,0.3940535917459247,0.3628697945193404,PM
0.8870833173908181,0.8691531101392385,0.8440284226393975,0.8126983011626416,0.7765673373697672,0.7412328808729054,0.7101061366917567,0.6838983020441685,0.6427022087645229,0.5915244635107331,0.5312782881353755,0.4732384912816636,0.4219661636633183,0.36676084097288175,0.332979778690246,0.3247692393470114,0.33092725772715736,0.38144556697422116,0.44674716886791277,0.4976264950022702,0.5539104351752671,0.5989079722193855,0.6064633767100402,0.65148931261017,0.6787685491471049,0.7110030893287616,0.756647180885154,0.7961927865487715,0.8337220097981923,0.8643140563557483,0.8846371754238902,0.9063631027851486,0.9076189268217933,0.8923131742606474,0.9002114030597235,0.8764479645663394,0.8855342898768135,0.887999861682566,0.8880014328386667,0.8881106887209742,0.8983356608737241,0.9087808433396241,0.909391392332549,0.9250173151664156,0.9422263379125715,0.9304039451722455,0.9297320000936509,0.9297319215358457,0.929140507577018,0.9071835281305751,0.861309818697702,0.8174352706354138,0.7898139861974345,0.7930348919807075,0.8198092116614224,0.8450877096809388,0.8692134859663354,0.9186716906908226,0.967579079958174,0.9940214200568636,1.0,0.9532766882938883,0.8978796602409251,0.8451757733263183,0.7748156530723191,0.7163289566425934,0.6438758480047242,0.5687631943052458,0.49364831465032344,0.41884042950563627,0.35729951715338926,0.2891402926063962,0.21405561153532338,0.1415289617630653,0.10119083020672104,0.11801924359949911,0.18061966546650687,0.24423525840231397,0.31007855497743453,0.38513817581785004,0.4553161498780143,0.5150962262515755,0.5874687052154948,0.645759216256288,0.7119003578907659,0.7632102486863701,0.8243960485941422,0.8769320361615485,0.9230677379903489,0.9456647520582036,0.9322341648213013,0.9176073738076242,0.8928032687461882,0.8697345094671971,0.8496104294954581,0.8198191371875696,0.7910669826875458,0.7544634762186688,0.7169075894866253,0.6796587636347433,0.6582540990166965,0.6423722228210202,0.654322751818138,0.6626371828915762,0.6939721322896806,0.7318304379493754,0.7750459058214716,0.808462012549914,0.8451574654033127,0.8707831198003508,0.8876922387098904,0.8879570422439675,0.8786854591641653,0.8671864866762706,0.8566051721765451,0.8463853067340259,0.8494392046481409,0.865971996222477,0.8762553738861047,0.8878418787701658,0.8880014328386667,0.8880014328386667,0.8880014328386667,0.8880014328386667,0.8880019827433019,0.8896569027428511,0.9063708282398504,0.9076169628766682,0.8885802850955802,0.8529060022706068,0.804190944246697,0.7780840993300306,0.7698250324238121,0.7994814872262239,0.8287302374515315,0.8337968683934833,0.8551244010331378,0.9040433017090401,0.9332649630918008,0.9563220568459903,0.9456606685344622,0.8922417799808326,0.8420206180496326,0.7849369043567185,0.710646620202239,0.6355488679604311,0.5662751838505673,0.505643138903209,0.43105258160455406,0.35593770194963126,0.2808237649883685,0.20761771236365467,0.14953341934058173,0.09260527137887475,0.09018565137727919,0.13174673594434338,0.20140648719094356,0.26510050275090347,0.3309437207682189,0.40534006513130727,0.4652812157195858,0.5345624046485895,0.5937230270391303,0.6555983335659636,0.7121682251479138,0.773494079852393,0.8402180926260394,0.8885162917185196,0.9084831343751723,0.9085574830584799,0.8916483641489399,0.8664062525639862,0.8481977960794853,0.8328178439817697,0.8042192106274864,0.7694048135534071,0.7337733460734563,0.7020936609562067,0.6796034882080715,0.6634317544921617,0.6588692703549981,0.6733016811047823,0.7041449566390607,0.7438076758309644,0.7774424853055506,0.818264565702373,0.8536177076605562,0.8728769298408503,0.891464403713941,0.8975299436203836,0.8982853626875311,0.8970347843870616,0.8880838125694539,0.8880014328386667,0.8880019827433019,0.8896400110031508,0.9005264899296876,0.8932440330045939,0.8919401849842457,0.9055353753657438,0.9088644775687156,0.9088666771872562,0.9093894283874238,0.9213779853036823,0.9106145112340465,0.9192014551269496,0.9292625448761291,0.9104208918008276,0.8733949157194805,0.8371441424745862,0.8116902830196109,0.8133964509421494,0.8440204351743783,0.8652544440684209,0.8769041993113409,0.9239240902799342,0.9714652994405122,0.9895980939832714,0.9585951807646755,0.899672793052777,0.849780907838102,0.8014540968384916,0.7356043405192754,0.6630661183864461,0.6046651642285217,0.5312052045731477,0.4560908748228627,0.3810599460548274,0.3174761498564509,0.2706617005825884,0.19736129499571442,0.12224696524542944,0.04840628676969416,0.0,0.007074872649301955,0.06413323952474048,0.13811503657068647,0.1973657641467157,0.2683065037665373,0.343418005435844,0.416877965091218,0.47527821222889477,0.5457397876744161,0.604028727559109,0.6702682568560876,0.726866214209684,0.7831631003222359,0.8352835344061313,0.8895297488780924,0.9198754311373856,0.9105804767144066,0.8919331782481206,0.8867612771491982,0.8678086000493233,0.8479423889757101,PM
0.7796429068668393,0.8281101468197711,0.8663886661084579,0.8422982763955211,0.8357347224974783,0.8308912106129309,0.7895271155490642,0.7676983001014248,0.7991979239952451,0.834468967508001,0.8357258590263221,0.8361197067595834,0.8585195472998635,0.8224310633058067,0.7503300294174151,0.6775765887277521,0.6238568901029193,0.5515255970303237,0.4506364898510462,0.34944811440267554,0.24825973895430398,0.14707178852776526,0.04931207859593645,0.008319087912704859,0.00012627404958909239,0.0,2.20192034383615e-07,0.0018485321713175296,0.049572177168302645,0.06708440132092175,0.0340601774082252,0.01578817998837323,0.07520960628665119,0.1727334477315603,0.2267444252900397,0.29620412602171253,0.3071616871423899,0.2563031462580243,0.2989992681267335,0.3531400687052608,0.328821561679856,0.36198628511413755,0.45616789758856147,0.5075440360354078,0.5892734616263864,0.6281166894666601,0.639605780236197,0.6466594749103001,0.7110221180278087,0.7614287979003116,0.7953697098481465,0.8332328238057896,0.8674206458214098,0.839463451001123,0.835749006225015,0.8466089008408506,0.8724432375521491,0.8847840798383864,0.8707744163482092,0.8721630276519372,0.8990568046285299,0.8911962814606555,0.8289043327107493,0.7793107988578898,0.7648317764378776,0.7362456927710737,0.7338952924442319,0.7645648597753274,0.8050866685087223,0.8349318150565397,0.8358960736505967,0.8523741343455642,0.8714337686358089,0.902372250850835,0.9649360637289881,0.975002825129037,0.974945676592827,0.9561449078894197,0.9118028662603228,0.8735200486194064,0.8237496332724188,0.7883619669372637,0.7675400738144207,0.7935413526168675,0.8184606217859987,0.8816686323419898,0.9325759451276525,0.974637444470102,1.0,0.9766969067635562,0.9701790782433051,0.9288139129437383,0.902211590578279,0.8733512179587732,0.8712898114946084,0.8969119777979939,0.8833895188542096,0.8409185637600736,0.8360500407938165,0.8562698996930695,0.827051634601534,0.7752829145248681,0.7908175097486287,0.8569684400747244,0.893571392028373,0.8849258358597609,0.9052545304939787,0.9053681388408803,0.8983542642499449,0.8531872758678016,0.808355892975209,0.8094169044713286,0.8534030787160303,0.8704616841570729,0.8591036701839352,0.8236146600428009,0.7608756610311938,0.7305451753036545,0.6939473578048112,0.6653828864912041,0.6754085802790657,0.6639187939448483,0.6913244559359484,0.7036389177585658,0.7483137246808598,0.7999190825187474,0.861497847606568,0.8705687404877969,0.8826014566130285,0.8846187108494759,0.8419821086101722,0.8357349490080228,0.8377255034194766,0.8653731448822182,0.8881366750280097,0.9052835947364715,0.8948880690521293,0.8707897555236928,0.8491529581305377,0.8157433728548371,0.8013524684184086,0.8168440655068769,0.802531940821158,0.8092877229942914,0.8548459516265137,0.8991718317693769,0.9222684762402551,0.9573164214687058,0.9404923333888764,0.9180476131613524,0.8756223026894618,0.8705526763728155,0.8645943303596981,0.839550431866587,0.8653404196442063,0.8699846783016705,0.8461549088766587,0.8354125586217354,0.8016248894317632,0.7255222908971986,0.6578273542806388,0.591292998943934,0.5609987348141567,0.5993963312784851,0.6667029303592305,0.753011907481258,0.8460185253155252,0.8706050868115884,0.8903073146860212,0.95244417827191,0.9735334162864255,0.937431300819143,0.8877917975033434,0.8523524355927803,0.8085915378924238,0.8089744671428241,0.8419803741689496,0.8695459478238741,0.8758728638013844,0.9019742103932158,0.8739075255227631,0.8626895285601224,0.8366074139008326,0.8164506136683309,0.7562478775078754,0.7335261531691364,0.7685090759579412,0.8067791726489597,0.840569542543192,0.8744440118415486,0.9180474595390029,0.9387132057943584,0.9098266062633451,0.8864147961095794,0.8643497880506086,0.8208941765222626,0.801138425035381,0.8082708338308517,0.8347480023100742,0.8368169538721704,0.8630188740461664,0.8704154608511585,0.8482313710216047,0.8046666112641017,0.772194313182144,0.7882078283215872,0.8214392184077006,0.8375162336421571,0.8717865065874015,0.9038900867191462,0.8814398503745311,0.8476691298804875,0.8138798865501506,0.7803596750337762,0.7468394635174027,0.7133805817903554,0.6989069927209792,0.7372997057284394,0.8211075991402739,0.856549958597042,0.8360309449693357,0.8249596076264263,0.7789576458090011,0.7694116250270389,0.798596484745338,0.7940378951518277,0.7674529834234445,0.7682701247538022,0.8043284191263345,0.8532296438275733,0.8704881579911721,0.86764226169237,0.8285245494807096,0.7777509913887757,0.7340092560873037,0.681840933517317,0.661750222314816,0.6639653926560616,0.692140453474134,0.7173979944561806,0.7687508924747997,0.8447990824163112,0.870476567558474,0.8705392212252203,0.8621881141745069,0.8286972198589249,0.7828095990751169,0.7665323449790096,0.7895269465644796,0.8308912106129309,0.8359287329987737,0.8598878703122805,0.9200036469812396,0.9167044291231994,0.8837203016827822,PM
0.3904632205654406,0.4030674651008188,0.43042833745090814,0.4905682709220298,0.5707221791097661,0.6470767220896567,0.6915221674323369,0.6770473776330466,0.6282810261599776,0.557703169514955,0.5289531622378223,0.5032500973949983,0.434337516904475,0.4243477932360702,0.47795660475314206,0.5401766307303126,0.5742159317005409,0.6482746223092275,0.6930885649473049,0.7410090746434821,0.8016780618859167,0.8561182159193814,0.9102796264771804,0.9480374864266974,0.9522081231444641,0.9522094629716973,0.9522094629716973,0.9522094629716973,0.9522087531091898,0.9500721639441165,0.9254471392634613,0.8844291557673034,0.856116067376762,0.8211912025168489,0.7804753821165189,0.7336839753972315,0.698189468021662,0.6682480141380811,0.6681615779880508,0.6877608230799992,0.7116335535748024,0.7616083760031711,0.7955723713342073,0.8093456093231439,0.826594159999738,0.8332092864074347,0.852878676066029,0.8694999707878748,0.8575189782126835,0.8745702471130121,0.8756183103835724,0.8574123826042706,0.8566285563354952,0.8566283889150927,0.8566281299715368,0.8552535095432847,0.8362517300909138,0.8456722707107409,0.8565605808074253,0.8566283889150927,0.8566099327657808,0.8486898531553804,0.8114962929397826,0.7796548737385764,0.7607989669335873,0.7424685368819133,0.7476387513857006,0.7635736148916776,0.7993126205349919,0.8213071007497428,0.851270093116685,0.8965213730619208,0.8870682082162231,0.8161126475354123,0.7581823474833977,0.7105275070843748,0.6414858551692295,0.5601396454689178,0.47905162967091064,0.4141709206061637,0.3397169075345907,0.25830960670781566,0.177092987340826,0.11010590703292422,0.043408704189359604,0.030091756893142474,0.0810534064371673,0.1582982321310391,0.2203085444229882,0.29776632491763033,0.35987420938735504,0.4388452566824208,0.5124083024246673,0.578127451221615,0.6570210302647812,0.7156850411109543,0.775394539159806,0.839885057840295,0.8941925891972371,0.943411641935973,0.9740349514084112,0.9764785370259776,0.9916710663563686,0.9999786240075093,1.0,0.9999999687481917,0.9989575996581115,0.9788381207841912,0.9542009380384302,0.9206787943613657,0.8761574933602958,0.8387709866064936,0.804994802236203,0.7643556433102341,0.7611250064207846,0.7714280257675799,0.7935808440848615,0.833305918607556,0.8675513956268586,0.8960970638246004,0.9233136680288228,0.9485125029049168,0.9690436320608553,0.9883975007380199,0.9941332464526793,0.9767656073447917,0.9760885057838813,0.969237786228593,0.952717779780131,0.9522095154300905,0.9524661911705188,0.9664892480622065,0.9760789253864681,0.9761048587253542,0.9767913988198869,0.9911509864048407,0.9777755490362185,0.9737397085475097,0.9530957849532538,0.9170966250610992,0.8741591021267876,0.8514837010509777,0.8329264670368914,0.8157418134580601,0.8352919790974589,0.8754270011830032,0.8985736364408261,0.937523498418849,0.9658221818586128,0.9670642912792591,0.9000362408015663,0.8205622897188856,0.7736846201853558,0.7035557619108372,0.6221750771818426,0.5447741108575728,0.4819510302235659,0.4017747070815494,0.3203435979092597,0.2393143423337789,0.17458963229375257,0.10170897056150574,0.054344504245531944,0.07288233593538429,0.12466481890538406,0.20210219728021173,0.2642183269480558,0.3415702900668016,0.4040863197625191,0.48198397357769185,0.5500287714118044,0.6211856158878524,0.7025712604941701,0.7811469794076293,0.8387156370388116,0.8976848682688972,0.9483088800180388,0.9747588099922355,0.976104503794101,0.9761047314858491,0.9761047314858491,0.9761047314858491,0.9761047314858491,0.9760820465981421,0.9673953995954827,0.9509239074024274,0.9146083228416733,0.8711705989667466,0.8219415021511698,0.7786381613800795,0.7493204393055564,0.7374211919876874,0.7526965695954653,0.7832451225148525,0.8090407168550353,0.8347419865132135,0.8550818837001337,0.870293781719798,0.8812415471301973,0.8993335240331968,0.9044119477983013,0.9038014005508055,0.8865252249890947,0.8805306720093369,0.8765684819435235,0.8579262057983761,0.8566286110261605,0.8566283889150927,0.8566283889150927,0.8566283889150927,0.8566283889150927,0.8566283889150927,0.8566283889150927,0.8567833262539031,0.868663288469909,0.8540984721063962,0.8072871599423039,0.7664440821856418,0.7460419651001349,0.7394090579816504,0.7595562898414028,0.7921462900461389,0.8267468435972578,0.8667940017740423,0.9024453125529055,0.9239130013199457,0.8795244800132127,0.8176529303961808,0.7528287171947894,0.6797736150753386,0.6052974998842711,0.5403330529276062,0.4594046397419649,0.3780673626128732,0.30817506372729975,0.23890634528255728,0.15757465120698422,0.07642164554300912,0.014865283398734608,0.0,0.05118459501781203,0.1192047993132408,0.19005253264495048,0.2711129670173924,0.3379366402421682,0.4092921191827341,0.472193698651834,0.5493657287535174,0.6290602533496399,0.691494546496727,0.7652610546254661,0.8278318677094916,0.8910664313253722,0.9410811632023695,0.9730186936853613,PM
0.5897170375310927,0.5898280655666492,0.6018296059991664,0.608423349433123,0.5867359714084066,0.5596622542433791,0.5198817823559527,0.491264751375454,0.5076996822882616,0.5388544542378981,0.5543777832567227,0.6061620027702683,0.6525638002494731,0.6874072793715693,0.6997750412590524,0.7062683444925226,0.692538030930097,0.6298518503251853,0.5713942970425383,0.5385731077606128,0.4845169243542906,0.39952760754528516,0.33194319148115126,0.24691277633041686,0.1647674535149748,0.1401809642851597,0.17335936157674858,0.21825028048845319,0.2811309090684908,0.3674173583480038,0.4552175264535685,0.5430178644625552,0.630818202471541,0.7186185404805285,0.8064126433658321,0.8889357185920796,0.8814403503931829,0.8171796054683891,0.7522632568001879,0.7012741959232742,0.67869151103887,0.6501255490264612,0.6385298091855947,0.6186389952545563,0.6145334510532403,0.5969095777773448,0.547504904249092,0.5103377335099935,0.46656108610810376,0.4222231412108308,0.371711988068018,0.32516727050314564,0.2784678946567447,0.24294578300795155,0.24182885987843417,0.27390759530805076,0.31785928845263545,0.37249179171061453,0.4359523614753926,0.49788803586511987,0.5557024514135391,0.5888818906719595,0.6132957026723438,0.6377445082946473,0.6398036552990374,0.6397968986059541,0.6339734087534397,0.5990719966900193,0.5707887909857701,0.5615866277576296,0.5415685151118645,0.5410836846891223,0.5607384049207318,0.5645613003636654,0.550404587010553,0.517238596811334,0.4891599515553131,0.4490957494647865,0.43950521943994714,0.44108779987931834,0.47004348293472953,0.5215751992461928,0.5700696658299287,0.5994300807817496,0.6058135472120418,0.6145800428273174,0.593645003029788,0.5304435193923234,0.47645461132292466,0.4378565292971399,0.3763052036112837,0.30897942872822215,0.22422301040449089,0.13643979832615294,0.055049130456026774,0.0,0.0019910707841930275,0.07503663365491375,0.1428238002302793,0.22746846209515859,0.3152673232513239,0.40306766126031146,0.4907447556053426,0.5658335022791037,0.6415172092478145,0.7291425529190163,0.7959907320070365,0.7577417212810187,0.6870984347074978,0.6285223662697352,0.5839441382091999,0.5476591518434808,0.5254047631401408,0.514655237023232,0.5075609574878199,0.47831400615234054,0.44355585180982393,0.4170571162257093,0.3737864922727119,0.33710187171011263,0.2931391805355945,0.2421263849701547,0.19814806863841383,0.15558016000593167,0.13922802800859113,0.15521169757584774,0.20077915845822458,0.25905988537804037,0.31759368607102667,0.36941279997266685,0.4336656751433696,0.47981839198413256,0.5237000791723845,0.5603798185011368,0.5825493037676632,0.5897039886529467,0.5939426327048056,0.6134945995714296,0.6068979346988574,0.590181966800523,0.5817669908625231,0.5678194799748941,0.5878065525649112,0.6043248736611395,0.6147167099662343,0.6091223262210126,0.5742593044339341,0.5323669484923097,0.49323994885748634,0.49736650920223413,0.514475715446046,0.5324928671020461,0.5800923632402726,0.6454497125197274,0.698872325798098,0.7176764881844879,0.7378948111397743,0.7200604106143635,0.6563963029605282,0.5903298322099642,0.5428654759050358,0.505642249306486,0.43852214038865833,0.3515068999792348,0.2645293877614079,0.19536349423146993,0.12673032072849866,0.12565052032311774,0.18120498257659357,0.26282555721186807,0.34515075343718804,0.4142465670910549,0.5011801195052521,0.5889804575142388,0.6767769268246115,0.7609929344802757,0.8119320395038137,0.852399840367172,0.7970989778930408,0.7312364773465831,0.6792221032740939,0.6280460359885143,0.6138395491285702,0.592706731039017,0.5695287811444181,0.5862668127235602,0.5715718114990529,0.542099908270917,0.4991775976090209,0.4605448339835996,0.41352013197554705,0.3746067103589925,0.3307362615885414,0.2868398094391966,0.24741818162091134,0.24001234622290246,0.26573971245778294,0.3093883117280254,0.35807807010555814,0.4192872709004387,0.4788127530367441,0.5329214832269868,0.578961103638441,0.6219403242656365,0.6418424538267131,0.6623491500566785,0.6648470099262389,0.664848199250192,0.6646287779270295,0.6500671544337098,0.6385533960916097,0.6186929849368004,0.6148447406541222,0.6249353646624498,0.6420387809943464,0.662143950943666,0.6452501498974805,0.6109817831359154,0.5849883101394284,0.5504216540048383,0.5422631957557891,0.562687537429087,0.5869963072875808,0.6377906311367973,0.6922362015419936,0.7328093344178455,0.7544806412270586,0.7643988311492813,0.7395386156982693,0.6828395367116742,0.6183195801418191,0.5870171721829975,0.5286525536145263,0.4442876646596736,0.37657074334944385,0.29091252159101444,0.2228027020338419,0.2318027408846901,0.3098993522840314,0.37987715583039927,0.46112566756159135,0.548910504597385,0.6366105032456653,0.7130067728106417,0.787425828510536,0.8750680282369756,0.9620155773212278,1.0000000000000004,0.9333686780288102,0.8673880226203212,0.8065453172312362,0.7647819295029534,0.7284794750919974,0.6986294896392455,0.6899372888561337,PM
0.35955029437015273,0.33177862798282654,0.32837115001998907,0.32837092262180967,0.32837092262180967,0.32837092262180967,0.32837092262180967,0.32837090908620326,0.32812585044442955,0.30770572792053486,0.319989465350063,0.3283631492591299,0.3283708387010531,0.3264327691720652,0.29990996689682614,0.3176873712495478,0.3168207553824134,0.29304522063781313,0.26571944552465077,0.2564840805846602,0.22606465385039254,0.19462481626843076,0.15749538673402874,0.11200789669136135,0.08088032682995827,0.059185153300771454,0.07270898467108289,0.09464648311007462,0.13036678850597472,0.16461695637023777,0.2060189276586799,0.22732125236191703,0.249263379952831,0.2892289311352414,0.3088613607559392,0.32815976329998175,0.3283712826689271,0.33419508073833804,0.3605066382361528,0.36461126750812234,0.3929165957794343,0.39646923183719807,0.42242366671415255,0.4561699474940317,0.5165822470527539,0.5831738190154283,0.6494860808834693,0.7321333528008553,0.7955541836733317,0.8510714583004004,0.8656903602274166,0.8339892653118133,0.7848869822072784,0.702784538734722,0.7078101992443644,0.771371896211301,0.8620609708960618,0.9485672485584189,0.9948229359666989,0.9846484576830052,0.9253680932412722,0.8337454872242125,0.7607722496012039,0.6816966945992089,0.588974904687813,0.49854894978649167,0.435239106132145,0.39643103450825823,0.3952882012673893,0.3720047433513667,0.3619142981983936,0.3450664963133452,0.3113208856799652,0.2629465887277229,0.2387405254070547,0.19286054939988428,0.1698730248588065,0.21240678698600757,0.24316820810680806,0.2641431107340946,0.29232004238763576,0.314279501852452,0.3444047319127579,0.36188691948918805,0.3620610829685944,0.3620529873127438,0.35332429318941294,0.3289726729756355,0.32837092262180967,0.32837084086675006,0.32649177362813564,0.29964746941378984,0.29468107630108165,0.29468076227502404,0.29468076227502404,0.29468076227502404,0.29468076227502404,0.29468076227502404,0.29468076227502404,0.29468072383390354,0.29398170240275334,0.26962908975030686,0.2608158454110914,0.2426693326445779,0.2124990813424601,0.1818099810568503,0.12896953428803126,0.0747408479673668,0.054261905172408476,0.026462532461801302,0.025837096190765685,0.05484590103104825,0.09258625851371693,0.12397564291694163,0.16007833900206414,0.1920085439158985,0.20660081009384967,0.25762267929987814,0.2792983284128585,0.3204899668146428,0.32836379384547154,0.32837092262180967,0.3283971333840432,0.34271954039695984,0.36185300663363495,0.3620610824271697,0.3627817483437674,0.39299866270614814,0.45403453646877256,0.5242417639535972,0.615987906121731,0.6831761962920426,0.7658236106040031,0.8302628493275535,0.9020374579399304,0.9641453265588353,1.0,0.989159179412634,0.932985889192854,0.8427958664424233,0.7758973618975622,0.8286404831829737,0.9141135019274289,0.9330133512519749,0.8999609960966017,0.8251680456007504,0.7324621204389334,0.6477762624416412,0.5799843073260798,0.48790442960312586,0.3977095185160051,0.36250588442104537,0.36206105319026083,0.36159804092060455,0.3383069170729591,0.31993279277002884,0.2784281565914206,0.25737648495139975,0.21833409718106545,0.17411465376255375,0.18502777044404883,0.21599407108994217,0.22807045399414427,0.2594479658426234,0.2961255536262781,0.32756498963807257,0.3588283002825685,0.3875293101095423,0.36717785068147624,0.3620601855892236,0.3595918894142178,0.33177862798282654,0.3283711500199882,0.328326244590877,0.31718418700581186,0.29504523267318383,0.29468076227502404,0.29468076227502404,0.29468076227502404,0.29470407866675696,0.30788731670128566,0.32747170773453593,0.3034823885458158,0.29469315939001195,0.29839636214695453,0.3216260340020183,0.2961303996897877,0.2854986469115737,0.26154519719625213,0.25642852679787786,0.21704063150666553,0.18444848719307583,0.1407235490041252,0.09424205951448705,0.05750862755192898,0.026073192363069708,0.0,0.025221102123028416,0.06298600355155592,0.09723663567666829,0.13865530765284362,0.17031007080912186,0.2006487626259732,0.23208231061829476,0.26351568318916385,0.292722848266715,0.3158812828051696,0.3282923317353239,0.3283884502725414,0.33929346242511116,0.36177505428881584,0.3620610596873517,0.3620790241008267,0.37315612048768365,0.40417385214727286,0.4820060998866884,0.5600303486499882,0.6312580730949175,0.6955022079404127,0.7673039840532248,0.8403359209693724,0.902971328065127,0.9562451774639023,0.9681961397134966,0.9392021244339128,0.8519614396798278,0.7894666326708455,0.8211258627606162,0.9081993541064595,0.9578533588376734,0.9383276181580857,0.8774089726210237,0.8077185243122207,0.7164644983909207,0.6492052328408402,0.5636007356761574,0.47101928421054406,0.39602432176906444,0.36294359510262986,0.3620534798421833,0.3537696842860161,0.3279037237209952,0.3016418256414033,0.2839376481626825,0.2528305386778902,0.20973559218579219,0.16848243306867605,0.18944483629314846,0.19419755515344495,0.21881689313354435,0.2514927628735597,0.29725807288402795,0.3277389894472682,0.3533242352570207,0.36205297594283525,PM
0.7685495185714215,0.8284269107509106,0.8824287023916311,0.9132844582338713,0.9709115109122619,0.9915362623007313,0.9723828990589256,0.901874124016893,0.822730148473175,0.7248945275960841,0.6452922567180206,0.5439775290846223,0.44041788962695794,0.33686913250411266,0.24155908312646623,0.1792468057726886,0.0936048899237214,0.034998825722012405,0.0020845806137206324,0.0,0.02230894083383106,0.11102940891468815,0.19303310020506714,0.26422381868337474,0.3347008850014106,0.31752130157266567,0.265434238961614,0.2565021284263054,0.30849916448047576,0.3936433216487041,0.47301437417699255,0.5547327865891152,0.6492132499907646,0.7518445425877918,0.8327782666017836,0.9072431631435514,0.9539159286184544,0.9619174633779517,0.9618704199412562,0.9485434892327271,0.9320469014760295,0.9268591204589889,0.8952999660435319,0.841131950758288,0.8116415523147982,0.781313545127694,0.7276109802405957,0.6834601417920121,0.6156064441480176,0.5719936796863472,0.5500784179393756,0.544785646833347,0.575813026141792,0.6221933116417864,0.6739252473000485,0.7192303818238539,0.7613213202691727,0.77975731773215,0.7574551149423474,0.7773187074607453,0.8077846770493151,0.8115347712391161,0.8043749854725579,0.7591662381393398,0.6953095074256792,0.6589622481912496,0.6107612562730287,0.5589601323216185,0.5361973293752778,0.5164436771409475,0.5550368053107197,0.6095400348656055,0.6774706324253774,0.7402394115367175,0.795861220176298,0.858789273208818,0.9099644980873487,0.9468315603734396,0.9656913060317995,1.0,0.9701670967589306,0.8840212518797044,0.8002361523154722,0.7059351159926663,0.623068320207004,0.5201519991920653,0.41775390650819766,0.34670770354359437,0.32559329208375054,0.27282204041447233,0.24659950766608318,0.2952914956880699,0.36772336407204786,0.4456567499577444,0.5431485881474787,0.639781442927462,0.7203088810619684,0.8008069395072202,0.8783147372379432,0.9290927614353022,0.9404222957003343,0.9610285012536224,0.9407554534840878,0.9359237917346901,0.9589125284791278,0.9362004927604755,0.9047708191858579,0.8771573208142209,0.8427121254494576,0.7988676904280005,0.7360979263059066,0.6805716952774166,0.6291314026402253,0.5903280327014819,0.5714187985514121,0.5850217476152642,0.6226228340974922,0.6806693205954302,0.7108662076562471,0.7494763524401851,0.7775945975515786,0.8002306851978398,0.7826576432390375,0.8003007323690499,0.8115145901142347,0.8112650571395124,0.7896349113388172,0.7265772722393349,0.675003839815945,0.6476728778879925,0.5994297600303184,0.5717847398304174,0.5809799522654302,0.6202302388778698,0.6871080915707797,0.7473602961645733,0.7887133843602792,0.8370721016948002,0.909110110421234,0.9318570491104783,0.9483104188541942,0.9851840572052923,0.9424842198551504,0.8594523732117674,0.7564058417955115,0.6543053003679855,0.574282877673598,0.489290759703775,0.45321293776678306,0.4573790288230768,0.39075501247267486,0.3128556895095791,0.275876212255894,0.315789810898389,0.39408385325434026,0.48401692478954317,0.5870409442010418,0.6707545524583489,0.7414056613275459,0.8187872816008062,0.8746937165892872,0.9177593843266711,0.9363961090677613,0.9549562207953883,0.933258430653968,0.9271885738145853,0.9031980046919204,0.8712727197839287,0.8418188889162828,0.8194355568875675,0.7700047503834826,0.7309489733356278,0.6759868982336021,0.6134926585753613,0.5615096593167266,0.5182133813711634,0.5337903056298545,0.5623402736991414,0.6041240938097738,0.6554218947544213,0.6962218149463899,0.7461739869988007,0.7782226019933853,0.7986221423065833,0.8370853358633212,0.8221057819505635,0.81160496825468,0.8083451722768338,0.770242730821959,0.7308546516096444,0.6667522862862576,0.6077470623783521,0.5751717004144492,0.5116611156939754,0.4620383580797869,0.4368068001776546,0.4440258353426554,0.49551035529019405,0.5635073799077288,0.6176402751239047,0.6726041918805503,0.7358957525015528,0.780705096814974,0.8093785397878657,0.8214705553073198,0.8593429441499376,0.8018370841505682,0.716259583813172,0.6251697920103858,0.529408977971161,0.447422947339847,0.35202293142410124,0.30419103987197715,0.28381621303041715,0.21402947919417326,0.15391660202366264,0.1760746915228948,0.257816944260683,0.35038745597072296,0.4345796620029807,0.5194069460432162,0.5981856982555023,0.6821556060021328,0.7474681890974635,0.7997844824287919,0.859207843544576,0.8714900727260924,0.8554419491801823,0.8417350800554253,0.8417280684299993,0.8514816614312721,0.8297221900043494,0.8021942864758103,0.7548077271028202,0.7050680981915507,0.6656441271556943,0.6088064362730989,0.5408921863717415,0.4942405769923228,0.45629830763397017,0.476167265801144,0.5034258983287936,0.5544996121243884,0.6225187238557197,0.6746588670426643,0.7024722733441333,0.7456124248230847,0.7750021226802444,0.7608990330970897,0.7830927938718606,0.8089731343552531,0.8115455702572474,0.8091559459913622,0.7681724211431504,0.7083950486726538,PM
0.39686884305027204,0.36765111533558037,0.32672861605312264,0.2775572628845888,0.2229786655408721,0.1635212372960415,0.10175105694833753,0.044101355164797074,0.009434749932136999,0.018679275362174508,0.04743259713087444,0.015849652433889583,0.008231613618705058,0.04375824177174947,0.10156347864745574,0.13301656943953777,0.07469206218189028,0.015101258063306977,0.0052594704744939325,0.01282586919084161,0.021331504041122606,0.03244315794836661,0.08794624162341758,0.11308182900482566,0.12558088155677383,0.15286694737175321,0.2064399164037325,0.2464491584701063,0.28778037073367213,0.286565793912563,0.24992323768866842,0.21587830877227798,0.2235199662284424,0.27615481794733276,0.3251651904106907,0.3648857093040936,0.34148070191970903,0.2750574878779164,0.2059709832937997,0.1395299833080308,0.08267857843845494,0.09718700675326741,0.16797296749650314,0.24001513989236578,0.3196078097538202,0.3930451847412699,0.4707017356889771,0.5520983819404861,0.6275337693258904,0.7030105008521474,0.7844105272033166,0.8620355953637142,0.9285288317437372,0.9214024757522579,0.8468454953902167,0.7744853355220875,0.696266965286034,0.6240798681495685,0.5513274294525445,0.48441596683682664,0.4251150400236512,0.38850447509888997,0.362441570786751,0.32049513179192,0.27036205092998444,0.213245118120843,0.15422131800313443,0.09945221930644976,0.04483372012611242,0.009734784686865838,0.0323944600674817,0.08223756409933047,0.14155410514768518,0.2010294908954413,0.24850679971753142,0.287301724749087,0.3022077903699534,0.2801530898559086,0.23598593469719864,0.21320970352366553,0.2477492089015101,0.30095432700057256,0.3447059535796446,0.34669801397695177,0.2885569971106332,0.22118812922926745,0.1520586971550213,0.08501162586281441,0.05363485714237837,0.09850801879133542,0.16945959598432503,0.24528270034874677,0.3267429765422005,0.4082976494252908,0.48980573474852096,0.5668996686525711,0.6408148983827264,0.7220370166497794,0.7996884959617978,0.8730621032018815,0.9387562618250664,0.9066937640523884,0.8304204313490755,0.7573927576725004,0.6833521739928419,0.6100796633007499,0.5387959741115773,0.47111907027568667,0.41470239323465585,0.3777199147765542,0.34889291549610557,0.3102871921490411,0.2547309276488885,0.19581848234237365,0.13657067010229174,0.07874010089245309,0.02574529240411705,0.0,0.02850572253865513,0.07689407509855717,0.13365244038896584,0.1805104331218106,0.23040956629725584,0.27887093110997374,0.31056300654260593,0.314175920564854,0.27974821294738983,0.23904868828630255,0.24970651927873,0.3052833058204889,0.359288358735675,0.39761128853240524,0.3850518295208041,0.3233723654133105,0.24884444846723186,0.18007683395476426,0.11992422604790898,0.12542938540175852,0.19124079723871956,0.2647386923834738,0.34573426186650846,0.4204833055106574,0.49666842316825854,0.5774361947803512,0.6501067546161077,0.7288129979375639,0.8083425014490133,0.8805822224082174,0.9570867398847553,0.959326799857956,0.8867844847418096,0.812982067351528,0.7380355880658989,0.6627376315732929,0.589515413964915,0.5224944532954343,0.4691426671848904,0.4311919100801431,0.3950854590992383,0.35797794685719153,0.31025641331191145,0.2550453948416047,0.19242879264350132,0.13349015909864925,0.0788860407734,0.04111267202227098,0.045479773119201594,0.09472207556775913,0.1472618562158401,0.2002039128864519,0.24973196769440031,0.2900145461567394,0.30747112877099947,0.2778174414015939,0.23966198842063458,0.2455182567100591,0.29000109057527745,0.34384980212890315,0.3882689146643672,0.37253904480254696,0.3097670990952561,0.2417099998019827,0.1724760025807941,0.11331377364377593,0.11793841403157646,0.18323255949931938,0.26077673190227024,0.33384669919036347,0.4142287460602405,0.4870043114470308,0.5655489623171237,0.6439974416622942,0.7168193507138534,0.7977573078827238,0.8767045521853338,0.9453520091926595,0.950575202649574,0.8821230714867527,0.8080424605067733,0.7321723587897602,0.6591624268935006,0.5816280069629041,0.513828252545667,0.46468129562128246,0.4336543598177409,0.3964564511136015,0.3515200480127627,0.30109157118201746,0.24846029409929127,0.19048186124069955,0.12991690266320455,0.07054677918725694,0.035976535185310965,0.048363272866316365,0.09898356228922056,0.16116262105565804,0.21447351578126717,0.2631867694838248,0.3022992434001106,0.32016043742447864,0.2933993349103068,0.25307976934739296,0.23835975935603626,0.27994053285138754,0.3336111673435418,0.38186117948733966,0.38163363727121946,0.3221162284598422,0.25256977812549786,0.18429960765423536,0.11502494863482826,0.06666040027026887,0.09842358694564934,0.17635416677496862,0.2492288284747637,0.3275158186072582,0.4030120778096047,0.47841292949678826,0.5596111840860785,0.6340672067132351,0.7105729044587716,0.7919993465184263,0.8686262871538049,0.9427886880055236,0.9999999999999998,0.955542532006443,0.8895068924707019,0.8262727124067031,0.7546288768658929,0.6765716825411234,0.6051890036578589,0.5357566925556554,0.48058354394574887,0.43549608073212176,0.3949693087117654,PM
0.4100821810580919,0.40737462644876365,0.37704224278617926,0.35722691983543653,0.3706607926038956,0.403305367419899,0.437960544244302,0.48168592594986515,0.5186355237962623,0.5565297502786797,0.6001763872497292,0.6341205708107258,0.6740641680036135,0.7069378213941537,0.7392874777008964,0.7663889648595135,0.7921802522291228,0.7951107803151778,0.7803531544066986,0.7594647707374687,0.7381825783857565,0.7218234449754346,0.7005209155673924,0.6848484043549756,0.6743437628912357,0.655890923559223,0.644517589511276,0.6269392234425981,0.62434033578327,0.6144336053903172,0.5975561028702747,0.5809820212776005,0.5780079585653313,0.5936568714002048,0.6206706281696845,0.6456618534549803,0.6750050831408376,0.7044515075293714,0.7338946391478121,0.7632973594969423,0.792723661953038,0.825345579510022,0.8497477762467314,0.8634525276726894,0.8658341714664337,0.8577387135594889,0.8525534283411973,0.8499346126782223,0.8445468106364247,0.8524271192017829,0.8554185847046154,0.8541344754622402,0.8409409861118189,0.8458051082464004,0.8527051001018726,0.8617194623488607,0.8659284286224282,0.8669650829970756,0.8776752048763441,0.8793934247192545,0.8860573628270052,0.8966128533370303,0.9016204685656797,0.8763821713444642,0.8505933767765963,0.8314755025375244,0.8141010603333767,0.8103944277396506,0.7900521504899152,0.7527764788567228,0.7186698156849298,0.684437883501879,0.651005262308112,0.6173567476906829,0.5935392711127092,0.5671529679621143,0.53783301911761,0.5128625548600871,0.4854766372909134,0.45865969576428944,0.4345936642497472,0.4146330673932068,0.4193900105824735,0.44061017612750053,0.4527754746265431,0.47158366921760453,0.4888665470792224,0.4905277663698875,0.4900667689532272,0.47306064869111686,0.44031913101665787,0.3967550863268188,0.35269476270661926,0.3086409954557878,0.2685318664360563,0.23366767956963952,0.1898606260013611,0.14580027408408092,0.10177252885403498,0.06352756950807792,0.027696497756861005,0.0,0.0023114940177402232,0.03156014443668731,0.06424506262111707,0.10699751585783046,0.14372403595682548,0.18182028647935655,0.22031027334852626,0.25646525255684627,0.2925134731358887,0.32956445957942426,0.36005648098004595,0.38455280625898425,0.40655846907044,0.4214186599681602,0.4113861677499153,0.41008457154295064,0.4100757581473522,0.40543851304584644,0.3968789599728455,0.3958886916358686,0.3838042741185861,0.36545072534666256,0.34559783127924026,0.33170861360141757,0.32964118948014276,0.3296607725353322,0.33448932156134537,0.35534399624212143,0.38381879924808415,0.41204089765782803,0.43812218101096856,0.4674188245468065,0.49188956879574897,0.512716818424028,0.5333408539693172,0.5578237751300652,0.5708224443228638,0.587200001034301,0.6170612667828814,0.6370702095256731,0.6662604823893516,0.7030872851524055,0.7326213024039447,0.7657951359647097,0.7860592519255507,0.7981170818974144,0.7988979580275399,0.798898086136141,0.798898086136141,0.7988979888970824,0.7982176994578014,0.7892288019939089,0.7981224293612998,0.7988979590565244,0.798898086136141,0.798898086136141,0.798898086136141,0.7988923534486825,0.7953180805082611,0.7857781472409615,0.7854907238498796,0.7854904808808556,0.7842664931680636,0.7728947336723262,0.7587661036229376,0.7368765737628669,0.7148576380872285,0.6947375315685866,0.6807491044917262,0.6844627663752199,0.7063688538737576,0.7339675191503787,0.7563316917022631,0.7740804270230834,0.7937010341482755,0.8107906984256597,0.8123041535429467,0.8102117222040153,0.7894472583510439,0.7484981056794793,0.7044416823723825,0.6604544852951022,0.6236293551919474,0.5856314153292599,0.5416075702341356,0.49754719374984435,0.45348681726555395,0.4094287646787109,0.3678160746733137,0.33744202904651077,0.31845089387212,0.3312889500473408,0.3641204668067113,0.3990689609109024,0.4422422310716012,0.4758641888408055,0.5176843034098779,0.5595439689572885,0.5930162355844899,0.6322597733354482,0.6669129771207942,0.700047015159736,0.7294780611057334,0.7554637097344246,0.7712804325945528,0.7791443243419616,0.7854442270073261,0.7854823624764233,0.7806220997154243,0.7716799602851776,0.7609585353802932,0.7499226044567286,0.7352952616652846,0.7184693532904209,0.7016493710231588,0.6828829269890024,0.6757625222560535,0.6654567789258159,0.6707531621208911,0.6894627786914402,0.7218560324682828,0.7511702938058129,0.7806059418558633,0.8100523662443966,0.8394987906329294,0.868851440699667,0.8943135883838067,0.9216361138207925,0.9331881254897578,0.943405276516341,0.947547533318778,0.9583897317340646,0.9598693941824952,0.9669177841733119,0.9747990847476526,0.9952429057093182,0.9999999999999998,0.9974108872606775,0.9788863323397219,0.9570935952359674,0.9409748172430772,0.9262793279879793,0.9196070826939005,0.9203333741552273,0.930807678193885,0.9330054317073604,0.9389673225296644,0.953461483459159,0.9568054420139098,0.9428856512336667,0.9170467161361693,0.8806038739547535,0.8482896290608097,PM
0.12837830432430763,0.13357821634319178,0.1598334080347119,0.18830671955846445,0.19293369565720475,0.1817982706695518,0.17177456851371398,0.1510841291285605,0.12434560701912489,0.09253864089122277,0.07282607520070683,0.06781848901986387,0.07451190997461854,0.10728779349439055,0.13870475987991093,0.15375856574209834,0.14222113645361678,0.12165457151176096,0.08872879821486856,0.06974438614986056,0.0653855651479529,0.05065387528959153,0.027692747860936118,0.009685182158961192,0.0,0.012052785967593627,0.040543291231647016,0.06624819125472503,0.09452568829340047,0.1247565861709039,0.1521426660620988,0.17688672211839496,0.20377321419582617,0.2159270743872821,0.20961193764585495,0.20993243287118535,0.2174642380898839,0.21151033273190878,0.21576613785486032,0.21111525870859427,0.2141492022497875,0.21041536214324452,0.19964920030759514,0.19917325017808452,0.2008075747428406,0.20573419828461414,0.20011985607213822,0.2120179614793698,0.2157140500073087,0.20267471899956768,0.19063029503721318,0.18240796674851723,0.17462205335997583,0.1746641880718227,0.186473799769995,0.20877793238462417,0.22939964894433995,0.23915247662523176,0.24392694952764948,0.25053362594885664,0.2568663582349302,0.2502873584113947,0.24225496100069988,0.20904289959690048,0.1821544085689093,0.1523310824383297,0.12850035407085603,0.12315005876462326,0.14391938185276842,0.18060302961397512,0.21395637430171055,0.25409772902320893,0.29543123131966476,0.3316086373983169,0.3682842258726984,0.4096520848574272,0.45104498789128433,0.4886684321084245,0.523916293734475,0.5652073119541383,0.6066252301099575,0.6480431482657765,0.6894610664215954,0.7308789845774144,0.7721935100283783,0.8080658856522849,0.8450562605369414,0.8858464462163571,0.9194702620570347,0.9571482616482552,0.9785321424160722,0.9568378506689088,0.9180040165341756,0.8844157360739211,0.8454706929328855,0.8119460442364193,0.7719951888317511,0.735550597729707,0.6991513513203307,0.6578136498254379,0.619636009412623,0.584904035456526,0.5442361180179887,0.5106238605090194,0.4711451337027823,0.43632007117939486,0.3982080753718942,0.35681679075695305,0.31817704010977077,0.28712594275827485,0.2653061982900593,0.2566189221867552,0.2544041679349349,0.256015319229113,0.25238798341087487,0.25290025638732394,0.24634015018656696,0.22320963603261834,0.20936456311749008,0.19468235110426035,0.1767447363471526,0.14719996034569793,0.12141534823970579,0.09627556419857664,0.07088061163113424,0.04562991660296434,0.04400093631229551,0.05716249974680854,0.076278107998901,0.10721573628409464,0.13254357356870727,0.1624762492610199,0.1915418058060283,0.2212194987038847,0.25100226581058793,0.2691413218586507,0.28258403323512704,0.29014925538340086,0.2875108122663359,0.273809012095831,0.28150646336045604,0.28423043205667553,0.28931627652573,0.28292909662836263,0.29343747317141866,0.3012494538040076,0.3093373386371836,0.3131399623927964,0.31340585734226356,0.3104683895624738,0.3103878361366923,0.3051353376719641,0.2914950883201124,0.2725994514261749,0.2747936987674062,0.2545941605659743,0.2429226283716266,0.25774771305900446,0.2829696906548014,0.29841563949350025,0.3116836287357987,0.3220347212359802,0.32998112024584825,0.3238235420262012,0.3119657397659623,0.3190972195219035,0.3086786934277741,0.2798326799106894,0.2542428666676393,0.21774381218711802,0.1902142652668617,0.18000708894669581,0.1957293688274031,0.22996406138895975,0.2705450210318514,0.30393004193158246,0.3439556701259401,0.38507318809478863,0.4194285839998313,0.4581001272953864,0.49950992453456267,0.5409063213742817,0.5787868980074011,0.6138137624590345,0.6550651516312738,0.696450368292235,0.7334924981274789,0.7692804505080937,0.8106203105566827,0.8516683867727499,0.8858458207810753,0.9247643155180003,0.9661494445852106,1.0,0.9829444698622489,0.949969130811509,0.9127236113931856,0.8788973719136042,0.8518154824936883,0.8161718389763517,0.7826306038803201,0.7427782911664749,0.7016402573574494,0.6672321849941842,0.6286413873138958,0.5902509842504324,0.5557025055809632,0.5159731688186899,0.482542494952525,0.44361493072367586,0.41011733780058934,0.3760335703178095,0.34566515301407486,0.32147459876917206,0.3080240148660882,0.2941500321630335,0.2810510007469571,0.28001547242500857,0.27400494311765433,0.26210362074005245,0.24830234893887182,0.2327963621365794,0.21773360129519403,0.1950573899581598,0.16928519288717947,0.1417502242866162,0.11799709457341301,0.10234899440641687,0.09017101397373506,0.09806795962125103,0.1227050338998843,0.1485223799398243,0.1772763129780326,0.21055671135568166,0.24025842106772655,0.2657426281653128,0.2931274759073601,0.30977194777365846,0.31651439444601626,0.32429413318051314,0.3252129928897156,0.33044231182702166,0.32209506189398374,0.3113862128356637,0.31582692156317727,0.3108476801407887,0.3104514949924422,0.31009466178278133,0.30281297616401526,0.307081424299527,0.3106684829008053,0.3169420345027425,0.3060582459933896,0.2842142814777462,0.27608917634433827,PM
