0,1,2,3,4,5,6,7,8,9,10,11,12,13,14,15,16,17,18,19,20,21,22,23,24,25,26,27,28,29,30,31,32,33,34,35,36,37,38,39,40,41,42,43,44,45,46,47,48,49,50,51,52,53,54,55,56,57,58,59,60,61,62,63,64,65,66,67,68,69,70,71,72,73,74,75,76,77,78,79,80,81,82,83,84,85,86,87,88,89,90,91,92,93,94,95,96,97,98,99,100,101,102,103,104,105,106,107,108,109,110,111,112,113,114,115,116,117,118,119,120,121,122,123,124,125,126,127,128,129,130,131,132,133,134,135,136,137,138,139,140,141,142,143,144,145,146,147,148,149,150,151,152,153,154,155,156,157,158,159,160,161,162,163,164,165,166,167,168,169,170,171,172,173,174,175,176,177,178,179,180,181,182,183,184,185,186,187,188,189,190,191,192,193,194,195,196,197,198,199,200,201,202,203,204,205,206,207,208,209,210,211,212,213,214,215,216,217,218,219,220,221,222,223,224,225,226,227,228,229,230,231,232,233,234,235,236,237,238,239,240,241,242,243,244,245,246,247,248,249,250,251,252,253,254,Target
0.8532896119845503,0.8305912210817659,0.7994539780225285,0.7733886849394991,0.7585711015799572,0.7520153156124381,0.76465496501958,0.7508272566305938,0.7643285253140255,0.7708188930166675,0.7708340045182416,0.7725433104941422,0.7788657679612334,0.7845332954968991,0.797946426582397,0.81241802124977,0.8256760568316088,0.8333683385549029,0.8334064357336048,0.839114257499797,0.8538172054358202,0.8508244959654743,0.8358896424839841,0.8513250138661701,0.8542086920952623,0.8453281464343689,0.8451821927912953,0.8541746648041633,0.8456200029641638,0.8335792231615327,0.8333938529944938,0.8333938529944938,0.8333938529944938,0.8335117389884852,0.8438004529528129,0.851942444960978,0.8350479347893409,0.8333943337246748,0.8341617084982089,0.8499899271340761,0.8542457360467344,0.8542321751356483,0.8460573487813718,0.8065618510358847,0.7514867414526987,0.6953922128992112,0.6477628647952098,0.5858991389263375,0.5293368714875628,0.4821453843127843,0.4202919071148381,0.3590936984785569,0.3147846808112953,0.27495576124618903,0.23387055431397652,0.18436049277112998,0.130812064135144,0.08619490391972473,0.08486818940430219,0.1252896304329596,0.18038304052778686,0.22877645381551748,0.29067363346708186,0.3528249733059776,0.4149763131448738,0.4771276529837696,0.5392652929750366,0.5953736525061406,0.6431047458370682,0.7048796022618293,0.7670309421007251,0.8291819944441201,0.8898963311708203,0.9257427607392619,0.9552274990977647,0.955340881547408,0.9401557314112408,0.9523349817524354,0.9360591427299934,0.9181341801055138,0.9083320885903166,0.8961443041364698,0.8933653288130836,0.8766144201285675,0.879252107061379,0.8952806846496184,0.8968327170171726,0.9129014595459726,0.9267586967516435,0.9383800699726055,0.9577356527594967,0.9792817972367485,0.9957969395243498,1.0,0.9848453423608676,0.9587921724892472,0.9246537375987596,0.890751484346302,0.8507154481731614,0.8204590867122774,0.8124624684705184,0.7995371831288232,0.7917286016451635,0.7993564380285125,0.799857810167071,0.7917443555799082,0.7990242066387716,0.8002605467862285,0.7937096000732122,0.818018344523133,0.8331151052043522,0.8218870149099722,0.8144207493200519,0.8314173588410774,0.8223408843959539,0.8126502787732504,0.8188213068391348,0.833050980570087,0.8295539876373703,0.8150362324064586,0.8308887020392253,0.8335897352893116,0.8453195024914311,0.8379624318793137,0.8334027120385494,0.8333548576869818,0.8241602835899928,0.8126670192257319,0.8035750771136572,0.7830823182122941,0.7709811143743215,0.7623579399782279,0.7501713997672042,0.7510065508563577,0.7671334278309825,0.7629629861798861,0.7501937012568729,0.7499802126843966,0.7499860927724087,0.7533765061137121,0.7565091914783753,0.7646522948266208,0.7428640088703222,0.6894450935058551,0.6462036721742002,0.6031973717069916,0.5431428481056964,0.49437138573186923,0.4394921105227758,0.3786122861214096,0.33396327222480826,0.27391260578618315,0.21705034646372923,0.17013511536791093,0.1083771569649783,0.0597132401007614,0.0434804925733876,0.07020473674835026,0.12630903260703263,0.18845103504784477,0.25058569608306813,0.3058002995032374,0.3542883299276536,0.4162029843259045,0.47835432416480117,0.540505664003696,0.6026570038425927,0.6645836077468381,0.7136584578080432,0.7597441745169862,0.7534490771960409,0.7333976885420341,0.7306162062295458,0.752916341816146,0.7703447382368926,0.7612968987090962,0.7501318407649116,0.7499802126843966,0.7499802126843966,0.7499898164674637,0.7548038821227201,0.7702737761782941,0.7755734891518409,0.8020971023294479,0.8135301353697906,0.8341072402864786,0.864266770970235,0.8863816480268105,0.9167382097749321,0.9292123228843319,0.9022703052125229,0.8795970129083694,0.8487953344030399,0.8176633162276974,0.7866478806507575,0.7555080903021891,0.7245004268984752,0.6933528643766795,0.6625199669738979,0.6458453040652659,0.632809147503052,0.6407235053242513,0.6457392030291342,0.6537174306054281,0.6743354058746442,0.6822503813054519,0.6745911334460093,0.6872881784825817,0.6877009551973465,0.7022229469322401,0.7082627070444709,0.7085374942316087,0.7226220256457654,0.7312036394738728,0.762187779572125,0.7725806233245498,0.7896822819588474,0.7916340476555841,0.7811627701799715,0.785844608331923,0.8101778093787826,0.8125397830912289,0.8125404429169687,0.8125404429169687,0.8125404429169687,0.8125404429169687,0.8125404429169687,0.8125404429169687,0.8125404429169687,0.8125041437830416,0.8036100281607914,0.7918613771572369,0.7928233009504191,0.8063617851746279,0.7931184080795055,0.7916583839134574,0.7807661009995623,0.7340235197773013,0.6923482805620664,0.643349749222728,0.5888093448859522,0.5398664139942819,0.4779642077767523,0.4227540034743038,0.3742489335118546,0.3123448243319582,0.25019348449306467,0.18804242743662858,0.1273949812386812,0.0826066657736817,0.023935928278556506,0.0,0.018005962780736517,0.06666924096899729,0.12507415354563944,PM
0.18737392753008386,0.17620691418411139,0.16836881632749323,0.16442502314222107,0.16099740527843798,0.1574266545905385,0.16762797149369146,0.1808221541065047,0.194843814071483,0.20531140412756077,0.22363055843211943,0.24544636958180965,0.27680341547809717,0.30819606247341236,0.3351440417927294,0.35447625206361955,0.3465790210745827,0.319490193919705,0.2836497201964143,0.25065299101459226,0.2168942478693634,0.1812928387744679,0.14548554596453056,0.11059993751951991,0.07855438225729872,0.04812826307864082,0.018929960302388915,0.0003289107145065806,0.0,0.002274984386411605,0.007812582292015202,0.018339328761495688,0.04245976322877976,0.07613623722241347,0.10386467613801376,0.14021202726445736,0.17738908705706913,0.22003125301726079,0.26199929472152705,0.2995052236781941,0.34265995252583514,0.3862877086947254,0.42991440301408934,0.4724163962472463,0.5097242789990037,0.5525350713407955,0.5942188637470536,0.6319258141609072,0.6751657990407274,0.7184442527292216,0.7561415262136422,0.7977993272717419,0.8414187820340588,0.8849020222007895,0.9234464355224001,0.9542675303944681,0.9459866439592539,0.9069783309514938,0.8637433882899663,0.8259677903313747,0.7843746179542288,0.7407848594014179,0.7002952325854526,0.6616201410806546,0.6181342582186669,0.5762146055981903,0.5386614665647596,0.49550411518175874,0.4526249987374411,0.41529350263675324,0.3728766876217746,0.32925057375659805,0.2856225097238567,0.24199692577712528,0.19961111662127662,0.16885323624476678,0.16723633492323775,0.17310026903207065,0.16547999896897037,0.15314372184881542,0.13991746139122174,0.1492935644427884,0.16580881667449487,0.16735435657829445,0.171973268032654,0.18163311051231767,0.18377310192745444,0.18183869984615386,0.17359058539965755,0.16350305806618537,0.16129223054047226,0.16521022648415906,0.17244397782706455,0.18686217777787562,0.20284933768851943,0.21764648589038993,0.2409422546372615,0.2696594020910714,0.2982355874396425,0.330399435360355,0.35716442796656156,0.37091192370987236,0.3560204630004944,0.327281475298842,0.2933214959238397,0.2566742514940892,0.22699316500542333,0.20098253974957037,0.1653881062816034,0.13247952465406154,0.0999260994175839,0.0699517003172796,0.04433886980710966,0.028957362602090697,0.027069893418244062,0.032992274322521276,0.042920229404060484,0.05655711681135478,0.08397258707397248,0.12154591342599241,0.15872488261857964,0.2006739204250243,0.2381788839371488,0.2801558687912129,0.320494517528338,0.35931341547995443,0.4028051084161852,0.4455640289121503,0.4828010716171176,0.5254327603447553,0.5690591751659653,0.612687215983627,0.6560985494235072,0.6943722449748568,0.735328167287759,0.7784518885431904,0.8159853778762178,0.8579424378627483,0.9015632440230101,0.9439473863713488,0.9758585113918756,0.972068959026994,0.935799496595517,0.8963403308714075,0.8527899453280208,0.8104320065768207,0.7731081140480935,0.7302055791616822,0.690102596537858,0.6510638652428393,0.6075464096693037,0.5659260159772586,0.5281992129701829,0.48491227868978504,0.441286474424496,0.3987785839736686,0.36151420758682207,0.31866028305502425,0.2760526160651351,0.2388146685070469,0.19892540379674784,0.18953356731344884,0.19154211300747281,0.184039188400013,0.173362113378702,0.17239764779548783,0.18601871214067245,0.19822712094499817,0.20283402845151,0.20865035955833378,0.21472313808294063,0.2168181307936894,0.21678168311444446,0.2129840607925122,0.20243381950691997,0.1925390013291144,0.18910596804448732,0.18912990884144643,0.19178039130994584,0.2003930072357294,0.21598085738386685,0.23738249392719646,0.26544515974445515,0.2940449817678774,0.3209567422748316,0.3472384415411216,0.3598482699340393,0.34297527858154253,0.3158574001277248,0.2836964026001134,0.25096547942533376,0.21824569631953183,0.18553437875709022,0.15280410650564358,0.12009511694527952,0.08934161035954391,0.06147319059108591,0.05340065028560659,0.05853894924392078,0.058700639624502005,0.06059475624966271,0.07194475834136926,0.09878774028813075,0.13650783622135543,0.17990429598096958,0.21900536952435368,0.25902919843782124,0.30007903236541256,0.33823219182006103,0.381621409068863,0.4239849497091681,0.4613312041529367,0.5042491763956989,0.5476904079132423,0.5861163571021066,0.6268889236333788,0.6685517568095185,0.7062587072233735,0.7494053936931468,0.78857089009402,0.8285368392097308,0.8697252720026101,0.9010387111657545,0.9394494720201783,0.967471535634882,1.0,0.9972971738604901,0.9632468348061871,0.9211887158770504,0.8777319293261523,0.8392192107475882,0.7985441618195497,0.7549399914123678,0.7113119273796247,0.6676840068253982,0.6244128499558161,0.5866143694823125,0.5450517073336838,0.5014308328570407,0.45794600516547757,0.4192078563608863,0.3787773986764478,0.3351865216243528,0.29354118968827203,0.25585138132070884,0.21633101024893553,0.1978058716638038,0.1997488546631061,0.19892496104527058,0.18898779542762556,0.17837353421613078,0.18506900801896387,0.1913321536126662,0.18612420902449545,0.18380247642340586,PM
0.10452685901502878,0.11642724896629009,0.13569700298480347,0.157873645598686,0.17214048538726368,0.16931137750463665,0.1456163564286217,0.11800341213305554,0.09556525602911936,0.08027765935254472,0.06606748113808747,0.06922321175510637,0.07415002825777828,0.07738489640148427,0.0926121197454175,0.11561442784598919,0.14610693338073433,0.1808391471720412,0.217124681992811,0.25974603464906076,0.29708604154417895,0.3404429130864304,0.3854247990733366,0.42849905371087194,0.46604144398741587,0.5104784878660544,0.5554660542360634,0.5995195694452311,0.6367663089992279,0.6805175372174841,0.7255042065880251,0.7701101948316091,0.8079548907987493,0.8484972778482802,0.8786018386600898,0.9178454942754917,0.941922124827218,0.9216401917463328,0.8832883716629507,0.8384731603124533,0.79629746472975,0.7581182619346329,0.7134114321448914,0.6684232005349047,0.6234349689249183,0.5784489252150979,0.5350868647692144,0.49774762275236006,0.45339702533027193,0.4084091082479733,0.36342087663798694,0.3184326450280006,0.27344441341801407,0.2284888089594188,0.18732149381123064,0.1482539116367012,0.10340678435105533,0.058430668787720075,0.01946165215641882,0.03721205975094288,0.07437998433230608,0.10876071171617951,0.12339127647600012,0.12298863742094612,0.11066263685206157,0.09740624332848391,0.07891725900072877,0.049271077185101264,0.033264747159416075,0.05056827434961386,0.07858552194808155,0.10097230436209137,0.10394112301454461,0.10395115361859197,0.10394985832772052,0.10287997651836944,0.0963799504027778,0.10305333018180396,0.10395028377701032,0.10395115361859197,0.10394938282557309,0.1025826568430519,0.09486813619544154,0.09403630994483558,0.09403585624560451,0.09403585624560451,0.09403654653645921,0.09521819929778963,0.10299313991342451,0.1040772100628522,0.11065432136191689,0.128670389458033,0.1510292217820861,0.1729666250210138,0.1824561132779896,0.1706101972690992,0.1514129248416889,0.13169952451949718,0.11552794137501787,0.09967057313221628,0.08287985261945474,0.06614370962347538,0.06474610182295648,0.07416143822527776,0.09389912826039093,0.1206793492657281,0.15741330901146622,0.19455172444176116,0.23724318333847494,0.27456587402219546,0.31874675931275886,0.3594359980707249,0.39894192726437905,0.4438319941569604,0.4888202257669463,0.5338084573769326,0.5787966889869198,0.6237849205969062,0.668773152206892,0.7136173993124555,0.7526491896040859,0.7938486019457038,0.8361214078595707,0.854976739175829,0.8363468753382739,0.7970361459514359,0.7590615307379516,0.7167099741643186,0.671728299659234,0.6267400680492481,0.5817518364392609,0.5367679801106162,0.4936739890638353,0.45615812884527696,0.41171403758301994,0.36672597576231647,0.32173774415232925,0.27674951254234315,0.23176128093235704,0.18678156578606098,0.14407842423579775,0.10630442972244336,0.06172366230326465,0.017193776984931963,0.0,0.03786910949955935,0.0742539963205544,0.10605687396821373,0.12161157969882463,0.11769760343824887,0.11070566497724665,0.09764072324436412,0.08188332873196758,0.053781248627732925,0.044099495296570534,0.06659767034398278,0.09283813364127314,0.10732599075826066,0.11009210403415048,0.1041797909177471,0.10892698223435149,0.10893522908989395,0.10402082947689761,0.10395115361859197,0.10395115361859197,0.10435061769227638,0.11483448623260628,0.12356379756984914,0.12369126349312776,0.11826937577899521,0.11390382606566374,0.11386645099157944,0.11393324666980309,0.11880929218517,0.11873831011110503,0.1079276277250023,0.10111319113928774,0.09961797081458923,0.10496144298404997,0.1127941972251898,0.11366523302425491,0.1073893278089657,0.10519710362312717,0.11367311197023677,0.1237313325339191,0.1408026967310052,0.1579234153622009,0.16055876165290073,0.14768275934773656,0.12371643151964906,0.09793652586040613,0.0815506661282539,0.07435128360743226,0.0700515120035905,0.07343960371901348,0.08090983613461988,0.08849909404357659,0.11124394128823734,0.14180294647974656,0.1686124749151776,0.20407128896590288,0.24318657730446658,0.2834211739960206,0.32682789141477264,0.3641664821294901,0.4084094859031213,0.45339733985795916,0.49834537029188497,0.5387921301015821,0.5785267928394531,0.6234349689249175,0.6684232005349047,0.7134109589616437,0.7575385550789642,0.7948047140469952,0.8384625419998819,0.8834435818501294,0.9261186318428438,0.9638676639836954,1.0000000000000002,0.9983539296970798,0.9612485966776967,0.9239199959047528,0.879560408690341,0.8345724776908876,0.7895955959851457,0.7472816617820526,0.7092092650595487,0.6645348486239293,0.619546617013943,0.5745583854039571,0.5295701537939708,0.48458192218398244,0.43959369057399633,0.3946054589640102,0.3496172273540241,0.304628995744038,0.2596407641340519,0.2146525325240658,0.16966430091407725,0.12474022704991028,0.08478890274005058,0.0680472245930146,0.10066325655654329,0.12764245710399802,0.13986755196142897,0.137197732257333,0.12679207097372447,0.11213244247798704,0.0968853499815947,0.07002119485074898,0.04096227410818254,0.051187983809932724,0.0806576663765044,0.10504777017772238,PM
0.18151003445886627,0.2287411949007978,0.27442528317589043,0.32458792785177804,0.37071681473797313,0.42435210955080094,0.4729301006478328,0.520860196373419,0.5747814751915665,0.628770712255281,0.6785892680176537,0.7253729237950666,0.7791759123098088,0.8331415254337402,0.8817483872157494,0.9296320425464557,0.9789281383011523,0.9980135548585503,0.9757108080407744,0.9311862422925767,0.8810254872319956,0.8349546691304723,0.7812397772825002,0.7286840189604538,0.6837862980175584,0.6308620920758863,0.5768432886123962,0.5228403105471899,0.47220976656143354,0.4261591183936868,0.3724488514941535,0.31858740953236464,0.27139444211061936,0.2238693255110109,0.1801773262380486,0.13875955136346785,0.11410632050523484,0.11209257386167448,0.10965120900344338,0.11564258083410417,0.12085143964048739,0.10358875319228145,0.08657645960195359,0.09041254622684947,0.10264827572419799,0.11158191406438189,0.11211039428790848,0.11207629783410056,0.10767664637424157,0.10563210854709504,0.1128038092719732,0.1235422719721333,0.13453949112855978,0.1417376801575958,0.14682481235706768,0.13743869674097997,0.11035355996411678,0.08205332439286361,0.04852827760070233,0.019901037905914132,0.0021276997974923884,0.0016016684524411406,0.009916269685963819,0.01855071267297248,0.028606382556843224,0.04106511464101548,0.04630305855642791,0.06698921726999374,0.1073338378046822,0.1461795891019222,0.19167355950793263,0.2393485061333116,0.28976374558259343,0.3359294943756266,0.38762305024939603,0.43273109580376246,0.48598604386783717,0.5392890442489933,0.5844316482051577,0.6363643480336465,0.6903804809860794,0.7442813844248721,0.7919529366233296,0.8408184463898161,0.8946810690277587,0.9424289361958114,0.9783550051807384,0.9786206509007698,0.9425543927921829,0.8948365412565529,0.8465948717298668,0.7935148180125886,0.7484646626793741,0.6962880634819755,0.6422732014217327,0.5895525158513915,0.5446877473549645,0.4918957425421626,0.4378773348163978,0.3847165048859498,0.339661085543036,0.28759411863768425,0.2396429456521012,0.19625312144621532,0.1513647445460522,0.12586739208180298,0.13017119571454838,0.13352304727478015,0.13386615282322833,0.14651368932167563,0.14716591302150062,0.14927594579195902,0.15812051731494203,0.15546222706009938,0.15136743774010042,0.15830397548256614,0.14953206724469337,0.13418900647803578,0.12416103370521925,0.11829052989367472,0.12310424601945114,0.12390128829079905,0.13000687129318278,0.127044082683744,0.10925743750145811,0.08614843652501558,0.060909371618104835,0.02796393471469094,0.0099698193592892,0.011719268377690328,0.023079121860626994,0.040250399928364544,0.05116522781100774,0.059651148255494,0.06659527771783003,0.08097058767268317,0.11046443634288616,0.14398204926809544,0.18624390172741756,0.23248742849997606,0.2818514623279984,0.32261574337118915,0.3581244308433791,0.3895282899686128,0.4324919561664353,0.4862609523239476,0.540280463949683,0.5942999755754188,0.6483174744412985,0.7006254631867488,0.745628242432675,0.7986948248602139,0.8525435470834777,0.8996363209207388,0.948157462854567,0.9804690942466296,0.9785176961497986,0.9445410656426791,0.899780824713927,0.8465009380597592,0.7988827025566099,0.7499873422078476,0.6960191317127984,0.6439215046360156,0.5988840907222859,0.5456408178199521,0.49167404261528813,0.44253790353530165,0.3951251368822295,0.3412467417255993,0.2872274696253292,0.2339834602139368,0.19020311115770117,0.15101426111221095,0.1357189283781728,0.135532223303364,0.14153667474141707,0.1561946013334785,0.15412768391861298,0.1413400395944555,0.1431966727470475,0.16284746589915544,0.17352296965634473,0.1903222508290321,0.18745979200896845,0.18170525306585184,0.17302560503455133,0.1686651547333362,0.15961482978093344,0.1545514693369483,0.14568869609151802,0.13638704183113237,0.12913576263796545,0.10144851448362191,0.07260700413495869,0.04156591485648642,0.015362082152358125,0.0,0.013299992259846016,0.026899929190025373,0.04480462452003753,0.06474630702710993,0.07188585914421308,0.06187729708034806,0.05478136550919199,0.06760434383336977,0.09493141332029853,0.1371644913026211,0.18440549852051435,0.2292289407305066,0.27853473018269725,0.32472296464245454,0.37136045217864866,0.40982867099341935,0.45599145979219213,0.505539856426396,0.5595240558774257,0.6132276462766575,0.6592581245106286,0.7099152800088377,0.763917326610793,0.8163567950799402,0.861312198238579,0.9142854052149707,0.9651027853842262,1.0000000000000002,0.9952252033691702,0.9604801667747396,0.9163713368993072,0.8709965998580833,0.8198543155058389,0.7659432178988432,0.7180698139333119,0.6694341022946266,0.61546792669594,0.5614498420943275,0.5086276559532326,0.4637617409594721,0.411072559246904,0.3571532772109538,0.30925152736539574,0.26078503684361665,0.21469775490214826,0.18191189876576597,0.14166028616287352,0.11409098931976902,0.1131771371920085,0.12120710568144766,0.11513306690163483,0.12803228714317827,0.12048178873536419,0.1057599960900717,0.09323114576289071,0.10908261830414112,0.12269067239942322,PM
0.15522896555870713,0.16723678627724636,0.18853682082540812,0.2026149379239156,0.19247395234732467,0.17029846710913632,0.15562157499829765,0.15682156314238527,0.1710870343789611,0.18016935853938332,0.16676263874850683,0.15611581707766842,0.16394447557727343,0.1832849629875276,0.20527739100916031,0.22730923535679304,0.24994894043962634,0.2717482419308649,0.27701262280333216,0.26428644665308454,0.252414016474662,0.2402470035830777,0.23278289482629477,0.2233197040207774,0.21256743314444926,0.2105109107563523,0.22177864594218222,0.2359892959256109,0.24316815578680961,0.26015192684728927,0.2824845323142742,0.29476833454380624,0.29669756490041665,0.3035843871804468,0.29421136670948655,0.26747793193145175,0.24034873346587693,0.21003714978532828,0.18311394080115395,0.15348832857040295,0.12269844356309367,0.09190388653195114,0.06110932950080916,0.030344906588076315,0.0032860271334462787,0.0,0.025783782279380163,0.05303607389948084,0.08218018726536591,0.112963930293562,0.1437584873247042,0.1745530443558463,0.20533508958259972,0.23447275209857876,0.2617528173568735,0.29239302793638333,0.32318754804116945,0.35398210507231165,0.38477666210345374,0.41557121913459627,0.44636577616573825,0.47716033319688056,0.5079548891669208,0.5386855006636633,0.5666365885851847,0.5950352486947887,0.6257948368822035,0.6565893939133458,0.6873839509444879,0.7181785079756304,0.7489730650067725,0.7797676220379148,0.8105621790690574,0.8413009517335137,0.8658948990169038,0.8541228176367337,0.823771704362473,0.7929772518724838,0.7621826948413413,0.731388137810199,0.700635692955015,0.6724227417314839,0.6442897699122971,0.6135481911560183,0.5827536341248765,0.5519590770937342,0.5211940038476424,0.4926527458433756,0.46484131877184653,0.4341191248157119,0.40333374024871915,0.3740658522641247,0.34688924895526463,0.31632107396902365,0.28836068660992986,0.26516486819186813,0.24537751859791812,0.231406803780414,0.22019703515957367,0.20481943913611655,0.19205930993657394,0.1852979385213206,0.18289461861985945,0.19154835100771883,0.20646788743855604,0.22571927828278526,0.24463264695053488,0.26710256343621874,0.28532090143146904,0.3010469727829418,0.31379235033212016,0.3186972243126025,0.3155194743603015,0.30936779782373103,0.3080856870836195,0.3078909265289189,0.29949676459856833,0.2909887886957645,0.30095995026282196,0.31776797012179925,0.32154191721912584,0.3220371453282369,0.31473970996438705,0.2898507953999613,0.26322808071765125,0.23351982452368059,0.20676874696952696,0.17677059816400764,0.14597753766141475,0.11518298063027255,0.08438842359913035,0.05364760446341443,0.026782703435358823,0.021540122491412572,0.0443032576912179,0.07110070838334093,0.10159668878775341,0.13239108795834753,0.16318564498949029,0.19397701955429614,0.2232936361254334,0.2425724507795166,0.2703659347782531,0.3011435857340361,0.3319381427651781,0.36273269979632106,0.39352725682746315,0.4243218138586051,0.4550808528343293,0.4823586249981273,0.5062248711459296,0.5331955667938522,0.5622912114012744,0.5930743116342938,0.6238688686654359,0.6546634256965782,0.6854579827277205,0.7162525397588624,0.7470470967900051,0.7778416538211474,0.8086354876963282,0.8389183989835503,0.8656391693441161,0.8946609513348436,0.8982587820275418,0.8696369976036418,0.838844603643546,0.8080500466124039,0.7772554895812618,0.7464672469868334,0.716985017589354,0.6899673879488157,0.6594154120529205,0.6286209858959386,0.5978264288647963,0.5670444535233345,0.5380331714555762,0.5106375498967739,0.47998646056413063,0.44919192517947315,0.4184350157416453,0.3901059964643184,0.36208697574067716,0.3316955902482732,0.3048684851010094,0.2753766029589053,0.2512145769721561,0.23356013358059002,0.2211629685138674,0.21093971736724348,0.19936299031678473,0.1898674449485973,0.17910348797258901,0.1734294973391045,0.1758185077466372,0.1890917662616306,0.20871468416895933,0.2304002035986643,0.2419967947366617,0.24519507726264267,0.25060547091110974,0.25173321493269674,0.24942572298005017,0.24690649513546414,0.24791692695253398,0.2417330559272628,0.2351205530521514,0.24028221568174557,0.25815185205907787,0.2686784794447006,0.2688434751153751,0.27275950166227414,0.25800991434174525,0.2297415937887901,0.2024783984691647,0.17334713524618184,0.14264682088251435,0.11485477804560396,0.08628805089115488,0.05555679426928439,0.027582496002543033,0.01515295221046531,0.03407556759770913,0.06354331550104808,0.09433211378308914,0.12484699709594982,0.15180706226769025,0.1813824988359568,0.21217222789422963,0.24296678492537305,0.27376134195651525,0.3045558989876572,0.33535045601879954,0.36614501304994174,0.3969395700810837,0.4277274612017574,0.45710686098635667,0.4842057904181327,0.5147795905879768,0.5455740737664063,0.5763686307975486,0.6071631878286907,0.6379577448598328,0.6687523018909762,0.6995468589221185,0.7303414159532604,0.761135125706915,0.7913723343736165,0.818080652345424,0.8481826900864162,0.8789759196385831,0.9097704766697252,0.9405650337008675,0.9713578721006297,1.0,PM
0.2787676693030857,0.2916362755237073,0.3121496600136139,0.3371552982528053,0.36141700476565497,0.37754567464053757,0.37034880384290314,0.34960728158605436,0.3254376050567013,0.30234518358226514,0.27942453600891837,0.26764726272014594,0.267552970952767,0.27661497265254986,0.2850799067251263,0.2935074424376004,0.314080601038602,0.34237840186672563,0.3755084109636796,0.41044987245020204,0.44670137635787766,0.4824280456623279,0.518394467022328,0.5574985844843753,0.5955715876428501,0.6296644736657809,0.6682756715699053,0.7073416388178876,0.7407434796352877,0.7713713909249463,0.8052814516622461,0.8439374472489597,0.88310173736025,0.9219090654532917,0.9562398401821278,0.9916210712262609,1.0,0.9708003987172961,0.9318420420112273,0.8943950688609147,0.8599254261265094,0.8210600385842054,0.7818953136198413,0.7427304785953025,0.7035656435707635,0.6644008085462244,0.6252359735216858,0.5860711384971463,0.5469063034726077,0.5077414684480687,0.46857663342352984,0.4294117983989906,0.39024696337445175,0.3510822718569163,0.312208013056091,0.27777090346850664,0.24029991298405562,0.20114353719607514,0.16199929284608006,0.12717703750366283,0.1302947585811678,0.16407325404890039,0.20310516749094487,0.24012795484543703,0.2742095717875995,0.30057181039732483,0.3047596872589503,0.29194202731491614,0.28431099182195985,0.2735957216137873,0.261345440487346,0.27785274635317714,0.2867240715038569,0.28597259979163014,0.2808955724105783,0.27944739048784817,0.2735757831129112,0.26631433089338563,0.2553964353243815,0.24872677531070708,0.2533673297979996,0.2597317002484204,0.2664565526388686,0.27291932015729514,0.2912517324866538,0.31422326219811636,0.3402596748531298,0.3676940627339432,0.3919475569089713,0.39820420829272674,0.38170471698469377,0.3574142080155195,0.33304079478753235,0.30872572248045993,0.2862428218655094,0.277325772515736,0.27518089227432474,0.28073067332702484,0.28947140360070744,0.30217803271575494,0.32552529724097,0.3559360118354925,0.3905136775731065,0.4247774686160025,0.4623309073188665,0.49650302861297047,0.535178311676851,0.5742820491580972,0.6100560615244995,0.6460104110722306,0.6851165288216533,0.7242792953953964,0.7624866991569333,0.7965251414179831,0.8350559942774519,0.8742166871290976,0.9121981834939991,0.9463024927943683,0.9788246094647867,0.975137878016232,0.9395444407415349,0.9003913420655528,0.8612265070410136,0.8220616720164754,0.7828968369919359,0.7437320019673975,0.704567166942858,0.6654023319183188,0.6262374968937806,0.5870726618692409,0.5479078268447021,0.5087433405483305,0.4700462343391071,0.4358468472406952,0.3979654364312658,0.3588044006663257,0.3196395656417871,0.2805587242328057,0.2449946966151132,0.2088217348142879,0.16970097448794952,0.13057933284769274,0.09785836466108677,0.10966501139538287,0.1431488564522777,0.1808031445677627,0.21972903708915326,0.2543327447829241,0.2885189402816163,0.3093441864866314,0.31020731676512414,0.29508906472656726,0.29120100220888234,0.2813971610751441,0.28834940394720576,0.2995927555808212,0.30374075912741383,0.2983387502746294,0.2977152073071593,0.28979869360269095,0.2841980861083607,0.2775610247831065,0.26913771504665707,0.2662210587363315,0.26414955527136563,0.2626298513800084,0.26737418697540105,0.277829952875852,0.2994109328749427,0.32667668579923037,0.35367238323847594,0.3785379626715123,0.3972851860700931,0.38982268277936705,0.3671687042709898,0.341159144898176,0.3151301358561166,0.2919788227463681,0.27297370370705976,0.2621798723949934,0.2647369228783133,0.2672941050546406,0.2770891105828971,0.28589014146672287,0.308248602187435,0.33643230215579034,0.3694426813662689,0.4058727703433799,0.4403533528639628,0.47887254636536125,0.5131590954966004,0.5508656586803581,0.5899929750673111,0.6264661771641452,0.6617421593542981,0.7007982860743914,0.7399630124267541,0.7788451289629131,0.8133536542809489,0.8507454934562791,0.8899017025367723,0.9289000683882668,0.9590002701281842,0.952548432758611,0.9192495536957576,0.8834888690782093,0.8443851008628985,0.8052202658383584,0.76605543081382,0.726890610404097,0.6878533323475008,0.6526863299865134,0.6160904436227496,0.5769520046354445,0.5377871696109046,0.49862233458636596,0.45945749956182713,0.42029266453728764,0.3811278295127486,0.34196299448821044,0.3027981594636705,0.2636333244391317,0.22447142759167582,0.1864219442739502,0.15232076599129563,0.11369420107684614,0.07452989826075651,0.03537234978288728,0.0,0.005598784029425041,0.0419170513409145,0.0810661560575826,0.12022064236745833,0.15756376424742358,0.19209317418509053,0.23094774862177003,0.26644215597131693,0.2930666342249818,0.30346018610342906,0.2939775368235086,0.2771734767878625,0.2700671780969762,0.27368957206501554,0.283889000563318,0.2824593437978836,0.27877677388269195,0.2772181959923733,0.2718233452049389,0.26403503564220465,0.25411170649103776,0.2501606998414049,0.25204742122788704,0.26363390445933865,0.26467954960288254,0.26985320969733884,PM
0.18088012085168614,0.19791842522781367,0.20438009321455386,0.2036949742415639,0.18829726462232066,0.16457129323391162,0.15283396936447247,0.1531631035023573,0.16309193437746838,0.1913319186975888,0.2331214839165492,0.27884227360125435,0.3229737389909473,0.3673670530959574,0.4152207217761339,0.45942546223605163,0.5037571613619549,0.5516820542393739,0.5996653786950739,0.6456384807042397,0.6883875530124934,0.7360634515462106,0.784059091152566,0.8320531429229063,0.8788779822831632,0.9008383746487536,0.8647731477532308,0.8168512323462171,0.7689355633445125,0.7247270941768229,0.6803984717459095,0.632469965725551,0.5844743159358576,0.5367788473921229,0.4939963816686743,0.44807536883869803,0.40038159533638407,0.3575579117319838,0.31168876744220664,0.26382479438589623,0.22142286079335904,0.19028132573977308,0.15525864143434687,0.12686781793833135,0.10568067695400418,0.0886495301835597,0.06700417144960302,0.043362662117687245,0.024520452041038476,0.02746235196625424,0.05642069861199106,0.09070219521372125,0.12812912283007782,0.16245761011056126,0.19352390507205253,0.19695491336921123,0.18400511237997308,0.1764018631822839,0.16814601285603636,0.15451811330399634,0.14778334528397719,0.15406571495274268,0.16995912206654973,0.18922956772991917,0.19955157939548784,0.19359148365823997,0.1792785711424807,0.16565567555347083,0.17712904024912346,0.19189103809007224,0.19205651615584696,0.16954257930413386,0.1537148635082719,0.182894326034303,0.22461052551043115,0.27141953807243446,0.3138899419805885,0.36030093605126656,0.40782859604231847,0.45032299999694514,0.4966873928855753,0.5446764604389116,0.5926712484877552,0.6399698295665828,0.6822427477158823,0.7290608302405333,0.7770534697722304,0.8248300725334774,0.8648627055437184,0.9039819259995014,0.9465636337697696,0.9927466873239781,1.0,0.9559143012041154,0.9079239517522213,0.8599306085127554,0.8129932326797045,0.770750841301935,0.7235413789253313,0.675546914839029,0.6275511445465036,0.5795553742539772,0.5315596039614519,0.48356400169400215,0.4359598598636836,0.39333323007781007,0.34728653571011203,0.30356926333666423,0.2589605212478596,0.21613187115238008,0.17713543596812054,0.14234503817149702,0.11457339377357334,0.09441247724925317,0.07563383281994529,0.05478387660349826,0.030081978146734967,0.013838748469159334,0.028058881155758053,0.05870901945284168,0.09412451288573065,0.1289523509710344,0.16491593855634146,0.1970389749111907,0.19615237997572077,0.18478988122710582,0.17171819369537622,0.16452660685842568,0.1517463347368171,0.1354252767785502,0.13644030740666135,0.14991731614098947,0.17081705980168205,0.18749292650237792,0.1984132365285387,0.19414338804697362,0.189764404554015,0.18575890282867658,0.17167144475079388,0.15832157234789235,0.171333939240206,0.18649539643539104,0.1887480639435113,0.1690751966487123,0.18115164093067104,0.22028466344454767,0.2662790352259843,0.3100557417606773,0.3548229419333593,0.40273312686836293,0.44762000718226935,0.4912872569498987,0.5391614185108884,0.5871571888034144,0.6351292394387427,0.6804625054592781,0.7237362372007403,0.7715384706990878,0.8195342257166061,0.8675299726723162,0.915313265582061,0.9480128836731454,0.9202963391810444,0.8727056363829677,0.828861815326861,0.7841571947061634,0.7362123760472838,0.6882166057547585,0.6402229551844307,0.5932313551202886,0.5510005294790257,0.5041535490507252,0.46518435650314527,0.432555568760318,0.3901841406306521,0.34248024378944963,0.29934947459604144,0.2545839218000101,0.21324181127554187,0.17409914037525742,0.13921770500447894,0.11363083984402444,0.0932994288346678,0.07152261364332979,0.046534656792372564,0.019400861288771498,0.0,0.00618803166635451,0.03749538950567999,0.07231718826968048,0.10909641665601733,0.14384941759711256,0.1752393094252387,0.20560496675986073,0.20790085009456294,0.19171526160429453,0.18008872406893017,0.17127960738181391,0.15310360615244756,0.14078621010000392,0.14502567313250592,0.16228918315368834,0.17994895211257012,0.1901588937298715,0.19002143636772684,0.18054915096210222,0.18687876846045937,0.20824406894307135,0.22159039236075517,0.21211466771969878,0.19710741912218777,0.2243304081204689,0.2660154804185111,0.3121445366046274,0.3579521036851647,0.40081857006366794,0.4485349236568088,0.49581720119907735,0.5380845690262799,0.5849243412433669,0.6329168413214159,0.6805056303108281,0.7230559147384876,0.7693107781597897,0.8172983979079491,0.8652941682004747,0.9132849887475947,0.9594547868758774,0.9753522607097962,0.9356144125184551,0.8876524462870554,0.8396621377578521,0.7932038624686544,0.7507557949824075,0.7032707967461229,0.655275409373864,0.6073157760464063,0.5623145408357131,0.5201858221390137,0.48346040538395685,0.43809273003765736,0.39010623126702004,0.34214296898789076,0.2970354181951136,0.2558331818521624,0.21830397181896877,0.18882506865499726,0.15619309536014225,0.13323668018742274,0.11715812935905201,0.09408035121343739,0.06921659434255156,0.04531404685732787,0.035825103569187444,0.053223048761406266,PM
0.13218166486141492,0.13758145680733658,0.1401697682660934,0.14188223134447853,0.14757619942134026,0.1559529682813885,0.1534161698261578,0.14317421112604212,0.1479116934932847,0.15291466540065324,0.16211146862435344,0.16671622637109307,0.1668372528157649,0.17284117043071512,0.19122853972055398,0.21584882059308663,0.23878085065020183,0.2643853122405535,0.27969628426092275,0.2709966643623192,0.2513878998273611,0.22001369674803706,0.19107962533347567,0.1641130883352413,0.1357762876985611,0.10896659004668319,0.08459168991622246,0.06005536912470899,0.04414503578727058,0.02871248747824917,0.023096661354670145,0.031375057760094416,0.04437114640590867,0.055795108840640095,0.06593502780670213,0.07917438052412606,0.09744190475772618,0.12100411189396554,0.14895091755033762,0.18034524812499808,0.21342133540530073,0.24488026268148788,0.2791961903824991,0.30965851303283154,0.3451423092816728,0.3803902733097275,0.4106553795705443,0.44551932562424024,0.4813780392740692,0.5172249566271814,0.5506982727557241,0.5819232221441084,0.6176135862521834,0.6534739435842445,0.6893343216744929,0.7251430290600609,0.7574832936645199,0.7897710957966826,0.8255698478944198,0.8614302259846682,0.8971278367027744,0.9283907017196615,0.9616568653531077,0.9889066678137906,0.9817930882273878,0.952604766655113,0.9188137808676455,0.8829634081003253,0.8471030642610866,0.8114502356665463,0.7803702968495756,0.7467163742034668,0.71086750379015,0.6750071256999022,0.6391467476096533,0.6032982569091863,0.5695484252985437,0.5385680384281006,0.5029112213897262,0.467050843299478,0.43119046520922955,0.3953300943843472,0.359602194762737,0.3282322348029385,0.29493952519196265,0.25909456089905425,0.2232341828088058,0.18737388775130737,0.15192006275193215,0.12518972719495824,0.09613508220309308,0.09530691057162155,0.127837898513103,0.15860495121008,0.18550119713123747,0.2019348007503634,0.21864228537472585,0.22940008715558746,0.21921628163535445,0.1962947648460236,0.1670556274480497,0.1367979999382667,0.1290075425201409,0.11913396362321205,0.09940053995511478,0.10822954746516777,0.12277433793165615,0.1304773065464977,0.13173786723774983,0.13730912870031786,0.1411383982992105,0.1450699846652903,0.145155172425381,0.14496328558617977,0.14200598146375265,0.14487292664594653,0.1451423887278378,0.14299238673554115,0.13978283142161607,0.14219394349302705,0.1451670268311107,0.1515516462728208,0.15500466175074945,0.1550359739684115,0.1584892827420905,0.16764522744942933,0.18319783918752175,0.2039274930739634,0.23025858665637955,0.25028339685951595,0.25875816561768095,0.24248478498695847,0.2168844147543052,0.19215946421597674,0.1637414974944955,0.13575414021664334,0.10871276198194013,0.0826128500261738,0.06859041181628345,0.07683602942621093,0.09283568211903948,0.10641482799247726,0.11792869947483853,0.1255609198097889,0.13615729596797554,0.1470409315906458,0.15825014923285208,0.17875533062504934,0.2032857177059626,0.2337596201348333,0.26488496519691984,0.29805720258294777,0.329461263078457,0.362712578729391,0.3985515868055758,0.43441196489582423,0.4702723429860729,0.5060165750524439,0.537602272236696,0.5706723093568264,0.6065078692059998,0.6423682472962482,0.6782235778317793,0.7124748912667613,0.743075179732132,0.7786038523972874,0.8144641516064235,0.850305905776479,0.883509876756948,0.9149563177661115,0.9506842650669194,0.9836651128679743,1.0,0.9842929025673692,0.9515264105879895,0.9160188471177271,0.8854185586523562,0.8511672452173731,0.8153119146818424,0.779451536591595,0.7435970493147341,0.7102829548270886,0.6903596296119916,0.6666980735494221,0.6424534545623679,0.6183291487918314,0.5945504033088089,0.570981141483311,0.5472683445591391,0.5231223829187697,0.49328350566829493,0.46634286891333887,0.4418280545013693,0.4071122911743299,0.3712536157770647,0.33539323768681695,0.2995328595965685,0.26367248150631983,0.2278149110380734,0.19317636838834784,0.1700820791363038,0.18690032814429847,0.20794892906313445,0.2157668425430943,0.2103962053052617,0.20209538423944395,0.1910882777564007,0.20013426862529515,0.18881929327505476,0.16575396373293705,0.16381808282898014,0.1749580124228316,0.17897631590693686,0.17681848066465022,0.18105555352564506,0.18117908140405303,0.17941402169361775,0.174152074596293,0.16926880577446513,0.16121858848483606,0.15876106288978376,0.15150560744017572,0.1438224236288237,0.13458924794118343,0.11844803983790553,0.10462196386656264,0.10723164814305042,0.10609857078186868,0.10422561254856433,0.10833403377636319,0.11845142864356983,0.14079005481991436,0.16518320238647877,0.18639932082611677,0.20693410973979476,0.19861275569192904,0.18067386872422753,0.15323262138210048,0.12492665376857803,0.10112953416863424,0.09265958800683549,0.08170876826713913,0.07146364079158563,0.04204669796005178,0.015935497304336854,0.0,0.0039758858048832835,0.010563127123395688,0.019224616757706814,0.04535048149705978,0.06002636018244978,0.07825897920167191,0.07581560814666233,0.05249375274451773,0.02923846711812672,PM
0.05900532319425278,0.0731995928797129,0.09756971717510476,0.10121242057373758,0.08298127145342193,0.062164891745000395,0.059093047037076185,0.07074911653294491,0.06552962719760957,0.06109685254607067,0.07791639073760304,0.1017898281054267,0.1275453858657022,0.15565038148214383,0.1765655830097077,0.2031153673149021,0.2254766658210522,0.247939259099356,0.2671159063037173,0.2787032597785203,0.28466715593555547,0.27702258122557544,0.26415792078959177,0.25151732209305055,0.24494042916656455,0.2544996657343158,0.249261688963904,0.2316774351586558,0.2197938516142811,0.22686285643522208,0.23729702207949133,0.23839176046751598,0.2461152184026939,0.2580030398395957,0.2779115524999952,0.3117719678087284,0.3364749613608121,0.3666238080097227,0.4008599327825918,0.43330207896495854,0.46962829422788277,0.5061058197042626,0.5425833582846001,0.5789608016727484,0.611798890642331,0.6457146457638584,0.6821615190502591,0.7186390680402831,0.7551166170303071,0.7915886013385708,0.8266725692691009,0.8585625198042021,0.8946949334314395,0.9311723163763036,0.9676414866910018,0.9999999999999999,0.9920035072784384,0.9638117439926871,0.9357021818312524,0.899710806840042,0.8636319837463254,0.8318529084386291,0.7966057814482269,0.760132629110367,0.7238278708851543,0.691484547602894,0.6570162443165407,0.6205544400548549,0.5840972209680534,0.549924175907568,0.5173144263070745,0.4809783469146237,0.44542961916055124,0.41377487091855725,0.3778749097136239,0.3414073934770353,0.306620581483683,0.27468422000261017,0.24286275343045183,0.21657536544954714,0.19482172073900272,0.18011829679394298,0.16795609857865412,0.15221162317486647,0.14372628494455242,0.13383060315175177,0.11780394615705814,0.1045934770114203,0.11226276961309434,0.13266448832918454,0.1617298372979331,0.18914617874632078,0.21516669000737731,0.23876326779493373,0.25445511841250645,0.2635011810729694,0.26065867917883623,0.25477245878774035,0.24019101245370378,0.22619550038375758,0.21088685015050534,0.1970639007174747,0.1956694252689427,0.19012717386698863,0.17728081760705527,0.17339129905831652,0.17503743980078434,0.16778555173643883,0.16614874412658964,0.1615287675203244,0.1780568874853694,0.20825721151026755,0.2352268066092461,0.26475485588586867,0.3005168790282927,0.33430818853923927,0.36726523832297386,0.40365083867441987,0.44012838766444384,0.47659889202188077,0.5114827592186054,0.5435155957978478,0.5797066384432722,0.616184087010441,0.6526616360004648,0.6891391849904885,0.7256043793016037,0.7602361535165815,0.7924514445829586,0.8287173951103067,0.8650969629712014,0.8892947100035612,0.8646993096361509,0.8322142232134276,0.7980044320932705,0.7615479996170714,0.7252113604443778,0.692678758223933,0.6584271489592449,0.6219698384840117,0.585495927430311,0.5502877571059944,0.5184594383026074,0.4823914153603296,0.4459293210295002,0.4115943082044745,0.37912553362471824,0.34301975353839265,0.31078662200503937,0.2762218279129637,0.24269358710363143,0.2126119237580545,0.18508772763601922,0.1518631236673833,0.12621666265896803,0.10422961144969523,0.08754571430904479,0.0726343690355915,0.060981838392332066,0.04924181294466423,0.037770385319579436,0.018490995789651077,0.0017051390027634783,0.0,0.014161308202764955,0.03783912316625737,0.06719846146746022,0.09499783797942696,0.12083997838199445,0.13576753611591985,0.13669551549434877,0.12916235672698384,0.1264070056737796,0.11408304133128266,0.10014872059050806,0.08864390683646628,0.08653970075980322,0.08444145069200704,0.07251696713274514,0.06238435687210786,0.07169828115371202,0.08280257289302428,0.08696080684485685,0.09330467532258413,0.09562311897433062,0.12049077912742656,0.14856029903326917,0.17237403778792681,0.20745952098380804,0.24393430014219886,0.28041154660145684,0.31644872423912485,0.3482373181743944,0.38351576614578275,0.4199899994881954,0.45646754847821913,0.49294407444323374,0.5287523413924503,0.560383582829454,0.5960472294981695,0.6325232478242157,0.6690007968142396,0.7054783458042632,0.7419493966050824,0.7769068558746365,0.8079857737824933,0.8152318287236587,0.7819548984889534,0.7454934403731984,0.710875140976947,0.6786483212571529,0.6423813150228866,0.6059158075198511,0.5713369530892146,0.539076435539919,0.5028031772589764,0.46632629558479943,0.43043986996061456,0.3987585904685781,0.36322328789855696,0.32687881079060543,0.2942627106888579,0.2601846558234385,0.22716624320261192,0.19359748196286775,0.16106187560363683,0.12790710831962926,0.09782953389006255,0.06955726699188491,0.053114441235067256,0.04479826493884187,0.04582429158209156,0.055176847777671845,0.07172771891474827,0.0884838540256484,0.08952262798704902,0.08515740389423132,0.09843631514073603,0.12237038511204279,0.14938501860415343,0.17860941865232405,0.20419357938141058,0.22070330234958424,0.23102971165835806,0.2444118491006385,0.25120109786428013,0.2567544323491803,0.2500545345505881,0.23412501162679777,0.23079494884003682,0.23892720882935936,0.24408548825913068,0.2327918468011244,0.23070703569418438,0.23335397140051717,PM
1.0000000000000002,0.9799151823965513,0.9569933986755723,0.9340633206263109,0.9111332425770493,0.8882031645277879,0.8652730864785263,0.8423430084292651,0.8194129303800037,0.7966071620127366,0.7776075379969458,0.7564914061264101,0.7335691708488488,0.7106390927995874,0.687709014750326,0.6647789367010644,0.6418488586518032,0.619077536184732,0.6003330244568179,0.578929629646727,0.5560050991206484,0.5330750210713868,0.5101449430221257,0.48721486497286404,0.46428537777138623,0.4420980050361154,0.42687131306580484,0.4125548288296068,0.39019374571246535,0.3672640546749686,0.3443339766257074,0.3214040016239237,0.2988358179717232,0.28047203036388946,0.25848918118833786,0.23556013904529116,0.21263006099602988,0.1897030941577642,0.16833134179230025,0.14953659829992716,0.12812542044532138,0.11073770795496451,0.09519305067586337,0.08314702250218409,0.07526563747007153,0.06832604920726837,0.06081136550784394,0.054395522544246844,0.04528874753381107,0.03496452785457227,0.025794716777371218,0.013960671606363384,0.0017324667922250514,0.0,0.006489164013039561,0.020031290996092688,0.036077648787804284,0.05326645976149735,0.07068766000699211,0.08919544203401719,0.10951272997717565,0.12812277876523193,0.14908130319932822,0.16719807171315515,0.18500775945437664,0.20146868574537313,0.2193952667546315,0.22761609243132097,0.21999071779594137,0.20903502068698276,0.1966549702319067,0.18686939914239253,0.17663361941106626,0.16597082074780078,0.15805727654405544,0.1490038557531772,0.1463301371397161,0.14308047390754963,0.14050111396523446,0.1413729580459313,0.14785282956404577,0.14949856601208789,0.1501613362947004,0.15811135631507367,0.1632980917121094,0.16034797456623318,0.15466714514362156,0.15224646213248805,0.1532831775343375,0.16377552516584082,0.18073934420439197,0.19891982982930745,0.2199010363215126,0.23818610935874263,0.260564485879931,0.2834941585820603,0.30603855278585845,0.3242765279739861,0.3464088492387558,0.3693381320864597,0.3922682101357211,0.4151982881849827,0.4380863256592722,0.45805873868853,0.4781378781089427,0.5010420477161373,0.5239721257653989,0.54690220381466,0.5698322818639217,0.592762359913183,0.6156924379624444,0.638622516011706,0.6615520123808674,0.6838399656333263,0.7002992406955468,0.7137194707538519,0.7295566561889768,0.7469076715594534,0.7685536331453462,0.7825697719652591,0.7988290345458979,0.8143156836200016,0.8284276647617064,0.8449087757703024,0.8606177825112187,0.8832484743417646,0.9061783313804279,0.9287522805857129,0.946990045725973,0.9630916944692696,0.9484165835371265,0.9255365579346255,0.9026064798853641,0.879676401836103,0.8567463237868416,0.8338162457375797,0.8108861676883183,0.787956089639057,0.7650260115897958,0.7420961396354899,0.7197493976361369,0.7014748470697025,0.6791816703785412,0.6562521740093794,0.6333220959601178,0.6103920179108564,0.587461939861595,0.5645318716263792,0.5417855909090412,0.5232266153904919,0.5016143020789063,0.4786881022811791,0.4557580242319177,0.4328279461826565,0.4099121006966462,0.38923780012713904,0.3698459343143947,0.34698418665150177,0.3240541086022397,0.30112424646197966,0.27879859414385066,0.26053254234326406,0.23820981065061575,0.21528215611017576,0.19350774962154982,0.17501773557704559,0.15329971675084297,0.13502456881120073,0.115965875845634,0.1006154790502275,0.08736461578355181,0.07751162108125875,0.07303164673369544,0.067350010380546,0.06124437216915657,0.05212557264675466,0.04210175315311704,0.032757314386998804,0.022258557179561933,0.017249256945154112,0.022040817801579515,0.036281946083776107,0.05214486960824338,0.06880366256371351,0.08514963388119212,0.10275500254707393,0.12101448386366642,0.13970717659875664,0.15828956837201358,0.17563247459688924,0.19372363567967132,0.2127959607343093,0.230022476230198,0.24705119510418294,0.2600595452478165,0.25606433876057655,0.24468040812231784,0.23343476432507426,0.22500561545315978,0.21556481522418613,0.20401794468084866,0.19780395500158898,0.1920692937124997,0.18757031857497897,0.18302338213520086,0.17649738689093597,0.1719740855977132,0.17121491489277618,0.1792424325854176,0.18387124556865886,0.18170170029558685,0.18524777414234705,0.1869219251977997,0.18179381730804034,0.17647331570137748,0.17332047808702067,0.17339490718020545,0.18553758326335146,0.2026642219530671,0.22271508569425957,0.24111705906507264,0.2637906420531635,0.28645145979362696,0.30497667281062757,0.3267063399522354,0.34963439667729523,0.3725644747265566,0.3954942739131282,0.4179943356146967,0.43620939482019816,0.45840882510549497,0.48133831230697277,0.5042683903562339,0.527198468405496,0.5501285464547572,0.5730586245040186,0.59598870255328,0.6189184801100369,0.6414037643108619,0.6596230728992867,0.6818329848142934,0.7047625401336957,0.7276926181829579,0.7506226962322191,0.7735527742814805,0.7964828523307419,0.8194129303800031,0.8423430084292651,0.8652730864785263,0.8882031620742763,0.9110583397378318,0.9303050687464478,0.951128159603229,0.9740465192295655,0.9954829653400243,PM
0.1654466016500893,0.1654466016500893,0.1654246101960546,0.16186440525159607,0.15606057043841326,0.14795824728820417,0.14078081629674655,0.15032166659169421,0.15929116798311638,0.16529849266711083,0.16544653730543502,0.1651124936512498,0.1585293726022159,0.15637054569418063,0.15636713004793168,0.15636713004793168,0.15639930250304546,0.16057400996148585,0.16713138898114765,0.17409975736078742,0.17452644452117383,0.17550267841444156,0.18275417016213158,0.18360415800617091,0.18266821322438132,0.17525425431550157,0.16768647292360428,0.1537460277819771,0.1350374456347656,0.1071955100308748,0.08338358656498279,0.060247314987248224,0.039645145923329794,0.02231129999006609,0.013964491776848886,0.024151034580344843,0.03702868445662033,0.05306280402101504,0.06705808335779229,0.08249978399460312,0.09191297334683024,0.09280206202281471,0.09044321155899859,0.08437765890060334,0.09533972224592513,0.12066147865361243,0.14477455991984955,0.17310855279186876,0.20292865024948492,0.2344193766936562,0.2634755988842372,0.2979216821004076,0.3262656871520089,0.3586518546911901,0.39341400680110183,0.4250102351317788,0.4540424545903363,0.48871140907448773,0.5234692578863318,0.5542820882941559,0.5840717904267145,0.61876993133539,0.6507743698488282,0.6794645095763849,0.7140575517069809,0.7469577016992064,0.7749506358140739,0.8093325309606345,0.8413574396389434,0.8698080765931153,0.8947990219218318,0.8919962257887799,0.8624980028649438,0.8343048687462775,0.7997633956672647,0.7650620571236,0.7354292641632485,0.7044559787591775,0.6696955303942302,0.6349112808946926,0.6017013995314227,0.5739485140624545,0.5396275429925184,0.5048408107158391,0.47005435257760464,0.43587427764318765,0.40832779162328636,0.37477263690631335,0.3411631073999948,0.31353050263000415,0.27969543543394226,0.25104872907337583,0.21898955205442938,0.18429307976883136,0.1545772535825276,0.12403436139475166,0.10647132950704452,0.11387420936094284,0.11989795456915475,0.12004922572373111,0.11998374367545162,0.11591733040646424,0.11847307184798694,0.11374671484542276,0.1119972286526778,0.1246465412405171,0.13915270420940473,0.14749630708471262,0.15493787242997836,0.15750690864328054,0.1650198336196158,0.17222401761552852,0.1745184194837026,0.17451989677886126,0.17246756409591568,0.16862984684836757,0.1743605204712595,0.17452622969807274,0.17521406032941234,0.18234268510349771,0.18401972287058688,0.19131195314596505,0.19976511781906003,0.20175878643020617,0.20176448805871972,0.2017181983988292,0.19684272612755582,0.18042635595405443,0.16191595417133642,0.13903382792886254,0.11337400251193763,0.08669108280716942,0.06625570437400263,0.04893565515461229,0.03879672651422261,0.0429811247930989,0.05576743225478786,0.07279926891336008,0.08655763325496912,0.097986420069194,0.10673088302029132,0.11534694661962042,0.12063786489361883,0.12954108373691264,0.14473586233045355,0.16412316211472722,0.18885587887149513,0.215667352480984,0.24951257218543343,0.28429866521088254,0.3190148753404336,0.3486801100082568,0.37961432610279644,0.4143383306691739,0.4451983537229538,0.4749419060989801,0.5096475615381533,0.5441784018641396,0.5722864383247321,0.6049352842837643,0.6397134432990244,0.6729485871988365,0.7006820959694475,0.7349966675436601,0.7697495062886923,0.8002603037624048,0.8303453643367655,0.8649636072327858,0.8943621617826572,0.9255769630480586,0.9579312021470585,0.9853868812309812,1.0,0.9865220016033542,0.9528679936615019,0.9181794986473784,0.8888697539827475,0.8575661200569908,0.8228003456462996,0.7880135073901897,0.7532266691340794,0.7184398308779705,0.6836529926218606,0.6488661543657506,0.6140798689159959,0.5800579193272601,0.5525482451185322,0.5187975370394546,0.4840114806117797,0.4495523452650809,0.42132700927931777,0.38873103088382543,0.3556916467446518,0.32786219063745525,0.29345021916897607,0.2597897756507168,0.23217203101542339,0.19839145385139312,0.17589700910356965,0.1771370518933839,0.18420072217441574,0.19162103933391506,0.19263689401162187,0.18843037028103837,0.17982124725904436,0.17069090743209436,0.15464768046982957,0.13757739013773373,0.129443619928014,0.1340880903697783,0.1296570925568159,0.11799686650293673,0.11101678023207939,0.10794599837668706,0.11062149626553297,0.1109401508210408,0.10721283085960653,0.10051139474662985,0.09335926430844088,0.09283415531849992,0.0964493668355717,0.1018741170943418,0.10741456271376348,0.1179551221641808,0.12023172863967191,0.12650666519160247,0.13508596254851368,0.14139261390343738,0.1470642280951353,0.14111582000039613,0.12780463425335142,0.11231977391533166,0.08980790640838165,0.06661288131518206,0.04346509847239566,0.02032317340055889,0.0011336895934850322,0.0,0.011434873677078405,0.026536375716639027,0.03881349119232813,0.05254510495750475,0.07403364912456256,0.07945415880619455,0.07557418776338243,0.0907245756180215,0.09280839683347586,0.09239741948259028,0.08784910946166802,0.09882217681585592,0.10774721345252702,0.11528530482324006,0.13136492901472208,0.14756237057205124,0.1665009115074907,PM
0.0892348132602645,0.09436181658376186,0.1013195698913878,0.10480880549171179,0.10482779101162909,0.10482680099538877,0.10379354954503262,0.09369189820440438,0.07693758009855323,0.057398018267512674,0.034229260240911774,0.012674843895498888,0.0011348601273446501,0.00866250004568725,0.01813087843076322,0.027304018692963394,0.030591696070691787,0.03161338452315676,0.0400310890401574,0.0498049287340816,0.07216850919198992,0.09666275794781609,0.129242099724858,0.16855651899544655,0.20973634790871376,0.24931717318786517,0.2924369201826411,0.33673717211672494,0.37547447591404204,0.42152758550990255,0.46550803285012954,0.5044675920008506,0.5506444411114049,0.5971942796100045,0.6400806373007,0.679955511236602,0.7263261029019734,0.7720616197962364,0.8103973896712802,0.8554386739497586,0.9020082999281867,0.9480677834028111,0.9843388703606766,1.0,0.978837303898977,0.936853619280523,0.8964864945408535,0.854161937817854,0.8076183369460095,0.7611105285767357,0.7197629089176174,0.6784369256849656,0.6319363023496258,0.5855430397438282,0.5454538075326187,0.5028015335784635,0.45625425014037013,0.40976263053194417,0.3687302219093831,0.32709078298218563,0.28101903099058223,0.24220507545017966,0.20260564657193236,0.16196140925554858,0.11764760382500739,0.08857079509990617,0.08488478073501615,0.0932199596165788,0.09422294122678387,0.09342489363086082,0.08514861523118955,0.07922432297061843,0.05673305375885085,0.04523926017400637,0.06204548205572902,0.07735926322001863,0.09237394655196596,0.09584149665296393,0.10960079812712786,0.13650055530726046,0.16731916525077128,0.18748136327191567,0.17786942395332095,0.1508960625383502,0.12431235128564921,0.10103770366870024,0.08497618669903795,0.08362233130212138,0.08362118060873525,0.08340868290180303,0.07424371725649648,0.055736914589417985,0.0348332800011375,0.015400144554109874,0.0,0.0029580763646612773,0.025117983907183117,0.055702196717181796,0.08973317384325452,0.12461266786256009,0.15963918108352804,0.19873279950556122,0.2190777443546459,0.20367332216395595,0.16692801676517988,0.1252786830065098,0.08391778778511605,0.04936020551403253,0.041906551384281565,0.05124340473592337,0.06855304330786383,0.0946538812229607,0.12789027603220604,0.15604700976630093,0.18741304843690743,0.22639601812386712,0.26457047953144786,0.31030368521770435,0.356874348665166,0.4034456832476887,0.45001671645438135,0.4958169287233818,0.5341712198778761,0.5791295162297905,0.6247335367420752,0.6630322640582187,0.7082397013145347,0.7544242921044892,0.7933901398179919,0.8373578521140264,0.883455873252136,0.9221629269200973,0.9633910889221853,0.9826681457534479,0.9657570043914205,0.9237141415573684,0.8853618675985357,0.8404650915223897,0.7938976284673513,0.7486039390620927,0.7152515862102868,0.684850836157517,0.6412566655219876,0.6106004895919277,0.5788043751845651,0.5436883802966159,0.5054885138184955,0.45958051180301007,0.4130094394565993,0.3664408717280885,0.32156481964809425,0.28325553342739873,0.24261435929843378,0.2012896971208833,0.1558760080235957,0.11848206272024542,0.09681770921443156,0.10404154796529386,0.1048272261702945,0.10482582652836303,0.10307152124822405,0.08818339490877847,0.07325579189330034,0.05603019257084818,0.047217658641314,0.06179674756912412,0.07953776789083333,0.08361014955490664,0.08342076450822966,0.07688034420444234,0.07840230668443726,0.07389599895528431,0.07662240924808494,0.07818925757305517,0.0832891151475672,0.0859537660308114,0.09376228503697526,0.09889365298907138,0.1184142492959468,0.12364983582568745,0.10927983522963314,0.09065806657590025,0.07191977488394885,0.0515786451148883,0.03981766665200803,0.03967822034270618,0.04251646994461056,0.05263420838132005,0.06173171786002296,0.06255130209011783,0.06892235358942456,0.07629466153402009,0.09590884058542604,0.1238323772921317,0.15581276207341688,0.19144384229528488,0.233092274582678,0.2721651822592617,0.31604108835659694,0.3548524117126881,0.4007324467695903,0.4403417281457056,0.4835069230466509,0.5300490217791314,0.5735827442643786,0.6128773199739217,0.6591722598243464,0.7055988448205923,0.7456890795660027,0.7883141509951002,0.8346709885816423,0.8744158350959439,0.9174148381593974,0.9636299210485779,0.992490401245572,0.9785608591024655,0.9438267251627517,0.9001274359197109,0.8536769614835871,0.8129446544464569,0.770991593480912,0.7244552394772175,0.6779385229692783,0.6362210688232204,0.5952534157236489,0.5487732890312293,0.502714015041291,0.4639858182920227,0.4229992075946023,0.3922485570905625,0.3499490080465568,0.3117622005704621,0.2734585836719583,0.23027495772477957,0.19204824158046208,0.1470134371978653,0.11779966328581315,0.12286941897201098,0.12619740675439295,0.1329657819631651,0.13240804522041483,0.11986412369432298,0.10571151472023588,0.09239549925653945,0.07478666199708028,0.08398042257280403,0.09799369939096314,0.10465775139348121,0.10389752507290106,0.09552542121220342,0.09024843662113513,0.08376589888323771,0.08362120115708715,0.08362120115708715,0.08362120115708715,PM
0.6263153020468921,0.6773755019175121,0.7324752733241016,0.7855100705833262,0.8337436910615073,0.888262276223466,0.9394371156010157,0.9868959988877872,1.0,0.955025442237242,0.906096810702032,0.8540832159785396,0.7989974439663987,0.7453437937334657,0.6974173546304572,0.6432445365347295,0.5926418772392561,0.5424037956329164,0.49132745547558043,0.44393817280717696,0.399061923149175,0.3521530575280645,0.30466364195319673,0.2567270259351664,0.20560678946633804,0.169356965254996,0.14998609598812696,0.1292496132908909,0.12896291647962865,0.14910341031898233,0.16144089185448185,0.15675772786125597,0.1645713785436813,0.16698324166634726,0.16068267896392951,0.15995683817274986,0.16064605768429452,0.17193824981747463,0.2045243868016573,0.2406141331362095,0.2769108427163769,0.31630213121289086,0.3557790638329299,0.3954505013864458,0.4367532015754827,0.4800531354060176,0.5186149647226244,0.5333256838359499,0.5136426653851913,0.47521072127602526,0.4342806369709753,0.38843731943932114,0.34143848954577627,0.2973258829486667,0.2547855420774381,0.2128316964806769,0.16992561941185302,0.13276826629541105,0.09818303472284984,0.06639915895961157,0.048638729007961956,0.05812239898869809,0.06694034243419278,0.09659176986281182,0.14055203673690997,0.18886283012944594,0.23886552110747106,0.28671449759441736,0.3404830961736254,0.3887087410208825,0.4417345725082129,0.4965226023240594,0.545248097508034,0.5975746153355446,0.6526620556990346,0.7061097984165623,0.7541122882069335,0.8084955403435492,0.8624859313827744,0.9096234207605525,0.9369906088274926,0.904394127172754,0.8557616044532645,0.8008953281677722,0.7464188924609974,0.6983008373267214,0.6450597197590722,0.5903132331381615,0.5417796827386672,0.4894905490232806,0.44073403110655196,0.39558044664802816,0.35194943408121704,0.3054554717650664,0.2568956488169454,0.20657026278695834,0.16191974911226703,0.14080072150091283,0.11641056313961551,0.11101846848542629,0.12736553723314792,0.1425067660258179,0.1376119133895921,0.1434151591916546,0.14528045458468175,0.1474885706597926,0.14249007176749462,0.14105999425710003,0.16611568201782334,0.1991384478091658,0.23522152974684163,0.27196029621360074,0.30878123855804795,0.34925516321476113,0.3895617969799705,0.432683259323674,0.47628433973939854,0.5072303958782058,0.5067113975039863,0.4798308593135101,0.44240269324157167,0.3984546123774917,0.35278894286964757,0.30867536499301496,0.2647719144609051,0.22410458309053505,0.1860334046411085,0.14526496282819013,0.10771269347580592,0.07512577024544775,0.06193065403233655,0.0657559650424171,0.0698580548309864,0.09956245679878295,0.14286233555738193,0.18889569571623932,0.24020794324632155,0.2901733790663843,0.34106812834332545,0.3951280417539942,0.4430255895210251,0.49682873269198913,0.5496574430620127,0.5980066288840982,0.6526658734969129,0.706919174065102,0.7548456131681092,0.808499048774824,0.8630809990281074,0.9100197970424366,0.9346429329129715,0.9014267205852509,0.8537154503444238,0.8008845367262905,0.7458834193988682,0.69557216728459,0.6449913563371859,0.5900902128360463,0.5403636088587587,0.48921687519390655,0.4375981033128502,0.39334207780749186,0.3501691772233324,0.30281812299264144,0.25397162633958126,0.20677464189193517,0.16361141529756384,0.14989205184478105,0.13724567853248004,0.13328266389441867,0.14901892586088672,0.16905686514686558,0.18683567246163824,0.19383208510871652,0.2008631655279789,0.19355234848635838,0.17455679684921654,0.1605177867116232,0.16510120212908963,0.19669418208795486,0.23231094381303619,0.2704157771841782,0.30895913538362496,0.3488192948958375,0.3892321154692169,0.43069835389186917,0.47522867879911956,0.5112156320774157,0.5224795015506281,0.49826549886478233,0.46240075383803636,0.41958950864590583,0.3719875493361937,0.3250809684145963,0.28095320701549986,0.23925093898614969,0.19546587319861186,0.1523139965756899,0.11354285565399169,0.07467003453275978,0.039684609194228226,0.015415843327730938,0.0024326800404046445,0.0,0.025134760487084185,0.06396639543652838,0.11121694475649191,0.15874520922922475,0.20813978038851233,0.259973110608815,0.30897016975183145,0.36380885343702873,0.41766949868761594,0.4655092637826945,0.5196425497901611,0.5747515339847373,0.6295470164071948,0.6772112957470067,0.7161537815221948,0.7666550836433172,0.8175060961992111,0.8674867992732045,0.9178288622023087,0.9334152098777841,0.8960762768257751,0.8426999270678039,0.7885712769813416,0.7411758012895691,0.6987204850577702,0.6509407135609464,0.6020386102560251,0.5502052800357204,0.5007671548618409,0.45001875083933274,0.4033595288872578,0.35921090918263365,0.3129542212080627,0.2656407205845013,0.21250620548310128,0.16497822919555283,0.1335895372724032,0.12638092312706317,0.11763646782849846,0.1276901910353807,0.1457239614140402,0.15113004561864862,0.15385799782539933,0.1605969761802517,0.1522125370199554,0.15145153121194843,0.14587510977701057,0.15313340044484258,0.18212946324419588,0.21712287631027594,0.25133517997310495,PM
0.12817947379527572,0.1252051394810605,0.11354765010782719,0.10174184663907138,0.09592968798966339,0.11531395374743791,0.13184312791038866,0.1505969929361215,0.16655644089185673,0.1821662444411496,0.1912070701875903,0.19470860556704173,0.19435570405162572,0.2036716115679924,0.2096703296028155,0.19968932893731273,0.17801370570648167,0.14951532307726723,0.12259060458640336,0.09034746757270229,0.0654028481478468,0.04355696047032831,0.03966149674802821,0.050074192666523576,0.06897048318843768,0.07982926024123405,0.0948585537116724,0.10726598097847706,0.13178327099679454,0.1579691536822856,0.19078019707757665,0.2258165447258269,0.26693640142404207,0.29688583189099726,0.3385752987236341,0.38580969051260205,0.4265347379127207,0.47224527845772246,0.5199521040801605,0.5623408098902765,0.6060440433602479,0.6538121173551505,0.6984032471432144,0.7399957737952005,0.7875947244106769,0.8354070681222765,0.8804768822882625,0.9216815084476668,0.96862392752904,0.9999999999999998,0.9843803345836697,0.9441720478575661,0.8967868762235807,0.854995387542494,0.8106468721246383,0.7629782263384988,0.7208038070467555,0.6768678191029649,0.6300139393517983,0.5896659258574399,0.5431413301502239,0.4970461933754382,0.4565463178638838,0.4093735895671933,0.3621587810678437,0.3216603867426635,0.2756140124302153,0.23023531102257588,0.1933910341571894,0.17876591258191854,0.16768236120986502,0.15595529926709317,0.14661640580547775,0.15123028479444356,0.16130162484682886,0.1673168062338084,0.16447472426599252,0.1597815389331425,0.14719866147109517,0.15569889677772397,0.1544793274120302,0.16345037775375348,0.16452346805453444,0.14816120375428454,0.133282101600813,0.10791138594833605,0.08229202367166488,0.0573188701367664,0.0334217955562901,0.017611554146303554,0.0185893396387804,0.035815635406813984,0.05441390190786888,0.07080965977253495,0.08476527701063641,0.09939932389251149,0.12004920141284714,0.14636836063252656,0.18408692607941401,0.22404120743266676,0.26494745799527264,0.30939811046049837,0.3530258884424162,0.3954778234523504,0.44318599306676076,0.49063865895992853,0.5315245434233085,0.5769593004641977,0.6247734442047179,0.6708703136038101,0.7113555166280408,0.7585398410593662,0.8048730831611983,0.8452830957700186,0.8922461336421812,0.9309465383294546,0.9225305000149546,0.8846690555294379,0.8376083834527883,0.7941747930553629,0.7515293369932976,0.7042391255904306,0.6635648852266056,0.6178716791620176,0.5737916194181085,0.5317472833590873,0.4840858892372606,0.4380943141137341,0.3975330280871159,0.35031886391851796,0.3040414887319909,0.2636493553459236,0.21792282006224206,0.18202716922461737,0.1646830278102156,0.15268215092870285,0.13918981287430698,0.13643744653774537,0.1334487497385115,0.1340383686326274,0.1476362093525645,0.1517372902749925,0.1518055398985123,0.15587608139418418,0.161348755539523,0.16125929948354556,0.15198253320531974,0.1328132567596758,0.10813631454966766,0.08170737584798027,0.05499162935632995,0.02505121898548124,0.0032114750005904913,0.0,0.015578963709448335,0.0337192972967304,0.048655246808671615,0.06259081967314462,0.07689921062375826,0.10037684577156814,0.12453396293590413,0.15249218316354907,0.186423989699962,0.22625702812999404,0.2686000301251117,0.3117415629404223,0.35887403483192637,0.3994206993073386,0.4454373668039484,0.4932148075343834,0.5369911629460786,0.5793221295660314,0.6270174915434874,0.6728305261909819,0.7134341387384813,0.7607884976026453,0.8086133289958599,0.856438339862631,0.904027505678412,0.9429846840745768,0.9488297023259957,0.9172308156600677,0.8740866209238065,0.8265729996389555,0.7850927079777452,0.740365327520683,0.6938827933888769,0.6536168655628123,0.606756815157558,0.5647465763519299,0.5206419303312899,0.47287788484133175,0.4286747366734065,0.3867349414316821,0.33908733901539834,0.29301044982339075,0.2525172860351088,0.20839402367844584,0.17684975460722074,0.1698297992643285,0.1609935769591062,0.15017249025754853,0.1475851265625414,0.16241017681758985,0.17053933926121534,0.17124445262079657,0.1757785893242796,0.17550128379427332,0.1717834230868278,0.17946317161967595,0.19187729356505168,0.18667712490274035,0.16633969544957483,0.13951827584983012,0.11282067530870599,0.08735261897594415,0.05747881625116236,0.027694684212658638,0.007753259996324813,0.009137843886936281,0.022998919685538466,0.038817696904379195,0.04909704720503938,0.06037780446261998,0.06993781901791785,0.08324815068785041,0.0863950765579653,0.10984151739667336,0.135890460303973,0.17070291607584465,0.2089288517768888,0.24743911468495727,0.2921132210052495,0.33362980693553124,0.3782862230869146,0.42608772552052465,0.4726748131827556,0.5130043588557835,0.5598556574473581,0.607678916359635,0.6545817378184633,0.6948110296042771,0.7414463289473392,0.7885098233430845,0.8288605590323417,0.8752134643282588,0.9230332477554268,0.9691521775190142,0.9919687511457187,0.9694139833081661,0.9235940468200601,0.882126228365834,0.8373839350900043,0.7895775755133474,0.7450138935432473,PM
0.7531723604635876,0.747084211752967,0.7398735574876389,0.7298523419368885,0.7173098587188911,0.6981964112707537,0.6767628699990564,0.6527631570525005,0.6411111841774331,0.6352684029242892,0.6188104681112734,0.6238656946526366,0.6188365489114978,0.6186909188663681,0.6131776006654199,0.6151512111533561,0.6338794570714057,0.6584097435434526,0.6829751525366294,0.706966659111868,0.722284787591936,0.7371590007487014,0.7415480263330745,0.7392068499454405,0.7304021188017782,0.7240093556142215,0.718313428628164,0.7234697159991457,0.7297916825768833,0.7312559478387928,0.730771701398903,0.7175944495694664,0.7030780916413426,0.6925606804436475,0.6838656051778003,0.6922896968147167,0.7115812661776781,0.7311374706566751,0.7471184974441558,0.7531880697487277,0.7513424305728276,0.7272539101304614,0.6878592219360005,0.6468921995483379,0.607053768663173,0.5595037473893749,0.5103745629537084,0.46124340238068795,0.41211224180766726,0.3630654489935021,0.3199995737491803,0.2763551247377942,0.2272804594102653,0.18076401565091094,0.1406785080091788,0.11318822788116556,0.13210213796924553,0.17398488007039647,0.2230089322993969,0.27023875323710356,0.310334838619726,0.3587187697297114,0.40784993030273187,0.45698109087575234,0.5061122514487735,0.5552372705508553,0.6017507472879597,0.6422430148307663,0.6862023767708592,0.7184070304286982,0.7658395987497757,0.8149023306646554,0.8583320496609246,0.9016202744252637,0.9506755622603111,0.9980176467953017,1.0,0.961740405807523,0.918612245111472,0.875820949318713,0.8337219391486013,0.8037382749864974,0.7841907226146669,0.7713888646553237,0.7650484985778618,0.7632943061429929,0.7533693607314764,0.7432283955946255,0.7302065716813517,0.7085055630128627,0.6874399349607521,0.6644501630083297,0.6475028306512529,0.6369403701974277,0.6385104675489319,0.6499700481664143,0.6651283991820836,0.6815147397201589,0.6983565839753652,0.7157999242940174,0.7205298950603367,0.7222001271278933,0.7181660904581788,0.7125864518028211,0.7068149386695721,0.7143174398448506,0.7181801529279028,0.7181966222991958,0.7181830352776459,0.71464257893998,0.7026123847888981,0.6877194691051152,0.6831673618653333,0.6838581890454116,0.6982280108158037,0.7215887656129836,0.7354731222787316,0.7414815651732589,0.7378869590247059,0.7128029391474104,0.6768107493871593,0.6352963830475709,0.5874813908124914,0.547505458663478,0.49978627494797223,0.45068675095548505,0.40626560244629184,0.36392838282622386,0.31494987201773816,0.26581871144471836,0.21672004013116553,0.17235183198388104,0.1299635609910934,0.08143635535511495,0.04699729575808198,0.05009744722284393,0.09192763514012148,0.13189528488365632,0.1799313808361278,0.22906200362796247,0.27819308517588404,0.3268318648598081,0.36745759037225145,0.41390611596728455,0.46303082333437096,0.5121619839073921,0.5612931444804119,0.610424305053433,0.6595554656264528,0.7084348292272358,0.7496247037503831,0.795275190914652,0.8443931247598417,0.8935242853328629,0.9426453302215405,0.9837809435290406,0.9618608702226199,0.9222518074985495,0.8808729741053001,0.8444260555064589,0.8116898315821381,0.7876363756190952,0.7736135869201921,0.7564874604272263,0.7531169883650346,0.7458715197711636,0.7360984237575237,0.7212225685876583,0.7052221737368733,0.6815057130847859,0.6618972873187259,0.6407087243968088,0.622086230575297,0.6133548919560414,0.6157653993290741,0.6318852963277029,0.6600159200346298,0.6848835475224484,0.7030031583096104,0.7176708691826894,0.7314970938254961,0.7332368706246037,0.7294680531396764,0.7208675096900763,0.7162073769747632,0.7076890558525675,0.715447846595983,0.7181896646820556,0.7182033037207842,0.7208320466506655,0.7193503487053192,0.7016346609792572,0.6933824096292582,0.6775299530369405,0.6744552638013355,0.6892389813338802,0.7056191575063255,0.7217751600771951,0.7280525535693521,0.7211562427019393,0.7183677554469792,0.6952238301130471,0.6588641173521614,0.6158791406918531,0.5757704066724882,0.528794329397344,0.4796688643127389,0.43204457632537596,0.3921792558914876,0.34396068159411297,0.29482992846218137,0.245698767889162,0.19667770343648083,0.15424618314713312,0.10995208638599907,0.06118099946972255,0.02149448886063543,0.0,0.023914597060314735,0.06912642065172969,0.11824190449963767,0.1673681577746342,0.21422944625004625,0.2544725983718876,0.30307956363302635,0.3522107242060464,0.4013418847790675,0.4504730453520873,0.49960420592510846,0.5487353664981296,0.5978374639945208,0.6427572773856141,0.6846077376664452,0.7335730256315172,0.7827041862045381,0.8318353467775594,0.8809276930066963,0.9252228157448439,0.9507066897957577,0.9200538087826216,0.8788532932397266,0.8404914210709631,0.807509736619022,0.7860620076491256,0.7682273962698494,0.7536702610813222,0.7428584631684836,0.7414464465741268,0.7336565938639232,0.7191089056650242,0.7050034653880619,0.6885337999799381,0.6654652570510178,0.6395249113028989,0.6208903134284955,PM
0.01954735924018869,0.018068081362364596,0.033022229901734645,0.0454831027424889,0.0591177270317611,0.07491331832122627,0.0903805289441526,0.10453855196721662,0.12602713012096145,0.15179093883590533,0.18240470275509146,0.2142100629709569,0.24982872053400063,0.2878722457258649,0.3259331331623305,0.3639940205987968,0.40180593128403896,0.4348298287437098,0.47090541769690053,0.5089566053811956,0.5470134723868265,0.5836176465288929,0.6162695996126126,0.6539193297132104,0.6919800776000606,0.7300187670815534,0.7653573318929976,0.7990138540267482,0.8369426623824603,0.8750035498189264,0.912970713412564,0.9468652428266078,0.9812159190122027,1.0000000000000002,0.9814446866254485,0.9491000819122755,0.9113227162249162,0.8733695638692744,0.8394472512601665,0.8043935518093845,0.766360131442517,0.7282992440060512,0.6902742328590257,0.6552724848219611,0.6213080519730285,0.583336659223652,0.5452757717871857,0.5072150556541397,0.4696167956496271,0.43703301233894787,0.40030987892596914,0.36225229956832106,0.3241935020467346,0.28731236418828066,0.25478196014892673,0.21732383648638876,0.1827268915090119,0.16139514420403378,0.15639516107742013,0.14909518311205683,0.14498085909913083,0.1278639291227155,0.11237819189185005,0.12004459640226783,0.12835286050770423,0.12765928947937022,0.11939329762524342,0.10697924134113035,0.10337326559755144,0.10240597088161296,0.09936414050312004,0.09461038324212945,0.08955437841162861,0.08090867420876124,0.07770216096726879,0.07941534649278958,0.08461665656298978,0.08554518439295866,0.09356548817195787,0.09546431575935799,0.0810259412404688,0.059814912629704065,0.03418712547434111,0.010470324152560995,0.0,0.007903915569779096,0.018255465385573544,0.02747576975619337,0.0393830129055277,0.04697273442234229,0.0636428022759905,0.08927695719951334,0.11983997127462831,0.15178418028838347,0.18565139484527915,0.21987746741325975,0.2563552764311179,0.2890377718051631,0.3267041858795632,0.3647649463008109,0.40273774876876645,0.43672543596758184,0.4717032320148322,0.5097275310832092,0.5477884185196757,0.5858484569596805,0.6229848327173231,0.6554517103535651,0.6927518576371143,0.7308118907385408,0.7688368527939322,0.8037407553878513,0.8378080446198815,0.8757744755209405,0.9138048269681027,0.947129375313805,0.9506502604519864,0.9223749801843979,0.8866657181902338,0.8536978097520989,0.8158992459978576,0.7778383585613913,0.7397794046372936,0.7028240368913423,0.6703329278217136,0.6328753860483249,0.5948148863425264,0.5567656645214809,0.520949548830735,0.4877058232655458,0.4498523015601268,0.4117914141236614,0.3737310134763321,0.3363248443419318,0.3038163412003978,0.26682711468143094,0.22876794190479632,0.1907286891848181,0.15527901024108615,0.12566752376670576,0.11135525724917716,0.1105950349736724,0.11132811117382602,0.10739507575273444,0.08823080323975319,0.0851643417781549,0.10375760208866991,0.1155221245340805,0.12114905000383658,0.12406516697968661,0.12890048256659892,0.13437895187905724,0.13555340760211254,0.1302821365535891,0.12863821679044052,0.12863325905431866,0.12884942951818368,0.1328874139287186,0.13345931998777028,0.13463734592884613,0.1326201138440568,0.1425539031643659,0.15546285636377433,0.14830170066804627,0.13135574604567757,0.10938379891182604,0.08444177616942206,0.05650273071804879,0.02910936837847533,0.004855550930964014,0.0051404578499749665,0.017319588809610043,0.028114294597936684,0.03595883031881919,0.04914656808965878,0.07045161445254289,0.09238214177193038,0.1209726266921709,0.15243532169639873,0.18471278765674182,0.22190654839405788,0.2547118158355204,0.2910770034357273,0.3290517024721815,0.3631866478675385,0.39801286035067074,0.43603274453143226,0.4740930804544494,0.5114648122759273,0.5438974971378971,0.5809968796400473,0.6190562167502984,0.6571171041867636,0.6951508064973473,0.7302094991766908,0.764126979231702,0.8020796889691635,0.8401405764056296,0.8781927455420315,0.9142772289349408,0.9472415335571476,0.9786202690536323,0.9768986121058758,0.9472191098692402,0.9097816878713672,0.8725924884775036,0.8401690076446509,0.8028784822612751,0.7648182800384888,0.7267573926020223,0.6886984699584269,0.6517579481899767,0.619258980126403,0.58179443345898,0.5437339203831584,0.5056730329466921,0.4676326409008775,0.432113529883827,0.3986126469121827,0.36071044816429243,0.3226495933172573,0.28485749330687415,0.25180545307774627,0.21573899825930032,0.17822329860840402,0.1501855520850015,0.1386816038099148,0.1387315622857297,0.13545628844350288,0.12453105096709005,0.10267539528984293,0.10348893252104174,0.11376913673331357,0.11947025778683273,0.11894926222221791,0.11424916324784218,0.1122981186289278,0.10708462531789564,0.10619852320069922,0.09917640843221931,0.0898091893864379,0.08505989642550227,0.0849850863168986,0.08834720660474771,0.09695891565160686,0.09949675854572049,0.10146382398301279,0.11193250642635633,0.10819512436137102,0.0880380793848099,0.06440014810470296,0.04811094964395868,0.045988670781964114,0.022359352080915995,0.0026789186731683845,PM
0.7425669929779215,0.7485980653394639,0.7639205958776856,0.7566130138413052,0.7591094884218517,0.756395953781513,0.7699269392689105,0.7723046750243039,0.742553214193741,0.6975521828364781,0.6421168123269945,0.5931907304314361,0.5373088541086164,0.47995814705544326,0.43069076622077507,0.37538096461394677,0.31745481109977924,0.25960665669842453,0.2078199965715204,0.16569200782271665,0.12093389014086986,0.06491989947012033,0.021122348847038674,0.014623513174035763,0.05674504312587647,0.1143074301335143,0.16959257884015955,0.2188745040057276,0.27624022141154025,0.3341735720288761,0.3921071057219019,0.45003823421567457,0.5064679502612583,0.5551205092155849,0.6119667724848341,0.6698993311872545,0.7278328648802805,0.7857663985733063,0.843540629896385,0.8816464747911437,0.8543352846261767,0.8202710997317815,0.8015876908668707,0.792049496991931,0.8070407625990188,0.8247383080542423,0.8277168178199756,0.8431915400853929,0.8645634861671083,0.8997910632132484,0.9218002580577034,0.9168175328957568,0.8718742872213823,0.8302165686975524,0.7891878204675562,0.7574784072522356,0.7377423819531428,0.7421396324006855,0.7515693131259771,0.7451909656558608,0.7299962795779571,0.7045184971065817,0.6960532702970519,0.7052677536182834,0.7181554161543857,0.7304794404049031,0.7380365283572488,0.7426343577459948,0.7497903951036331,0.7672793619814275,0.7817983443501362,0.7841910594128061,0.7673911812211214,0.7384510126481556,0.6926845789414193,0.6400786907434295,0.5841087327301893,0.5352279888735822,0.47821500454250443,0.4203275544298468,0.36714618704906177,0.3161317196414546,0.25835701539236067,0.20042348459610215,0.1424899509030766,0.08457035919300071,0.03061521786573862,0.0023752509860508475,0.016942653669791863,0.05031426391945493,0.1036243568357984,0.16153723006742426,0.2194369877233744,0.27300607593477744,0.32367954788103703,0.38139592183975113,0.4393294555327769,0.4972629892258027,0.5551965229188285,0.6130912291461128,0.6663375626137806,0.7173015149349433,0.7750552146911556,0.8329887483841809,0.8909217068757385,0.9472013973984268,0.9569177197924623,0.9158571499163699,0.8793015205301264,0.863346451756867,0.8716005182380839,0.8734980594649495,0.8836253589284184,0.9058349793739269,0.9267021799112705,0.9499693467942989,0.9801469443402513,1.0,0.9793375448177666,0.9448742949113065,0.9079800080005684,0.8729811850824882,0.8439059120121701,0.8314825796933041,0.8346987422427452,0.8254411035189873,0.8138613707309903,0.8043657946420562,0.791143851738972,0.7874965015622069,0.7881536375708131,0.80234822502305,0.8126512057741846,0.8161137755480694,0.8112169064499799,0.7719815557120695,0.7163246274131903,0.6583964511051172,0.6004954483630629,0.5469158734227746,0.4962700164617493,0.4385377394416554,0.3806191308098077,0.32606968965484673,0.27622627488519047,0.21867899977611005,0.16078010867688897,0.10726388493924932,0.05667712035136119,0.012556611086601999,0.022023231541127064,0.07453636286551735,0.12434209564508802,0.1789226141878304,0.2368415097954164,0.2947750434884422,0.3527073895457298,0.40934222549536425,0.45804255725339926,0.5146352971506274,0.5725672689537962,0.630500802646822,0.6884343363398477,0.7463676334820708,0.8037484530569159,0.852888683018588,0.9082398143729216,0.9514774365611443,0.9262428967078749,0.8907753895051433,0.8743846302015457,0.8731567353258289,0.8731648714976621,0.8760555600424835,0.8905656417969396,0.9153862525542964,0.9511568354102229,0.9795218589631958,0.9797997250719397,0.9430441162081835,0.9020256706786745,0.861428205676638,0.8200449474017557,0.7968575124599853,0.7866301308727683,0.7715873021402229,0.7530257363902941,0.7527515965453315,0.7655212594390766,0.7743115433392358,0.7870793234951743,0.7798390118294385,0.7672310162187896,0.770335084272038,0.779884507348994,0.789933350063277,0.796797218004804,0.7774743476195405,0.76897729656324,0.7644146223380786,0.7304034999703415,0.6810801520987437,0.6323879463351179,0.5755866780775121,0.522234282095341,0.47138773365596043,0.4136226039803683,0.35570565497139905,0.3013504474900719,0.2513484381962854,0.19376402576131757,0.1363627633160549,0.08703082581704713,0.033019734935765266,0.0,0.021364314514010108,0.06926390520868475,0.12219196304254698,0.18007223522001592,0.23800576891304326,0.2959393026060677,0.35387283629909483,0.4118063699921193,0.4697399036851462,0.5276734373781706,0.5856069710711977,0.6435405047642222,0.7014740046616312,0.7591525714494944,0.8095542389440895,0.8633467838312996,0.9043262495088809,0.872988048451873,0.8330122095146901,0.8070780410666447,0.7970776689490244,0.800330145283473,0.8181455639138826,0.8143592432251929,0.8230349597784952,0.8546181407296587,0.8708479198154246,0.8974903298975057,0.9225954891773291,0.929148309574789,0.8925291152991321,0.8508544501395692,0.8134299519001644,0.7813186237280434,0.7545222649645442,0.7258655820558599,0.7080762257339621,0.7068573201734922,0.7021766787844403,0.6951870762002825,PM
0.003782138175196792,0.01803083683629314,0.048710028271176986,0.0750145335724417,0.07499431282774682,0.04903842706386263,0.015687342973403462,0.0024052042704125753,0.001588640000731445,0.02014382340497267,0.04972830396060335,0.06913007643063263,0.07369601478954158,0.07934160427821313,0.04981674744323472,0.02287578777113608,0.025284521595404286,0.013190027783041902,0.0,0.013611842216056269,0.039221038706442,0.06875529462511909,0.09960800870360931,0.13122293292507536,0.15992682986398288,0.18979658090910667,0.22127166020604205,0.2546920592613313,0.28747345424923454,0.2804070620063095,0.25104934801611734,0.2252539284237458,0.20314920016132376,0.1850022080157805,0.1729789407105673,0.16847685254078693,0.16297125935162793,0.16275212234424563,0.16341565121668733,0.1705816997658074,0.17837528253497292,0.17956926850956245,0.1795710817957119,0.1795710817957119,0.17951020043231725,0.17396185495181649,0.1558681613392503,0.13743604063641923,0.13518862638865725,0.15974537404808387,0.17486773092371655,0.1614161461009187,0.1669766294071544,0.1718993182329991,0.1888055731192233,0.22548059772470164,0.2626698107120655,0.30089868066273606,0.34116325223303856,0.38476647716887347,0.4280950387192417,0.46596086383683555,0.5072617324537234,0.550881825186192,0.5945130636181675,0.6381442305343561,0.6814311979380969,0.7191643676053625,0.7606366222250112,0.8042596066471623,0.8478908450791376,0.8915220835111122,0.935144507853505,0.9766166176354087,0.9999999999999998,0.9698942494344591,0.9263489693391398,0.8838459993246117,0.8522661139744308,0.8122586870515209,0.7687843581919496,0.7301959991063645,0.6897583975978807,0.6461582029866271,0.6025269645546518,0.5590245612657898,0.5203633359462014,0.4800095209392097,0.4364116599576324,0.3930789065524778,0.35533745780807435,0.31391946456648556,0.2715221197227493,0.23438618421294066,0.19608643189510055,0.16414286486034557,0.13606023488793606,0.11297811882204534,0.10164659448623303,0.0912062640241853,0.0807840309309591,0.07239940246759069,0.06925228097937319,0.07106401989352307,0.09289456986555433,0.11833919900501555,0.14731762336741916,0.17640569899171799,0.20598673177790294,0.23830279783887431,0.2718539132015778,0.2907296764230767,0.26876934203676184,0.23942496688517068,0.2140690090707118,0.19312963264164407,0.18055741457968844,0.17289988043152715,0.16355768565724915,0.15518422361086026,0.15474047317863682,0.16126421143379188,0.16943922648001597,0.17115751301660942,0.17194926495474117,0.17837804070129692,0.17956926850956267,0.17954198043301517,0.17497950286704578,0.1560876452259201,0.14117123883181404,0.1497689242121929,0.17369987231898398,0.1734683408654467,0.17689574079227288,0.18165340211033065,0.20046006595360666,0.23703928525199736,0.2746088878478876,0.31385409621438876,0.35327773633345916,0.3968281451184077,0.43840174796827824,0.47601996263128576,0.5193209066832447,0.5629521451152195,0.6065819736994704,0.6492085771394189,0.6863238352092733,0.7290681955197238,0.7726986881442148,0.816329926576189,0.8599594874010823,0.9025004381272461,0.938230885676864,0.9415732123682095,0.900622367708636,0.8569930535502064,0.8133618151182314,0.7700755464985511,0.732481417261913,0.6908694096227672,0.6472465105212111,0.6036152720892358,0.5600888603548777,0.5212621791922167,0.4810926944885068,0.4375004272365557,0.3945684261314757,0.3573818665226385,0.3150218010391159,0.27353630248774174,0.23639161603265668,0.2008808197497185,0.16888920603409185,0.14336399961242585,0.12285662517362184,0.11288146266014731,0.10317885461168808,0.09176150192894927,0.08712245126318474,0.08864254721413611,0.10252133665819207,0.12454043568461226,0.15126408542134873,0.18023067255779135,0.20931852900029546,0.23909915037681295,0.2733277737835118,0.27626079436294493,0.2502769296156868,0.22409490416989897,0.1987013404860476,0.18052945574849777,0.17167890949581577,0.16501747625737972,0.15663233521369024,0.1543533110674118,0.15508417855692103,0.16235906124751698,0.1701170800305074,0.1747810432763759,0.17947133463208798,0.1784679968943692,0.17490875655018057,0.17364618527091613,0.15861911761706993,0.14892820282366048,0.16170801573914662,0.17558917643752192,0.1718360080659722,0.17771129990237777,0.1878611756921893,0.21667489997416878,0.24911440872786605,0.27914524596745927,0.3158341486249925,0.35688759982272544,0.3942332294101347,0.4355081802206484,0.4727374938150195,0.5150690174297643,0.5586958092920022,0.6010896577933795,0.6382624014826299,0.6811823983679473,0.7248131566225013,0.7684443950544768,0.8120618645162161,0.8521245034415157,0.8836307747104162,0.9174973872722372,0.8976293120219359,0.854420680070102,0.8107894518546679,0.7671582134226926,0.7235269749907187,0.6798957365587437,0.636264498126768,0.5927594440584725,0.5540836454920852,0.5137465877853911,0.47014919352974793,0.4265230164095215,0.38468982146149044,0.3480288589219329,0.3163290338957201,0.2797541375539485,0.2424810459172504,0.20640975753546842,0.1726232572655908,0.1439253435006429,0.1220289482867396,0.10825887358042441,0.09957622996680526,PM
0.17914477259595296,0.1686142498737735,0.16659657057295574,0.17695856457945647,0.1906668355532808,0.20608068032907578,0.22828221293498285,0.256361498897842,0.28780885297278136,0.31791505293837474,0.34837208494636585,0.3567557656014966,0.3364119692662244,0.3055880952427743,0.27328955285684886,0.23951308052026965,0.20666445409246648,0.1699235768145675,0.13710541243259322,0.10964199741185565,0.08618907655069519,0.07650823857311084,0.08334578507641255,0.09335613448768276,0.10016623280919856,0.12333030482112517,0.15702203965207295,0.1989202258545506,0.2366364730301822,0.2763710072205994,0.3158481266253199,0.35770865971736265,0.39574530933770946,0.4392611859536244,0.4831092552007257,0.5232066803827071,0.5628480532728335,0.606667781685172,0.6504778600240253,0.6900068206034786,0.7302239338943051,0.7740682053736001,0.8161756850028432,0.8528193621134594,0.8859999381017141,0.9251414576002697,0.9683656779943424,1.0,0.9930985816728533,0.9535171589228253,0.9096402407335127,0.8657381908574178,0.8219767052643163,0.7828836958924028,0.742202737703169,0.6983314237539378,0.6544293636052132,0.6105273205775372,0.5667824718765497,0.5278461377955537,0.4869954909331351,0.4436695019217838,0.4103115990851576,0.3733116571929067,0.3355366219008378,0.29455146863977566,0.2578633110283608,0.2204358667329238,0.1846241058791145,0.1745058683922367,0.17846029991105938,0.16633231283303207,0.15156707167179118,0.15322716088101562,0.15423504928437137,0.1659398880765528,0.17163024238096614,0.171697940425523,0.170686544330529,0.16413496923696802,0.15785420251039795,0.15700832888775995,0.16871996774302733,0.18138615290695248,0.19161274098173164,0.21129730214944553,0.23734876470290023,0.2671189149032691,0.2976346934278937,0.3257952239340123,0.34097404720460056,0.32447899261011615,0.2944917524785622,0.26165660723711115,0.22736946159900562,0.1957250835236506,0.16292550314105125,0.13000513341111586,0.09712608961698632,0.06752483630180506,0.05144278860925722,0.04902976940018022,0.05701146410190083,0.07339789113226436,0.09811562644960015,0.1294017003208039,0.16634904925827754,0.20365153044043516,0.24512719510715875,0.2827648690150495,0.32588821406398516,0.36978963297062495,0.4136916931193495,0.4575916395325117,0.5002287971024373,0.5378978340450524,0.581098618113189,0.6243816920748482,0.6620958440212463,0.704603388501281,0.7471077358991107,0.781901292920004,0.8198932707900788,0.8584420294946655,0.8982561534962499,0.9203390117106482,0.901327329708594,0.8591934660077389,0.8227956358651298,0.7937207872344079,0.7518785042322462,0.7079802281822292,0.6640782125482299,0.6204230865288822,0.5819990293186905,0.5405595570080048,0.496671411202654,0.45277163688131683,0.40999725168941503,0.3723947551612188,0.32930958332146587,0.28893099256632304,0.24955915257599304,0.20591718625846256,0.16705122015421336,0.13370536562011615,0.1293936885089766,0.12934451665460944,0.1189900975324607,0.11838037844952187,0.11732875420994793,0.12253586910609515,0.13731999532803862,0.14341938197850768,0.14124400109437274,0.13675972313334128,0.12885022314835548,0.11614568471006614,0.11519297000295126,0.12616743394554075,0.14094039034977635,0.15693571552282792,0.17935138849889398,0.20728465191836754,0.23811300380435396,0.2690908919498278,0.28496704637141046,0.2730232770385328,0.24543214504315047,0.21156578684050453,0.1762714353221133,0.13961797627233663,0.10673549272843652,0.07656895548382114,0.0497646193611736,0.025578886271881762,0.004463922288863387,0.0,0.008054511059458536,0.020015301764310323,0.04495061363043473,0.07897824150780419,0.11516571542187193,0.15239754633054492,0.19237743753124414,0.23146976467819114,0.27490056644128846,0.313011927231196,0.35484411022107554,0.39861681301166163,0.4377609874056143,0.47837590584706,0.5222323000917715,0.5639673143779969,0.6021699958225624,0.6457452649850592,0.6890899382784919,0.7268606683777807,0.7673362967871407,0.8016718210079123,0.8407197137438727,0.8811263625159693,0.9091288515859057,0.895834797359992,0.8574227221079589,0.8136346366720166,0.7697326278864378,0.7261173138723866,0.6878039445450084,0.6462173318690172,0.6023258196924415,0.5584237595437178,0.5145254470759824,0.47220128143904994,0.4343921296386557,0.39101678698765885,0.3472391819348164,0.30856355851355133,0.27894830505841717,0.24569991380029665,0.20637877189414144,0.16855614526738139,0.13441326295221678,0.13138195713077594,0.14319575613671165,0.14030429160618207,0.12479609954468951,0.11989261823494979,0.12012102073313446,0.13680739763921368,0.15414218168512672,0.1627497902675834,0.16326597339519267,0.1561952019414281,0.14558960092134354,0.1396766587846201,0.14666939033035775,0.15760242619180698,0.17067263774631436,0.19398706110357988,0.22261408352491974,0.2505651731366718,0.2795951039883824,0.3071767940100312,0.31642517685493,0.29535670761245814,0.26375058993692835,0.23083990475690763,0.1979050859063669,0.164982412046641,0.13301286768074205,0.10729555083717024,0.1078172572699636,0.08865815003231003,0.0630459554790026,PM
0.22683938851333474,0.233005711540054,0.23298745262420428,0.23214457262814736,0.23091988474340275,0.22616092915457664,0.224121080073321,0.22820048634503698,0.23764762852733867,0.25194180490179396,0.2692424703518691,0.28773505633455365,0.30223411520214316,0.29941359698625936,0.27886581208473393,0.2524964039749268,0.22415065612957352,0.19071533729528856,0.16077636478202362,0.13210871898730892,0.10364698554776597,0.07714272612824657,0.051522288152149986,0.028540715149140805,0.011466622180876684,0.008831365180972606,0.01409992285935957,0.026403174018905573,0.04315137693008653,0.06807270801895982,0.09813446637484691,0.13075363529353345,0.16508890464072856,0.2021307869739959,0.23921517092222466,0.27624371325900154,0.31040397936804276,0.34449083600110086,0.38131469213500246,0.4143597460930596,0.4496564134451374,0.48668095416619217,0.5209742412388153,0.5549316971839952,0.5919430757171588,0.6290274596653874,0.6661113437024707,0.7026474225249711,0.7351900623823909,0.7713288363248311,0.8084107345107464,0.8454951184589755,0.8825021440019706,0.9163166580773002,0.9504760750628921,0.9791301416520198,0.9774240456988829,0.9466828681466045,0.914197758285216,0.8776769826208198,0.840608939909507,0.8055253100198029,0.7722961176479698,0.7353786527123191,0.6982942687640906,0.6612099572685693,0.6243982289625541,0.5915555198177546,0.5559880166966192,0.5189109939187312,0.48182891269184747,0.44565991160320795,0.41336896564669934,0.38100464019977454,0.3461770795108302,0.31370093809884947,0.2787808486191009,0.24628393278454774,0.22039239933844534,0.21976034906451136,0.222288340812816,0.22180203130666287,0.2085107732503112,0.2104192911202729,0.21907159546873445,0.22006688495357363,0.2200691144585316,0.2200691144585316,0.22005465989041917,0.21809473470082685,0.21479675604996296,0.22120043149745783,0.23212351752925675,0.24746039946298282,0.26426125713746773,0.2838366657028991,0.2970277277151435,0.2913833830292746,0.26971846052961534,0.23984885780161747,0.2092971317485106,0.1811350851153093,0.15163089815293818,0.12281161052311451,0.0949810249012858,0.06740095667276413,0.04116230229078899,0.016972686747822263,0.0010671335905905188,0.0,0.004995381178562575,0.013303178775690094,0.026582434312836023,0.04693376880546085,0.07796959641923606,0.1110205060705155,0.14601483816686622,0.17978398061051937,0.2142332465563067,0.24944020802775968,0.28254335332705416,0.3193591815996356,0.3533966254677773,0.3876029288896464,0.42463706099769294,0.4614592109348993,0.49436167932607333,0.5298608583133747,0.5669359815604994,0.6040133017968757,0.6396110403884839,0.672431166549511,0.709234949474287,0.7463192564058584,0.7833490644363869,0.817529795309056,0.8515967441439792,0.8886181473029889,0.9256137888570056,0.9592722106164701,0.9888751597437185,0.9904479609247595,0.9620397329743181,0.9268259849159174,0.8897548334010178,0.8526704494527891,0.8155860655045605,0.7785719529825296,0.7445846353401476,0.7103220454129667,0.6732871746074304,0.6362027906592008,0.5991184095634415,0.5621855141935351,0.5288712359316953,0.4939130071649175,0.4592322112739514,0.4281630961112367,0.3949011857401542,0.3621504234268348,0.32664799198480254,0.2925290911709625,0.2588540026912577,0.23026663712747608,0.2255523360581534,0.22836693334685998,0.23047083539315805,0.21703192230518287,0.21386465024718404,0.22341923432868616,0.22281489638459273,0.2201129319793409,0.2200691144585316,0.2199468972438614,0.2162946257261127,0.2141701631752193,0.21806404684081737,0.2283843053731912,0.24308496980524608,0.2614188392654887,0.28381805091367196,0.2996765755282996,0.30271119789508416,0.28606650835977077,0.2568134510927277,0.22873473161705105,0.1994004597770167,0.1697468442501664,0.14083862845980832,0.11160473669082904,0.08301448980087645,0.05637324381562392,0.029172070124527938,0.008539001274541547,0.004318985761697536,0.011144334365697617,0.01961959018025239,0.030591126038844285,0.054509438575924274,0.08614401423840501,0.12028133710879096,0.1527518959487486,0.1882500560716852,0.22078351541011054,0.25703094514651104,0.28986000889613905,0.3254626359848448,0.3611358690446512,0.3938523020470074,0.42625996789663156,0.4560045733136687,0.49163996192692416,0.5242637088788539,0.5608977193877079,0.5979799787929504,0.6342048934006713,0.6667011512362692,0.7031969569191,0.7402806115100747,0.7773637626173456,0.8137162035425994,0.846223846016411,0.8825806702745488,0.9196638863554337,0.9566384067571067,0.9886142570741455,0.9999999999999999,0.9756243994954877,0.939020404202063,0.9054014743861579,0.8707588896807629,0.8337020001919137,0.7966179708611968,0.7599727545556395,0.7273378590867104,0.6921045546643821,0.6634900301609653,0.6320904963899713,0.6037518337347617,0.5739813142463625,0.5461454886626546,0.5113738551281825,0.47839467828999716,0.4456554409098955,0.4120359564452222,0.37870117705827544,0.3438461424658589,0.30822591130182697,0.27564298461526493,0.24488367694262803,0.23545865066112326,0.23623211653334575,0.2419572843216421,0.23425800653704332,0.2238310434366627,PM
0.013194525466884821,0.03379251567098929,0.06708985489608121,0.10079087047323254,0.122070030628745,0.15168192086880672,0.16230928038898784,0.1613270164914029,0.14421373450216501,0.14214164759867454,0.14583634955723412,0.17260334503780683,0.2125564632444632,0.2550015635325946,0.297310147120869,0.34145079893061325,0.3751247974590508,0.41547408270728514,0.45778752028772596,0.5054024863992852,0.5533008663528591,0.5962949207998673,0.6421829208023888,0.6903492595338252,0.7385300421995451,0.7865965253677112,0.8304282673631915,0.8599012377573558,0.8286565685256138,0.7806119916164393,0.7324314873320901,0.6847519820480972,0.6422550639900928,0.5956594100354233,0.5475033738556128,0.5017984148053585,0.4586558194695023,0.4108191940714263,0.3668384007751726,0.3220853864843214,0.27549049305335616,0.23303659835812174,0.18826780475906157,0.1469541739560687,0.11023192064062015,0.07812967258307135,0.05564511119775695,0.04636852816150272,0.039979753564312714,0.028672314733792836,0.027708047320624596,0.04360492196541421,0.07688716503760462,0.1115448058014672,0.14859830438798638,0.18294961034697055,0.21577245430058567,0.22871746369729107,0.20877944512761415,0.1895315129246382,0.1747198885697554,0.16572286149273152,0.16406406907070958,0.16440418902182619,0.15836278444933316,0.15416830844594442,0.17112934090555698,0.18424621744315028,0.19130522756889623,0.19170730985273754,0.18076721752501412,0.19672251485803716,0.2359845057930059,0.27778398438812957,0.3200578551141764,0.3653125598033129,0.4134621576011883,0.4613216158221618,0.5041454472802538,0.5464634561168613,0.5796041332313837,0.6117701552750205,0.6475490066863909,0.6891998717589229,0.7367009319438811,0.7848811365421631,0.8327919946901319,0.8738177589732063,0.8744379270047231,0.8322226520716449,0.7885521742575392,0.7405121630054126,0.6923401644513456,0.646016307851502,0.603363236045882,0.5555700385745523,0.508907003822421,0.46643181175221615,0.4188326846553776,0.37369865135119595,0.33007324307307817,0.2835387834486047,0.24128352696922462,0.19883372471857141,0.15956088592904183,0.1227512193970779,0.09627640374343138,0.0850999470290541,0.07413005405187345,0.06010002555808969,0.046650904854762754,0.045083149604075334,0.0653227726083232,0.09675806751599625,0.13002008975567358,0.16443976902855706,0.2004593221918951,0.23511413564618966,0.23230617570440315,0.21121395236671803,0.1895857573862516,0.17573741881301608,0.16632792042196387,0.1593941062772457,0.15559528259432343,0.14221028666772706,0.1447809688942232,0.1583540161214716,0.16531094966993876,0.17332156386950692,0.16774735401722363,0.17506789544119328,0.212654033948654,0.25494537699643516,0.29638142468448914,0.3402293011129469,0.38732394177017615,0.4296212907896486,0.47688729638810434,0.52369732027408,0.5660676528252355,0.6136568688862862,0.661798271779868,0.7068966354578181,0.7505626715075195,0.798603549700474,0.8467842996989923,0.8947049126251081,0.9377814003084162,0.9826008163315996,0.9953541344804904,0.95228507049792,0.9041135978365022,0.856408295631669,0.8138641156186115,0.767341116544594,0.7191672941140914,0.6718090569919506,0.6294953040194928,0.5823975907650931,0.5342308899584807,0.4882203188333234,0.44532529164554746,0.39745272884490035,0.34927201009327113,0.301199815730818,0.25732320418347365,0.21325938415083212,0.171447583213983,0.13110056549499216,0.09728153091174407,0.07458979190951354,0.06142563103978893,0.05162593038640151,0.03842844919576405,0.023367810346641704,0.02286653192274457,0.043869310806232686,0.07590368372654877,0.11454724619810719,0.14294380774100834,0.17728100596620422,0.21181047848178602,0.2444704220062377,0.25065194727189066,0.2267185005782908,0.2070240538679864,0.19119057358891967,0.18118733158334432,0.1748947779009562,0.16928669628898563,0.15085659507521854,0.13954704084723168,0.15222740032759075,0.1610732985945864,0.16659150742873075,0.16268603548340965,0.1566726221224155,0.1850594955656637,0.22762488547751025,0.27035927855537567,0.31553992758511096,0.35779865361376895,0.4046701141036413,0.44776111382208783,0.4935270865230965,0.5416901990937089,0.5898709817594292,0.6380517644251495,0.6862325470908675,0.7344133297565878,0.7825741002736204,0.8281833678691748,0.8713979288977896,0.9193604480272144,0.9674209967790184,1.0000000000000002,0.9725851790001456,0.9278508285228766,0.8797180319098503,0.8315372492441306,0.7834636292812114,0.7395654179591662,0.6947221054286232,0.646590130973504,0.5984409984331298,0.5532038107053365,0.5096687698463651,0.4617045561907702,0.41711994127478214,0.3729658515777514,0.3259875200947824,0.28370552191199594,0.23705849360126874,0.19480984525138934,0.15165914967848448,0.11252686451834193,0.07975286902881007,0.05442575773689695,0.0389175497859473,0.029955222390811276,0.016161278363948872,0.001509372961696176,0.0,0.0229095997221469,0.054695948470709466,0.08851415238995486,0.12384031000754736,0.15875463518587996,0.19379676061853313,0.22071169159887583,0.20891672795729166,0.18589498997999598,0.17043161329831058,0.15666498254651962,PM
0.05751070926821211,0.0822356664234365,0.11551551448397013,0.1551756362927934,0.20246576293677754,0.24799524264619155,0.29497415116929604,0.3431867210120845,0.39196374608504114,0.44117977385385054,0.4939838905536751,0.5435732530804065,0.5969984865401088,0.6483587757180715,0.6994381249865977,0.7537374102444636,0.8081276187340969,0.8618727448777572,0.9112830197076442,0.9535396275493482,0.9444358966853734,0.8981871899933607,0.844677174467418,0.7908288331726367,0.7411403857055086,0.6879983684656841,0.6339542463983756,0.5839961623822121,0.531323857873444,0.47834196972340504,0.42857896686889374,0.3747423952222553,0.32448370075043886,0.29689524812849144,0.29727026327369477,0.2866795323101392,0.2940226372186836,0.3175344438630938,0.34196809212977053,0.36273216420674004,0.35729872747390345,0.322644098209949,0.2811109116110002,0.23672581733998999,0.1914206973407513,0.14560448568111495,0.09786796535848852,0.05090768038312932,0.012390458522588799,0.008592754013028503,0.03585560440671387,0.06339494025163939,0.09827036760422603,0.14403557734295191,0.19160957225763675,0.23883558723732157,0.2854967450295627,0.3328391172758578,0.3825786750437157,0.43669056701779496,0.4904743149445363,0.5401123064758118,0.5930520155373618,0.6430495143639721,0.6956481588406398,0.7481519217598616,0.7982187299972487,0.8523072403258762,0.9047648419548489,0.9547895725850315,1.0,0.9924041139417403,0.9455013806635295,0.8921464696404173,0.8425359839293101,0.7891874405648627,0.7349336816077996,0.6841911449307589,0.6324703027096201,0.5781310757434246,0.5250329089433818,0.47532272194783376,0.4214856389867243,0.36960700720016604,0.32070833046902836,0.2978203085651343,0.3018804699087596,0.28660472644667045,0.2872452937537222,0.30779028164736455,0.32918534168027214,0.34972369045723184,0.34682331812428036,0.3141890350348593,0.2715342132520877,0.22758960648961213,0.18193470540161616,0.13288699055509112,0.08658726808908135,0.04216352759548514,0.005959266670323093,0.014178259638624735,0.043061515211491375,0.06865921669466113,0.10516799116957387,0.15118936803442184,0.19862962589441124,0.24628681156336185,0.29467112781575344,0.34513608481853497,0.39571906924314026,0.4452456881489837,0.49828750739164884,0.5481255156258242,0.6006236723877283,0.6505474773845539,0.7032580373582933,0.7572703007722574,0.80716688803359,0.8599115685679433,0.9122158261235933,0.95477339029221,0.9467219461042173,0.9001639801996209,0.8472804872904518,0.7944959548606276,0.7446187472169628,0.6906031356817235,0.6362119944347884,0.5818204877469022,0.5274310510166724,0.4738243917695186,0.42424297808917877,0.37088851262233136,0.32164215186564515,0.2971343814697651,0.3010001950714205,0.29455151119083567,0.2992047087463887,0.32092361896676147,0.34329531180535167,0.36707603179862036,0.3676684981267,0.33640072306396673,0.2951655354897418,0.24636313966467038,0.2000936854653681,0.1547645894402263,0.10959312677602873,0.0657116731701548,0.02543442751240832,0.020105579531456308,0.04608237320161668,0.0704666128129624,0.10615327506920658,0.1537902464085541,0.20637547150407487,0.24893066360486316,0.28909450606890474,0.33686915942116524,0.3856501846265199,0.43486390769288086,0.48673827598433905,0.5367091516768985,0.5905167139902112,0.6406983576835292,0.6930697320232599,0.746978811380909,0.7967449210506536,0.8496734490591744,0.901108515456361,0.9513204009549088,0.9850933378619404,0.9566464627102309,0.9029761631148681,0.8498884605128421,0.8001730954919042,0.7462942257621568,0.6920067063366586,0.6410176434561294,0.5895621335698313,0.5358433698931717,0.486198682275387,0.43294897939364985,0.38003024668727114,0.330516685834811,0.29158388354934317,0.28948353295779516,0.2809001645454099,0.2751028621296241,0.2967554810152062,0.32007360401428797,0.3485488269014856,0.36145649221758447,0.3409070328271022,0.29868880041765644,0.25421155108259263,0.2122518893323746,0.1741318221711594,0.12842000096424588,0.08339159063670087,0.03904764898779545,0.000898373441131306,0.0,0.024737390060038722,0.05045346296065312,0.08879736080080947,0.13503729591986557,0.18217900106033602,0.22841776313911155,0.2740349595868481,0.32133526699257353,0.37096123457462205,0.4222263731319549,0.4741033372039982,0.5246254252903488,0.5771721243714865,0.6271092447052309,0.6810225717459906,0.7317953268029418,0.7834786540828704,0.8376861520809666,0.8883841341219862,0.9357218467585613,0.936873530342583,0.8909734560156894,0.8380848326637989,0.7884217672303109,0.7345949915120593,0.6803742048858126,0.6298613903313668,0.5778877343881328,0.523712901940546,0.4732566448153257,0.42122299406899844,0.36822620717965227,0.3190020893907477,0.2855950100008273,0.2927051254143378,0.29322185078052776,0.30002682881222764,0.32680302429923946,0.3513438467758587,0.3762421078367375,0.39582260710028994,0.381830995685426,0.34367555613143685,0.3009860196235683,0.25640464732269397,0.21097023266847637,0.1773616281385153,0.14113661028003655,0.09701468625616416,0.05412803808085409,0.0447154815587677,PM
0.21116846916668863,0.20523937565264028,0.20355245482287532,0.2035477310014271,0.20354987065415542,0.20489152169076497,0.2153946173452792,0.23119379418781683,0.25160739872584026,0.27658940025500844,0.29972302280655083,0.3131425100183416,0.3018274041447617,0.27562989748620836,0.24453267161981285,0.21298563580748575,0.1831716568229933,0.1535209323989153,0.1261756240949865,0.10494557668084137,0.10675714965301997,0.12107150318551474,0.13322213537796213,0.15029692497595493,0.16479982296781737,0.17892272387231145,0.19056694607296953,0.20304986295993444,0.22347689261614634,0.24960664529960042,0.2805258544910567,0.3135534878391857,0.34711414396656415,0.3833726790684815,0.41801414502395895,0.4574412773240608,0.4963705748134186,0.5297674331583702,0.5681193572642711,0.6076754201667098,0.6459991185194098,0.6794494159854927,0.7183098060117328,0.7543077374316456,0.7895571037481004,0.8290280184434284,0.8685580321630584,0.9049157407179971,0.9398141600381407,0.9783753318101112,1.0,0.9784321191804981,0.9411914842156293,0.9073630231812428,0.8681175225090196,0.8285621246660437,0.7907063233362142,0.7570217097485503,0.7178816076227295,0.6783251659896239,0.6406858770524309,0.615651748873544,0.5834620265674646,0.5440979876457397,0.5045374544440766,0.4649769212424142,0.4254566789345795,0.38941926028269047,0.3542254117285304,0.31474108682181456,0.27520886625658525,0.23897460025961004,0.2148162324027958,0.21153780112233567,0.20781146194893862,0.1937986825357214,0.17966249458058448,0.16189190174730728,0.175334478208248,0.19307355143598293,0.20263173015114266,0.19970437344338388,0.19560430992933076,0.19562812395634888,0.2000739120231434,0.20351292095343343,0.20361384409857375,0.20780453951100086,0.21150277680198215,0.2115287223419604,0.20851014814028535,0.20292381750412858,0.1971252784163955,0.20203588868710476,0.20586435015779303,0.2188560436347453,0.23836900308456999,0.26253183597017427,0.28454609325474944,0.2878706241950799,0.26604066406929694,0.23866217561672864,0.20576076982090385,0.17586967404546394,0.14619590822911177,0.11658811904309663,0.09052034372176987,0.07924421172367535,0.09120162023070555,0.10574680497488842,0.11894779437416969,0.13202378432638606,0.1428543545647989,0.15240661695203506,0.16022756107044112,0.18284340487296813,0.20835727550431327,0.23809620057106495,0.2697370610964229,0.30514340154733,0.33843351103360986,0.3769091741453985,0.41586300197734327,0.44929582972763393,0.4875857384865261,0.5270935392352702,0.5629124091907345,0.5983368982483961,0.6378173540520815,0.6763467119424094,0.7097321070528926,0.7484947559829382,0.7877131363660501,0.8215056581697309,0.8591754134585343,0.8987267260002656,0.9364029237218552,0.9515492357783444,0.9284281820245144,0.8921092043758108,0.8526012619185068,0.8160585870786254,0.7813220802846175,0.7419006536540518,0.7023406718544323,0.6634368192133908,0.6299865217473082,0.591662823394608,0.5521042860317906,0.5125437528301275,0.4729934987194069,0.4356045446921313,0.4016245145798423,0.36230790835131654,0.32274738520786506,0.28319256458011677,0.24546086183723137,0.212057006973555,0.1846808544334042,0.18329126184832467,0.17700295283767575,0.16729256866700326,0.15762712057542716,0.14031741618417248,0.14252713478599643,0.16137440979109985,0.1711576369637633,0.17152246453519226,0.17152253745722468,0.17148772740923013,0.16804871847894032,0.16360293041214558,0.16351623907117352,0.16348942923019805,0.16036163590415975,0.15259468296300227,0.146878856552058,0.13985360032451277,0.1326376958518274,0.13369677550225068,0.1439005983455599,0.1630009800535266,0.19020270141415074,0.20925599575860954,0.20791916965147816,0.18586916918912855,0.1570247677101564,0.12563907103446947,0.09543801445195377,0.0599202059237085,0.030690703235124905,0.0073326628371115365,0.0,0.011306193728590097,0.026815871091794508,0.03930943511562868,0.05020586029835017,0.058204343777776835,0.06684294006636526,0.08181673200393869,0.10282570458592999,0.1302301381990285,0.16221622590702234,0.19515096522988395,0.2337346498108288,0.2718000945265282,0.3053315199371116,0.3444117640620181,0.3839156141771547,0.41955487126612767,0.45515448306499784,0.49464713003764493,0.533734532890265,0.5673472076672517,0.6053270396910992,0.6448820226087157,0.6835142102678584,0.7168671542005414,0.7555593370609441,0.7951184322848499,0.8339562794816195,0.8672578240831887,0.9057954824255634,0.9446435937762274,0.9685610715949373,0.9560247579427408,0.9241213182838117,0.8855417891049457,0.8460666703332129,0.8107297426461546,0.774821066257444,0.7353072314537741,0.6957466982521114,0.6562428984817803,0.6204681639417027,0.585008519719221,0.545510863831512,0.5059503306298507,0.4663898804084319,0.4271979399595274,0.39350492981002194,0.35570899758530583,0.31615396300758825,0.2765934298059256,0.23703802776564897,0.20034006372355706,0.1929520067881536,0.1928007524430515,0.1836374232171749,0.1675742782883416,0.15034316747348253,0.1365949336572021,0.14796151408156022,0.1668408067046765,0.17403446111461163,PM
0.1569553682638316,0.1729285216326477,0.18502652466982195,0.17453042238280814,0.15385230966639196,0.12602787926053494,0.10021365669946425,0.07518544618499079,0.052132866726266824,0.025064464606352255,0.005697388480583987,0.0,0.007847497755367527,0.01627147485194902,0.023564776878770566,0.027520674996573735,0.039136007029619835,0.06285002053709654,0.08865674805470913,0.11442843158658622,0.14518779852154573,0.177517338094918,0.2123199256105497,0.24749670725287465,0.28446482666750006,0.31907006591719234,0.3533195180918156,0.3810987092411442,0.4062920479034353,0.43434284654729405,0.47295586093965114,0.5087760002533519,0.5480554582634614,0.5846100999765416,0.6275119443648418,0.6702080431649031,0.7057939883404762,0.7465938957142615,0.7896737310030904,0.8316062563562963,0.8666623803143703,0.9087475402052416,0.9496806846639172,0.9837299757625722,0.9999999999999998,0.9783333976285349,0.9428789753400595,0.9027103593992163,0.8596348928852231,0.8165485929620349,0.7734622930388471,0.7303759931156588,0.6872900226327696,0.6449544335805981,0.6098879055792634,0.5682120341680454,0.5251273674700963,0.4827476660237733,0.4476489424709136,0.40604926519872375,0.363102838646842,0.32598521400683045,0.28695179282817107,0.24497075638276544,0.21050344702657786,0.18374060106896817,0.16842766771339335,0.17222236809896962,0.16915342937553723,0.16905382279861403,0.17625560410058405,0.1743366630105898,0.16681534982697976,0.16628083153168594,0.16038615527596956,0.1620299087589545,0.1663821532933225,0.1673622916359041,0.1754090967274584,0.18219072283412685,0.18674391440443228,0.18678563454356567,0.18620643034806328,0.1777474913675916,0.16561108600048402,0.15663123061149364,0.15623806883799674,0.15623806883799674,0.15623806883799674,0.15627774330850408,0.16078517178763452,0.1717467612614183,0.18767638946281462,0.20287838358903731,0.2036881156312902,0.1852654862344454,0.16235135360426622,0.13650933963518375,0.11046053436325676,0.08457842225378776,0.06232670470455637,0.04591132816258714,0.04620506235566868,0.059315555818576504,0.07378599684802545,0.08064758686384166,0.0813682982165076,0.084983852218246,0.09027239669805631,0.10963913841200967,0.1362492686092207,0.16914613426309866,0.2058039842056123,0.24222065601060816,0.2766497034767228,0.3103531997164035,0.3402663394146934,0.3601330942732257,0.38291402230251204,0.42050288179187745,0.46130742757909915,0.49691669589372833,0.5394405222667056,0.5766218941340304,0.6155670826985953,0.6586187355049364,0.7012938464372651,0.7367819855781936,0.7776943162283934,0.8183803531087539,0.8540828362569697,0.8930021721883985,0.9140335027639608,0.9019473429488774,0.8699576954108921,0.8279722697958618,0.7916028224256275,0.7517655036621591,0.7086933597467568,0.6662974063657459,0.6311868212939038,0.5896152155466183,0.5465561225715614,0.5071362626551619,0.4703976034998403,0.42745414768720313,0.3844875094494611,0.34714117299538394,0.30834469370644935,0.2652915304600787,0.222207740827417,0.1808662734118105,0.15653541944106042,0.14654376920980816,0.14334563451100424,0.13472061466363705,0.12687108208945364,0.13147870017429475,0.12630165969590257,0.13268167842931655,0.14303944192858808,0.14180585039072224,0.13329182694238262,0.1465699545936423,0.1654640708710542,0.18157719001154482,0.1883302722264606,0.2003338253566025,0.207009459975247,0.2071460060377155,0.2048254079896481,0.19027962095184558,0.18373381604821248,0.17685701375210994,0.17660278852569844,0.17562621040043402,0.1646963990238668,0.15652121086309778,0.15633581429951393,0.1622809066718649,0.17280495704476628,0.17935340742191097,0.19670680430617749,0.20666378834880073,0.1996053024671105,0.18217391359420443,0.1551069125889959,0.13147452412910932,0.10562777994841976,0.07993779644101218,0.059277997262418225,0.04425871628451117,0.03807087157243294,0.04812433311333297,0.05427386427309555,0.054412244181713865,0.05441420884385906,0.0565007303545928,0.07180464989243185,0.09271914684318006,0.1249403447901094,0.16190996007808156,0.19649778892809122,0.23080794552772343,0.2653059074751496,0.3008979160948855,0.3257807073029113,0.3485549508501138,0.3784107315993015,0.41867701079834574,0.4615601607229065,0.49805430479161417,0.5377656295731745,0.5807244319427232,0.617792473837375,0.6568542483480047,0.6999069031595078,0.7416509482740661,0.7766886697292985,0.8189847897972291,0.861755481885137,0.8976907343273,0.937950831944985,0.9726578948013958,0.9857032078091492,0.9627784563710546,0.9284399139962904,0.8859512437988355,0.8441843608152448,0.8090503684332557,0.7668732197915922,0.7238457307792643,0.6857516826253576,0.6477314202589441,0.6047109459810225,0.561625149203018,0.5196579264000405,0.4845724422165558,0.4425476818529479,0.39946202883071114,0.35669223702651953,0.32076638889007114,0.2803769081643097,0.2372994116035878,0.1942730549769689,0.15672982161567517,0.1372290975266499,0.14096065913154732,0.13925363794839796,0.136619040210471,0.1430591786200861,0.13668719142598706,0.13511440117961193,0.13056097951885293,0.13217239810068193,PM
