0,1,2,3,4,5,6,7,8,9,10,11,12,13,14,15,16,17,18,19,20,21,22,23,24,25,26,27,28,29,30,31,32,33,34,35,36,37,38,39,40,41,42,43,44,45,46,47,48,49,50,51,52,53,54,55,56,57,58,59,60,61,62,63,64,65,66,67,68,69,70,71,72,73,74,75,76,77,78,79,80,81,82,83,84,85,86,87,88,89,90,91,92,93,94,95,96,97,98,99,100,101,102,103,104,105,106,107,108,109,110,111,112,113,114,115,116,117,118,119,120,121,122,123,124,125,126,127,128,129,130,131,132,133,134,135,136,137,138,139,140,141,142,143,144,145,146,147,148,149,150,151,152,153,154,155,156,157,158,159,160,161,162,163,164,165,166,167,168,169,170,171,172,173,174,175,176,177,178,179,180,181,182,183,184,185,186,187,188,189,190,191,192,193,194,195,196,197,198,199,200,201,202,203,204,205,206,207,208,209,210,211,212,213,214,215,216,217,218,219,220,221,222,223,224,225,226,227,228,229,230,231,232,233,234,235,236,237,238,239,240,241,242,243,244,245,246,247,248,249,250,251,252,253,254,Target
0.8504164196222916,0.8165698701468078,0.7866465213306069,0.7562676040181482,0.7103916070963932,0.6680086477851974,0.6379567566193036,0.6178234481866274,0.6007488079984058,0.581797755839152,0.5789929611995528,0.5789916291661159,0.5789916291661159,0.5789916291661159,0.5789517887049045,0.5708041329478997,0.5612307725984409,0.5765079212719701,0.5749660872497193,0.5606287444243789,0.573456034062529,0.57886248848332,0.5664933865877413,0.5596677333491935,0.5596444140430643,0.5596567397128474,0.5644699650732208,0.5784875635975011,0.5789916291661159,0.5781324719427903,0.5644858537119912,0.5661596237460897,0.5675361154710163,0.5795572634927408,0.5943799307689579,0.6091476631890647,0.6381230020092259,0.6470909285158446,0.6271624055901963,0.5982508195872911,0.5754122761152805,0.560186459716669,0.5596444140430643,0.5596311681772468,0.5529965749808228,0.5198173343996113,0.4778125144200631,0.44514717008130944,0.44521009591937766,0.4743142888414251,0.5203605580496462,0.5732370612141104,0.6202000102959353,0.6485769923752458,0.599678526222513,0.5418086311049843,0.4976753652111898,0.43996754396911264,0.3941231703437995,0.33913680216683284,0.28901900427078164,0.23868943606451332,0.18992705819078326,0.13829705287707306,0.08401439212398065,0.04408548398291767,0.012885943748496054,0.0,0.026562813478215208,0.07012147900601651,0.11375752547135987,0.15889028810980665,0.21184679156476793,0.2646794101978598,0.3123287866711846,0.3715260966601601,0.41686373334682125,0.47155184257704974,0.5164931416670133,0.5715593583294605,0.6106279476726124,0.634609988755654,0.6388388981463722,0.6547665317800968,0.6636251522699768,0.6834160015827271,0.6979775889043824,0.7170579468390335,0.7371195804059942,0.7629790053872956,0.7847677210527277,0.8154698020433506,0.8534310323556782,0.8885470711349375,0.923321649453781,0.9532200844879375,0.9809826797788643,1.0,0.9888109700045664,0.950744065260615,0.9109149611208323,0.8743577556367672,0.850233217452462,0.8171480705508336,0.7808902058647629,0.7509196331264314,0.7219938526983296,0.7003881108449201,0.6691819343488334,0.6389696669845137,0.6381526661315826,0.6527069441932878,0.6414456256234087,0.6431281971222975,0.6751239362502375,0.6948261712531365,0.6901627600272326,0.6786293188330883,0.6938945949289517,0.6819101983312197,0.679775805127095,0.6944216196759987,0.6944560584436474,0.679940097776826,0.6757366990462024,0.6760290806430334,0.6892854798557098,0.6831858397889854,0.6757543554924546,0.6757269526737457,0.6735271977561457,0.6579208192806973,0.6563307714419784,0.6474691836008497,0.6374270526149579,0.6496399902794874,0.6583491604726124,0.6837116615990975,0.715577092640856,0.7186488007170508,0.6903201842690723,0.6683506756618094,0.6425758127750569,0.6369945494267291,0.6278808513032423,0.617815117222738,0.6133898584093838,0.5822912942666392,0.5371011989302539,0.5038905146492136,0.4889447781947518,0.4924850677575736,0.5323840984114372,0.5915099688583036,0.6497010485808894,0.6615064188463537,0.6174710042375025,0.56684290265293,0.5117915582832646,0.46618969481787254,0.40818657570102523,0.3642991405360996,0.3066982676544274,0.2603978024381135,0.21426484097667498,0.16530584755001376,0.115191231354832,0.06912757644485712,0.035845250601411305,0.018727571540061216,0.03539942779181171,0.082022558675245,0.1271980063832272,0.1819597590669808,0.22682741470341972,0.28198193247264136,0.3264568230236109,0.38200410587830325,0.4260870304581572,0.48374791482170565,0.5296966334875406,0.5763730544603427,0.6131224564069298,0.6339360270381911,0.6569254439670802,0.6750952014219531,0.6757443612775949,0.6813503612566434,0.6949985478196066,0.7101831710889126,0.732741489563725,0.7505668165362884,0.7803535145613596,0.8103196303836246,0.8402261583525639,0.871139755577766,0.909227708535024,0.9381547308227365,0.936767411013613,0.9160474798590701,0.879588283698078,0.847318083829061,0.8171876458849434,0.7794099738595097,0.7460932993374243,0.706422324474588,0.6664937473783041,0.629181520070826,0.5991502866692873,0.5790957358864564,0.5647680071991474,0.5728647217685219,0.5622591635721115,0.5778113041906443,0.5661254917669192,0.5596657345062215,0.5596034172950963,0.5513760871177444,0.5398191017872818,0.5249784293820037,0.5209579786403054,0.5212640344765123,0.5369812620975662,0.5585969532297019,0.5596444140430643,0.5596444140430643,0.5596544077293801,0.5640407544489285,0.5784072064729884,0.578304489505808,0.5651623589017016,0.5770787330616978,0.578991159098849,0.5789926045556943,0.5816098817814312,0.5981022450904279,0.6173768462162057,0.6461689239355124,0.6534171513621105,0.6262808435752665,0.595872968446518,0.5698308528345479,0.5615656086230025,0.5662637215848791,0.5596733967376144,0.5594239925809554,0.5381258445664843,0.48788711998259204,0.4567396949747038,0.4439700761116887,0.46045667921555866,0.5014879116355684,0.5586769070249868,0.605063087745541,0.624401054303168,PM
0.12024663867949248,0.12346623696103354,0.11886514844070017,0.10910587540104433,0.10124277161754569,0.0998296292025731,0.10780285515502785,0.11919311180675596,0.13396560062920915,0.14882299463952275,0.14742917405527134,0.14582679653968111,0.1548002637247463,0.16980056043646052,0.17867354129453705,0.1769603564918023,0.1583299145147805,0.13900233695304398,0.11537642136309056,0.09030667262123493,0.06356814704354408,0.03996886564473057,0.033953383124331715,0.0401759342285819,0.05347726986963508,0.06684261989457818,0.08603215939622877,0.11618154591429541,0.15125000456159277,0.18806986674702664,0.22494389524399927,0.26308925871770494,0.3046248956818114,0.34074034194549885,0.379839439218697,0.42160535269465527,0.4633882724870182,0.5051711922793811,0.5469541120717443,0.5887367871635951,0.6299180751768407,0.6651745961828992,0.7055104940420283,0.7472900922356096,0.7890722277671676,0.8300367779852202,0.8651086177528893,0.9058318057356238,0.9440758448452151,0.9567683926967707,0.9331964467927387,0.8955999335654414,0.8538670458096498,0.8125277483799509,0.777152742680949,0.7370920860127679,0.6953138022133392,0.6538498109597295,0.6217037078047094,0.5896616862312882,0.5537012737132008,0.5121350122447754,0.47035209245241294,0.42856917266004957,0.3868762786030173,0.3496647953045735,0.31175235742277607,0.27001611228854716,0.22827557310918278,0.19021919983154634,0.153156908667329,0.11245902947381281,0.08806056114163585,0.08237921785428948,0.08164190094347323,0.09285436007292325,0.09022470099008051,0.06971496312685965,0.04989630106613596,0.04836192432038633,0.045415285912323355,0.03437211633964998,0.023289689983908568,0.009748557636495736,0.008067712696149254,0.00806466047773502,0.007160019981125032,0.0005043483942694937,0.0,0.008770684626937308,0.02201346051809927,0.03525450725904444,0.04712067794383912,0.04984158740852829,0.037859973591517715,0.022673171447017415,0.017258355571343476,0.036729842146580705,0.05829597283208221,0.08312413273577102,0.10766545313525633,0.1252533444413857,0.1261858324314029,0.11318522841875645,0.09197045718461228,0.06688455443189123,0.05475273285611726,0.06270698600338154,0.08118529018006315,0.10328014597064272,0.12614891020970265,0.14283977265030168,0.16585890522353908,0.1985586776009658,0.23612746123427253,0.27278104540723813,0.3098360280393815,0.34777696500841393,0.38895332655737125,0.4242730593824191,0.46450223267281743,0.5062813664767627,0.5479702378230282,0.5849992846235361,0.6230917219815231,0.6648344268482655,0.7066173466406285,0.7484002664329912,0.7901831862253534,0.8319661060177161,0.8737485145478978,0.9148256234167913,0.9499297065756862,0.9882755739616413,1.0000000000000002,0.9730874880496339,0.9379849296261018,0.8967596904020099,0.8549769893816277,0.813194882524545,0.7723240390051462,0.7372005411874645,0.6964227228423572,0.6546410092177621,0.6128580894253994,0.5710850761724258,0.5315249566196845,0.4957994094846958,0.4543049690941683,0.4125226911214659,0.37146595319321785,0.3362533547128097,0.29575016029420764,0.25412802020228087,0.21773005810165036,0.1895808398184573,0.19693751688556094,0.21112118523704337,0.22601007868521328,0.23873069129433788,0.23493014931491896,0.2178924925725445,0.20601875322352803,0.2167187480676218,0.2295883557382954,0.2263239047590071,0.21983664684624094,0.2205252434016136,0.23363402677514267,0.24305491078369656,0.253419876865282,0.2455937065801621,0.23276187135963622,0.2134263195098649,0.1966371384128074,0.18880267772195825,0.19369578343484628,0.19378102718288504,0.1983124160327161,0.203949221789669,0.19674251318755953,0.18159846320510398,0.1765771317314917,0.19460666969891194,0.21213449867883405,0.22810859358553803,0.22331021243641103,0.20767674245200163,0.18567732706902662,0.15905222597374435,0.13116916170180648,0.10049751786825589,0.07765353110031414,0.061530596333897236,0.059600226699551895,0.06384169141960783,0.06985520784002541,0.08845231725200575,0.11724577237307243,0.15385583820509008,0.19551623295732612,0.2343313388995658,0.2706987946925543,0.31174578046842916,0.34706549020087896,0.38729466349127617,0.42907379729522166,0.4707626686414872,0.5077917154419951,0.545884152799982,0.5876268576667256,0.6294097774590877,0.6711913669934,0.7119142641994058,0.7470555821496327,0.7879636045508007,0.8297457576229539,0.8713077911645566,0.9073401828339869,0.9463458486425071,0.9785105418780013,0.976799067782322,0.9454194107121754,0.9064351571438671,0.8646657823769595,0.8228835738467224,0.7819309367874305,0.746768234678149,0.706111242839065,0.6643298022130926,0.6225468824207305,0.5807640638515763,0.5393523716624746,0.503811843714461,0.46398724313841977,0.42221090225686386,0.38042798246450227,0.33864506267213845,0.2968621428797764,0.25507922349254564,0.2134069030604786,0.17656025861668545,0.1382803667059993,0.10033805172620647,0.09332730391025446,0.09745615521075868,0.10917695179030207,0.12378982654390969,0.12195329694095758,0.10656741020748406,0.08811327332000185,0.08528175505852564,0.08465923653331076,0.07568697184702611,0.0683541402663832,PM
0.15311904271095012,0.16126117099005643,0.19373983074168022,0.23157062612383017,0.2738325992670507,0.308592553326998,0.3434858283239084,0.3869786557360375,0.413986077571844,0.415535319686275,0.40146070182025007,0.37620759793016223,0.33935302416012636,0.2972101157045981,0.271757383363497,0.23816599909110536,0.21203734950357456,0.18160126836049706,0.15875371815191253,0.15309544443261203,0.14820798383036893,0.1319073987683672,0.13131299964783372,0.14480582799254416,0.17865748317310182,0.22068175554661362,0.2725178370768555,0.3256444597707806,0.3785488575511433,0.43103567841918,0.4980747607294198,0.5492068676625284,0.6162144602262538,0.6854999548983551,0.754786579561812,0.824073204225269,0.893198248338237,0.9457091128306212,0.9614082816880822,0.9306376197410202,0.8778762739379875,0.8091706014883373,0.7483732767248146,0.6923301720301636,0.6231677498107828,0.5539034422967486,0.4911322870108781,0.4368413626836114,0.36791652007120534,0.3022181813269067,0.25026573018974885,0.18384472991064849,0.1644497192278247,0.1748694792732559,0.17499404380923522,0.17531253811312952,0.19287521686716724,0.21685882955169822,0.20545486467981355,0.18691840255696723,0.13641199268057091,0.11081965718318454,0.12439495945411361,0.1318823212286171,0.14634648364123137,0.13350339973481518,0.1312072863154521,0.13047143307494835,0.11652485620276432,0.1294859601050038,0.12494270467843815,0.10973020154942592,0.10931341448142229,0.10931341448142229,0.10930040316970713,0.10407813309986569,0.08892003266588322,0.10524353244053408,0.1093071063670572,0.10606616726924223,0.08846069748142948,0.08719382332807335,0.07445068214861594,0.058481773747455446,0.0438793797558108,0.043553888196274926,0.03325176854250911,0.021828774658807948,0.021739242044338525,0.021739242044338525,0.021739242044338525,0.023427031714725377,0.04951535127882156,0.08413990419249817,0.1188640680989197,0.16103198345675418,0.198990560913332,0.23367379146409517,0.2678695880509827,0.2841355470285327,0.27825908497657803,0.24878703803408264,0.22307100736454322,0.18924741044372695,0.16391489387220126,0.12279896426011971,0.09063784882726456,0.07356441224298171,0.05736086857139533,0.027771038260171466,0.036148313407399435,0.03213947022879404,0.009311024702507886,0.0,0.012280813729298234,0.03667098703423255,0.07309264488355005,0.13452755240334602,0.19409633324832942,0.25044555593215234,0.3022181813269067,0.36790788372582206,0.4300176828991735,0.48492203203604456,0.553881125147325,0.6231630654829745,0.68733790198824,0.7389623076363172,0.7791559320236541,0.7656445973911579,0.7253192687417434,0.6597696361860095,0.5979537478550814,0.5429016407710918,0.473885856486699,0.4154009624002093,0.3570171813104235,0.287838867897372,0.22635169952500878,0.1925656364295465,0.14602662297007551,0.10208883662751944,0.06513335467135883,0.06129189144636005,0.06563550524803352,0.07862902268794825,0.0874079310140421,0.09816510038260207,0.1292309843789048,0.12453415855570471,0.08756146214531357,0.04181077847257475,0.02378264061799573,0.05002847460287274,0.08121623136416112,0.0874019622511164,0.0874198713721519,0.08870180347464984,0.10712504782139654,0.12424356852917517,0.12594642037412118,0.10994294213167866,0.10931341448142229,0.10945082447963728,0.12322956011344521,0.13117435504169794,0.13120695759069356,0.13120695759069356,0.13226196640545496,0.14992180639017638,0.15309889816676758,0.1531005006999644,0.1531005006999644,0.1539427689324735,0.17078576160982717,0.1724988861694352,0.15436825009697852,0.1531005006999644,0.1531005006999644,0.1531005006999644,0.15306838793190103,0.14519165612510765,0.13134601853317518,0.13120695759069356,0.13120695759069356,0.13120695759069356,0.13120695759069356,0.13120695759069356,0.13120695759069356,0.13160956195321294,0.14682818849779267,0.16380173158066835,0.19330791711523565,0.22073182582567785,0.2601006438330953,0.3008254037206677,0.32691996402932144,0.34470062678277325,0.3497545105252322,0.32742536758411767,0.2949141342885513,0.2529728084599059,0.21819561817085908,0.18358086221560788,0.15559727407786195,0.13585641545375005,0.11061052872087451,0.09946245384595498,0.08751930965222332,0.0874198713721519,0.0875209605964904,0.10070508426170477,0.12996491716188396,0.16756610213482626,0.22189380596419994,0.2813320488198179,0.3383852088310286,0.3955381604845103,0.4536836134929758,0.5047255672643929,0.5716031614610664,0.6314595101353557,0.6885288399394378,0.7576198616112464,0.8267624724994231,0.8820027536965709,0.9430986332002984,0.9924775079688573,1.0,0.960871151486896,0.8938747245359666,0.8245883464160757,0.7553017217526197,0.6860359448957896,0.6230606002455366,0.5689327865089968,0.5000487662080602,0.4307687857042004,0.36581961053160095,0.3132685325054161,0.2447958106634993,0.17592288718768945,0.13319778852751885,0.14519165612510765,0.15306838793190103,0.15377257646667086,0.17005560469359127,0.1865833710010918,0.19636790347159128,0.17709168632633654,0.13931469551985742,0.0971871553103707,0.07993554057598962,0.10977218061340821,0.1305423330196689,PM
0.4174147442711038,0.45517199342229686,0.4959994222992261,0.5312987711576898,0.5672358557835673,0.6128957393844003,0.6644135876097512,0.71044635123264,0.7557743898953939,0.8072755652433288,0.8537881347667788,0.8986546093123495,0.9493973062081715,0.9758313429747751,0.9572813985824795,0.9167805632131727,0.8660629406074536,0.8159185297409128,0.7737251483735479,0.7232294501333945,0.6745200885725127,0.6315913429552431,0.5811584108317711,0.5388674905606439,0.4905510957569921,0.4490399510187233,0.40887981309481924,0.39253467863095093,0.40706903276690776,0.3858189411924142,0.3597818570625235,0.3384890799224398,0.3191134037849732,0.3059894570985926,0.29591302087562976,0.2816662625553321,0.2534477018876804,0.21650120380335913,0.17793159373375045,0.15661491112732806,0.1518282642199391,0.13901781373328048,0.12065910150347547,0.11509595796710959,0.14677519824731644,0.17576660893945695,0.19128527993812638,0.18161545769723952,0.16610710651159888,0.15548093360245052,0.14360740410128514,0.11967938247322762,0.09044938134866176,0.06029741092935237,0.026693620241328375,0.011188271097417601,0.003060357104039957,0.0,0.012891190201079983,0.0371665799603238,0.06358153700177427,0.09585918498570845,0.13055772621093387,0.16201779760625534,0.1963224094583944,0.22798384151265538,0.26057053535372043,0.27652011744384053,0.27673368529967535,0.27006272407200216,0.26540214097599035,0.27989110054251665,0.31107356264245123,0.351885356077283,0.39484726359449374,0.438809619397293,0.4858867381656311,0.5339298149444773,0.5773447674751386,0.6287047656498159,0.6789926771258519,0.7211192296555455,0.7715402439195356,0.8203965683992251,0.861645334926699,0.888857209697751,0.8727513028051233,0.8347542952956979,0.7843366875782536,0.7326972164321974,0.6810568915733448,0.6294227921317161,0.5802174967092575,0.5376751316388009,0.4867388931604246,0.4421287261209419,0.39535061816816297,0.345170596483666,0.30302954495890866,0.257219833566241,0.21291949896473428,0.16755445563279525,0.12594227264262337,0.08344861481645349,0.067727189810175,0.07991448374735244,0.09397899635921658,0.11433077463134067,0.13706730379323018,0.15833580161796434,0.1620945436965322,0.14283545377079787,0.12194034215687988,0.10007164889448661,0.10896662248033806,0.12879880834796364,0.1373329210481764,0.14362199098904171,0.13590721046473053,0.13191196961948148,0.13189283138858277,0.13189283138858277,0.13193485944076078,0.1374509570171787,0.15085536706082125,0.15398293188451562,0.15456308395441254,0.137973023354502,0.11991510256277649,0.10303449553957433,0.09677849482466416,0.10753073464697405,0.12529215520013892,0.13914228310327492,0.14672396440155722,0.15703914667520635,0.17169083109692607,0.18661300414038484,0.18400481727394258,0.20507404729190104,0.23559503778478597,0.27069853946805544,0.30967104003575985,0.3538298101673627,0.389671581794488,0.42344977391439853,0.45309006246362316,0.4920956686775968,0.5434283658150343,0.5950686442166306,0.6467063410250589,0.6963056010548558,0.7386569889965329,0.7895492030174576,0.8406106826498143,0.883063906437128,0.9320274060463349,0.9745995718627478,1.0,0.9821644037683717,0.9413994231654659,0.8925937626990126,0.8438410160793346,0.800952504825716,0.7499644816774915,0.7059182499972585,0.6589700608380498,0.6161580369392503,0.5746486072654475,0.5278368317457702,0.48230676033793474,0.4442580952953472,0.42048572759069147,0.40991803369162083,0.39722013346771146,0.3851302663141092,0.3751805574755407,0.3612544166600582,0.33203028093484965,0.300979408105003,0.26150106675503126,0.21938164724276543,0.18066937547467243,0.15129441706433444,0.16777715269893112,0.19288294622669677,0.19920849471891278,0.17655059347091462,0.14040348885446186,0.1059635602023028,0.07153530697189336,0.03719296911784453,0.012848008653753462,0.00427373442405421,0.005392709709714616,0.002885922353835335,0.0071445214427035,0.01728914563107553,0.030145479500852446,0.04307818236201033,0.058600770904171595,0.0663826285506719,0.0640702110625666,0.0802642750850937,0.10188154855681453,0.13683397420794008,0.17063876909629072,0.2078760568601239,0.24821858887912773,0.2650656184760658,0.274706407112256,0.27616740982714516,0.26610525488155545,0.25116344231078447,0.2322096165028349,0.22902929516332127,0.24249286966837058,0.27317512643046493,0.3137565670022866,0.35651857643618,0.4057825524590717,0.44804477396027576,0.49887849225580005,0.5467831651648822,0.5903553001346871,0.641395107952758,0.6847308871740556,0.7328012027470705,0.776116974432866,0.8028796750045712,0.7879202362788189,0.744882196177354,0.6968118806043391,0.653476704904123,0.6030925382151158,0.5609495510621825,0.5111314729009013,0.4664787245525144,0.42232237979162246,0.3829522347443275,0.3421604908094036,0.3048676250409441,0.2659187316948053,0.26069767413237477,0.27198592801128463,0.2922262095610839,0.3203100753835444,0.347492052139172,0.36702753454045434,0.37315971053832886,0.36298242418986826,0.33664343869060165,0.310932263762254,0.30000519292409633,0.28788701964897934,PM
0.11742997618582551,0.15134060768849777,0.19744984196379645,0.24615691321362587,0.3026279730314152,0.3604700947380597,0.41822587069055306,0.47079392576095236,0.5232905347549339,0.5810502883300064,0.6388855230003809,0.6941934844874056,0.7443004112166434,0.8016206593121287,0.856810251691714,0.9070031482617735,0.9630907651703793,1.0,0.9911346283181435,0.9442267811848466,0.8886091609385747,0.8388117348423485,0.7816852249153636,0.7238433727118636,0.6673648414710449,0.617838663964811,0.5611039669296156,0.5032607920687227,0.4457661259611405,0.39542053132622135,0.3508882660655468,0.30400766523870226,0.24643234773110256,0.18860991776527802,0.13430039873036415,0.08710282438454175,0.08982693306669765,0.11297721300414598,0.11095209241412562,0.12939711001220933,0.16285098799755393,0.17728352391702273,0.15708886050547433,0.11900598685887043,0.10265901341576433,0.11057039000162527,0.1041769248540958,0.10404074809463904,0.11001592688650508,0.10715180865631502,0.11228917171616293,0.12885809385808322,0.1568969434726919,0.17753317786196043,0.16868325508507542,0.1390459114243494,0.1121159083357286,0.08706293620863392,0.06641298266850848,0.06523097741360795,0.07131787320173877,0.07267365818809801,0.0879494884114509,0.1217649699029808,0.16622904203239042,0.21500773778974813,0.27158785372229444,0.32943049368163835,0.3872739222958077,0.4440712858785951,0.4912018930556368,0.530002278313761,0.5684003953304484,0.6069634499234162,0.6457680112351754,0.6892326845087511,0.7421174681782676,0.7997641614127056,0.8517215588570255,0.9048225964202294,0.9584350289817167,0.9848652843851351,0.9614517009674093,0.9221242539526702,0.8718176900330508,0.8195603861103655,0.7618252636504184,0.7040180512960963,0.6501820711318929,0.598897966984155,0.541245070058471,0.4834040172480196,0.4271621359433513,0.3775811911552154,0.32066402827765916,0.2628202720421431,0.20497608526521205,0.14776038209932074,0.09991298661598269,0.0881120357316354,0.09946156680220186,0.08635238074985407,0.10287033266715895,0.14012386537349886,0.1525108309640939,0.12635771427988618,0.09142690956961186,0.06848002469586456,0.07338345815325487,0.08178886386882933,0.08889162389932914,0.08773872655223758,0.09165681353348964,0.09403275576103765,0.11126771872635288,0.14504979662845563,0.17906340131603837,0.1818833286108561,0.15983782141806513,0.13818813730322077,0.13143883818741608,0.12180593298295062,0.1087825210132245,0.1081199678020357,0.11706778667040707,0.1417893167535771,0.1792330850792656,0.22705266876382502,0.28265429720691726,0.3296608374856036,0.3700158837662666,0.42488506608936705,0.4827220665768688,0.539633862812003,0.5892092567973677,0.645462038394637,0.70329409002334,0.7586611263105301,0.8087243964041391,0.8659975264667996,0.9195549237153604,0.9680075123746525,0.9836038798950475,0.9448790705545216,0.8943531403052662,0.8370795181782742,0.7861912041344858,0.7319034754816629,0.6740843995455017,0.6162420996894915,0.5597329238512141,0.5102133182382014,0.4535028038753177,0.39593332677965565,0.34910316057124247,0.301367761602763,0.24649829658388556,0.1962483686866936,0.13926058204290803,0.11039309180584689,0.1456468158630162,0.17455481194294964,0.1799895943781269,0.19626400046796322,0.2254373402300145,0.2258647849710953,0.19304025235083921,0.16280917659142569,0.16431178837015303,0.16558399356168518,0.17081756062353803,0.17795518038163483,0.1736234034153763,0.17562546479481433,0.18001538493966596,0.19865620204625434,0.21879557084497714,0.2146236978399807,0.18900456664305465,0.16423020438036007,0.13639299917619918,0.11062322880945974,0.09068373124305351,0.08733940216673086,0.09227141968173047,0.12471505606098865,0.13063698270562707,0.14952917078196748,0.18258831014966836,0.2188332002003619,0.25980761342569125,0.310753726747776,0.36741747126790547,0.41698159607963703,0.47328306964624556,0.531124381583048,0.5889689860074276,0.6467050690949376,0.6989766470618299,0.749289033519398,0.7909716704071181,0.8446878111867653,0.8942005397318677,0.9482106179875687,0.972456948117538,0.9412839495349341,0.892604286833484,0.8362276014995866,0.7865309388445425,0.7305694189100498,0.6727364623827392,0.6171414932565193,0.5672302757034768,0.5099934872344041,0.45214913469324625,0.3943045302688666,0.3364995778564126,0.2827255492847556,0.23138858207186686,0.17372433667691878,0.11601679332798898,0.07691501620425889,0.10850042508477786,0.15465610793682671,0.16436745045516954,0.14957814724809504,0.1609568762176552,0.18892876191580443,0.18701731111971687,0.15024321938827612,0.10806444994283915,0.06978836482780926,0.04311050835903907,0.022396183877928966,0.0,0.0067298254410552705,0.02347661610102314,0.02915069676608595,0.04092252952235609,0.06904561987838753,0.10277439485060591,0.13974639974989733,0.17884792557017848,0.22020178158852421,0.2534025599468921,0.2579253615131447,0.23398385648402442,0.1972825482683802,0.1587410236771829,0.12255655022387035,0.10099722145511492,0.10315982994638073,0.11003129036521897,0.10976460682459654,0.10011480609042045,PM
0.18444115406156492,0.17605713087314157,0.16002896350510531,0.1402877816153114,0.11482163509307641,0.08833161076965457,0.06049728640252838,0.03477346546962612,0.008875442031419878,0.0,0.01582085326617899,0.03228817918808402,0.052368307297163685,0.07201828765544271,0.08375608837815607,0.09611443430206301,0.10110028409154381,0.10611022684107474,0.10915065652359845,0.11881236991833655,0.12863567648835317,0.1549753394199207,0.18603861937752497,0.2197274595145824,0.2523240642598161,0.28942818782296853,0.3227841902423032,0.35680241501127896,0.39410499478000394,0.43140184611513455,0.46307149195378994,0.4852093569601825,0.5212217782703903,0.5585613208337827,0.5958712273972666,0.6301651272846653,0.6632711036735341,0.7005085051783442,0.7377092094026021,0.7705177264497547,0.8051366788149501,0.8413810604889871,0.8690548331501295,0.8682179519545112,0.8347664527287042,0.7974374061044707,0.7601932620206346,0.7269929151096863,0.6927960379284184,0.6554902217599092,0.6181494750484942,0.5809221874122223,0.5479577668064737,0.5135183328598785,0.4762022907039327,0.43886154399251787,0.4015209097038346,0.36458910599612326,0.33285529457974405,0.3019426247565937,0.2739799036317745,0.2370643774308432,0.19973710833193703,0.16494329157939336,0.14837213701735186,0.14673264009266984,0.13457535368815465,0.1283893640215985,0.11918581149356999,0.0956848876676013,0.07333833095369302,0.07984006049862402,0.0972902893624803,0.10496196738763208,0.10480413928529808,0.10299137389651936,0.108675969828534,0.11886585923820037,0.13853059924615163,0.1595931100167809,0.1850372933242299,0.21416339381150085,0.24053521309790105,0.25275779061959613,0.24203048641886982,0.23981649275790096,0.23981267440248644,0.23965851542900007,0.2344501983536027,0.22174278468366926,0.2080520625094735,0.19027600933360733,0.16655054521636292,0.1429929603285729,0.1154254990816046,0.08855724055127623,0.06124727103871708,0.03543833383112327,0.03350345569628588,0.04990984884935079,0.06730532342835649,0.08728635753041947,0.10438397293249313,0.11334231363016478,0.1213418791312244,0.13348192931067726,0.1386101927749912,0.14849416275148664,0.1563669281803859,0.17665316835682754,0.20407600251464175,0.23644549086012412,0.26818367348183925,0.3050969082265429,0.339681763809603,0.3725046286322311,0.4097218023999649,0.4469601986999163,0.4800128292674901,0.5143575687600423,0.5516689867445264,0.5888822549940154,0.6217721432146415,0.6563008425265504,0.6936161710890874,0.7308043112881144,0.7635314571617933,0.7982438901171485,0.8350656063016904,0.8624084547514386,0.8577885170334347,0.8266972322618562,0.7898058946962276,0.7577239817414019,0.7222252784113654,0.6848916975583834,0.6475574453278348,0.6120037671630669,0.5799830946217812,0.5429444786222122,0.5056037665024065,0.4682630197909916,0.430922276405693,0.39372932292988505,0.3610629084403749,0.32629961074716296,0.28897508873501554,0.2516343420236009,0.21437772708552028,0.18772880195305075,0.1937071912066759,0.19209038506018672,0.1876102379385547,0.1790652665249477,0.16617905753869544,0.15003544418952663,0.16130324005469965,0.1830364664335431,0.19681600898390506,0.20092699317104556,0.20248034602324494,0.20703641777339543,0.20568810071568722,0.20432156374457522,0.20273994074767865,0.2028006398542077,0.20672091949012827,0.2127305965017745,0.22008893690928066,0.22779386447043226,0.23924636192166537,0.243456776607323,0.23527860572644999,0.21820727085671265,0.19803143805268197,0.17358292946943488,0.14750583197524492,0.12139213227810774,0.09886479908646151,0.09482642588247292,0.11017174789259365,0.13165157949951234,0.14897037723668793,0.16354173407244144,0.17738611005472227,0.18755531713306794,0.1986600780733716,0.20645024559066316,0.21650601377668544,0.2300697319591487,0.24421956680016543,0.26624923657762634,0.2961097312904968,0.3282180086370605,0.36278072225313696,0.39437766136602703,0.4306618076876674,0.4673302813490392,0.49888304963629193,0.5352682076653714,0.572607043899829,0.6091737665268437,0.6407500733348335,0.6772152273860392,0.7145549075627784,0.7518956542741932,0.7892014704427024,0.8233983110366905,0.8563349717742694,0.8853812589441166,0.9154201824816439,0.9469713906694368,0.9822974395823665,1.0,0.9818491908138807,0.9457518340238558,0.908412709415032,0.871077556699821,0.8353868364277659,0.8034434754210196,0.7664654266174267,0.7291247783590553,0.6917840316476402,0.6544432849362256,0.617109708069171,0.5816588114848704,0.5495801552926796,0.5124961005916637,0.47515535388024865,0.437825034768508,0.4025911561490647,0.37032511359173714,0.333231061052631,0.30230253130465035,0.3077562989122071,0.31365098723911533,0.3082579928325353,0.29963838345579297,0.2856357165900001,0.263534364888373,0.26578689776158604,0.286055827302071,0.2949847436670121,0.29175162613613725,0.2847787909417421,0.2767608222332847,0.2718942109676019,0.27567926023010214,0.2761219331907345,0.274252362679857,0.28083230540343807,0.28962211953166594,0.2968017167270316,0.29163885015094526,0.2881515461507813,PM
0.07349029639704319,0.06298831867455812,0.06743133931799106,0.06783293942167501,0.07336925699362484,0.08002600964166429,0.1008022211023607,0.13493403806982474,0.17509979324036418,0.22052426906244338,0.2699302546542468,0.3116488018179764,0.34791073397263017,0.3894630127255938,0.43165521742241775,0.48117726282136863,0.531120072096271,0.5736898897179248,0.6222196073446089,0.6727869393065238,0.7233583522366038,0.7739291911403996,0.8234832682645068,0.8527475737385657,0.8354375235591325,0.7915502988323511,0.7481788997508734,0.6978633270094361,0.6473694336851448,0.6019267894852718,0.5567556065462604,0.5062529321576357,0.45568170763003724,0.4056954771678203,0.3631292768393031,0.3146373224957295,0.26432304951982255,0.2206431917441516,0.17469567088969096,0.13465715053340843,0.10780339804534678,0.11692288449116117,0.1121680487672807,0.11931920523404904,0.11876471945013911,0.09773883304689646,0.09331044650102704,0.1080212886667411,0.10554052858489871,0.1088354668138154,0.10054691138155736,0.09204446972724445,0.08921850974394108,0.09505981414829545,0.10523048598104112,0.11723942982484448,0.12106036483995153,0.11744572401922637,0.11954130597506829,0.11940580294685232,0.10981932371202219,0.09355038281337036,0.06228807336265252,0.03386384855222069,0.008312022497039218,0.0,0.02851935316015597,0.04816455278717746,0.06478030122075729,0.07613104723755537,0.07756692173950608,0.07720573263208941,0.10250697291434019,0.1380720208932631,0.1789196510655,0.2252213951106632,0.2678777848703904,0.31444427481007264,0.3459706168376302,0.3871921908094309,0.4376382419321383,0.4876248020457228,0.5302632215118421,0.5786816394092396,0.6292486367839387,0.6798125630025973,0.7279249415455442,0.7707195129618001,0.8208591350566758,0.8714304445658188,0.9220014951217645,0.9714510389152091,0.9941182880811372,0.967842417402965,0.9250011543690471,0.8779018325759746,0.8273479132617017,0.776776500331622,0.7262060065205163,0.676719507679038,0.6344573025087021,0.5851650119437168,0.5345946925497416,0.4840232796196615,0.43353242775741463,0.38815633919114956,0.3429192086929753,0.29251397570449256,0.24758733889496543,0.20261340061679722,0.16714374377452645,0.13529361196671186,0.12613543335855426,0.13179625527187144,0.13761063039923482,0.1374469053735139,0.1174585153525729,0.11899355876251216,0.1312826676007548,0.13694057204189525,0.14169861951375262,0.13563787476185518,0.13544605698693513,0.1318215140722121,0.12838199373895876,0.11330661437978806,0.10638277561004617,0.11092114155368438,0.12164217073434402,0.13934849189006404,0.14246636677941038,0.14247785545570846,0.1424766519376004,0.14133703158797561,0.1305407811497965,0.1131166397168959,0.09015426205094834,0.06343593359512201,0.037948465408710996,0.02835577876388129,0.04569721022988871,0.062132609344428325,0.07084886896395481,0.08525790968767222,0.10419347247913868,0.1277273904528966,0.16601057113487072,0.20799353972551415,0.25381215988133365,0.29758302499926503,0.339063452650344,0.36936745697489504,0.41717316419361317,0.4677371863900126,0.5170294769549988,0.5592916821253346,0.6087781809668129,0.6593486747779187,0.7097840853512325,0.7542824775420633,0.8004321004056967,0.8509581428498534,0.9003679240176565,0.9425877714021029,0.9892870931317985,1.0000000000000002,0.9597771237551578,0.9159164777171764,0.8691426634384094,0.8185983890047581,0.7680269760746785,0.7174559471649757,0.6678329520678539,0.6254996152318906,0.5764151926565051,0.5258451682927989,0.4752740111090661,0.42541282888729115,0.38312955831565976,0.3442465869850495,0.3048053719258834,0.25978794384517534,0.21451555166252878,0.16833500518451805,0.13950332566614398,0.1421347104098718,0.14254378234423304,0.14753711462897567,0.14067271660778502,0.11289168157603946,0.1078968753266969,0.1219750310216261,0.12745183510234215,0.1213588054674688,0.12072463164286718,0.11309151811562401,0.11092711386546839,0.11868126906130283,0.1246374717942007,0.1315482414280955,0.13180259858719,0.13180269158586166,0.13249769088555285,0.13864836958309912,0.12924310294733932,0.11505163793496576,0.0882524995538796,0.06510079912426159,0.04113851753578679,0.04888904830520646,0.06073413726037069,0.07615335388081657,0.08261682296112083,0.09334552892953685,0.11345515194561795,0.14609863931429112,0.18664739475244163,0.22916315725798642,0.2746316249035061,0.3186297218440748,0.36524035281650113,0.41572991904165124,0.4613575879592029,0.5063509816322223,0.5568243450877153,0.6073957580177949,0.6579671709478749,0.7085385838779545,0.7590459561596583,0.8043255364860256,0.8495006591435945,0.8897986466107051,0.8894148545441032,0.8506336265813703,0.8082317045616982,0.7653096377089927,0.728333929073407,0.6784150856275775,0.6311258165039335,0.5876802312769882,0.5373577002098291,0.48678651095758885,0.43686578195465064,0.3943778110629752,0.345743033601299,0.2954545697373234,0.2519054263915188,0.20481658239755318,0.16145621280797529,0.1368715069874491,0.14373682711194347,0.15452938588254583,0.16303783974164454,0.1562312442743532,0.1316479780476787,PM
0.20174955700799646,0.20152539903270983,0.1965171676286609,0.18997859142296314,0.19145405987750685,0.19048846331668068,0.1880210877369829,0.19609189723182807,0.20223736194250097,0.20830930009022397,0.2146866203101595,0.21589563559813418,0.21589273463092284,0.21397799126757266,0.20090784414751794,0.18431647352077418,0.16332624112700145,0.1420578357715584,0.11737283576296631,0.09381269119180258,0.06893331115969603,0.03931122610972737,0.015568867066690584,0.0,0.008391195757649572,0.02551069659795957,0.047440580852986636,0.06696255263335227,0.0826673015195557,0.09913716477117152,0.11044809550988599,0.12244737099605774,0.13086712316642923,0.13541043663081231,0.14360740660738924,0.15973178688609602,0.180274077486695,0.20896517594760178,0.23705738218280203,0.2663102211376881,0.29679693305777854,0.32963245387986817,0.3578684813476706,0.3908833987436072,0.42461044649048374,0.4564628612669296,0.4852587630499646,0.51874700779162,0.5524816075242173,0.5862162434085693,0.619861783045989,0.6495860331073081,0.6803756744137216,0.7140805006379928,0.7478151365223448,0.7815497724066965,0.8152757535472156,0.8468591438755547,0.875878825872369,0.9094140576268849,0.9431393692901241,0.9746244714296425,0.9999999999999999,0.9979270504842505,0.9707185971285207,0.9374208720440321,0.9087113641932699,0.8767551154193093,0.8430267075380485,0.8092920716536968,0.7756234625848716,0.7455769091527779,0.7151243136227928,0.6814278144242735,0.6476931785399217,0.6139585426555697,0.5802239067712175,0.5464899673383113,0.5134770296838961,0.4852420163574117,0.4523587254920739,0.4186250136574422,0.38489037777309043,0.35122796331284134,0.32302439899616375,0.2975452390988128,0.2641003641946985,0.23038172099469,0.1991849896611141,0.18291720708033343,0.20293530020854,0.2153841258632886,0.2158988206029554,0.2168488686816824,0.2298507230322432,0.24876912087017156,0.26307646549008934,0.25144731646329677,0.22600852462713383,0.20789183238868725,0.20898730755105832,0.21529857430490196,0.21248020106926913,0.21282787134604642,0.21173749105414086,0.2134149734172336,0.21090159079333792,0.20792082226594932,0.20450630331476838,0.20331529368910928,0.20123816414944817,0.19583718279667173,0.19460099317526736,0.19272156234713556,0.19454071772600756,0.1976100995882074,0.20303724484147467,0.20891358106455782,0.21470524656290968,0.21762820471816802,0.22078716121606845,0.2144599226945353,0.2057945273117937,0.18902372560100644,0.1652400943386888,0.14203187947931661,0.11953943254105848,0.09700854181036156,0.07289121899841267,0.04969256947527956,0.024920266935259616,0.004478308770509698,0.007137072054231752,0.024055561443827145,0.04077416486954799,0.059957693864887474,0.07633780992610706,0.09125659418054222,0.10374621768269321,0.11444656749349458,0.12185497899638686,0.12950881393191438,0.13434087314149268,0.1507721727493999,0.17149715291292822,0.19970012162396678,0.22800440145227296,0.25638927048114957,0.28976223087177366,0.32349666953947886,0.35721542127217953,0.3885020125029294,0.417772956494162,0.4513609455964501,0.48509556265325415,0.5187807373791734,0.5488843441327228,0.5792746768950615,0.6129598198826779,0.6466944557670297,0.6804289653707957,0.7137488073386017,0.7421927202219784,0.7745617603943843,0.8082933488808045,0.8420279847651567,0.8757356102307668,0.9066117430956725,0.9362336780648971,0.9669419729541532,0.9759952019112846,0.9547014019932204,0.9259407120721409,0.8946128175700782,0.8608927710895719,0.8273278633269346,0.7982003705785347,0.7710147612494419,0.7485451616761302,0.7265524804843223,0.7042521964994081,0.6813390379080916,0.6545323268380171,0.6211506664599648,0.5921388530803952,0.5605460232977354,0.526819980720742,0.49308534483639044,0.4593507089520382,0.42561607306768645,0.3918814371833347,0.3581468012989827,0.32441240829664075,0.29109118594231453,0.2626981084893346,0.2302837994420187,0.20006497817889402,0.2030860966859097,0.21403111304566258,0.21173741513363498,0.2141926371877917,0.22793921205855716,0.24324180809789542,0.26085691616082196,0.2576807218587799,0.23451922423312743,0.21071878105220632,0.2044619170180496,0.20868348518870816,0.2076393704055074,0.206572471657945,0.20799365982958407,0.20545047917779946,0.202378041199044,0.2006133549453385,0.2046130786346304,0.1973959332741443,0.1944674658922133,0.18940949678946006,0.18306361798917237,0.18601873373566524,0.19258750120153134,0.19561777428648852,0.20275678810486608,0.20853845575377672,0.20930955858799216,0.21471030293030446,0.21536055018075861,0.20471570039996412,0.1878497057002647,0.164442458189752,0.14113114119431114,0.11902410421255782,0.09392034039776875,0.07140506565009808,0.046790261901248686,0.025327262102662895,0.03388476678835384,0.05800185452882711,0.08775841736784284,0.10989939812849203,0.12291084328374258,0.12290098405382166,0.10905574200305657,0.07704283764109598,0.046015566424313925,0.024055538831148304,0.01891259926265232,0.03813205213954174,0.05747893931495163,0.07399623147002432,0.09783069690584478,0.11176790207224385,0.10099374392023563,0.11019452765334792,PM
0.15984984857362483,0.1539847826786258,0.1292169973948627,0.09456293696949647,0.0694072585871035,0.08125345471524348,0.10226949740360625,0.11220877604397694,0.11490564267036385,0.11726604587095513,0.12075725544277627,0.1359013409123584,0.1502768868378055,0.1512129553717978,0.15117281448975795,0.14675476491135497,0.14669130158987942,0.14279490522948524,0.1392789894509523,0.12455120564676658,0.1010230143625046,0.08186448060388063,0.08369117635666568,0.10241030319445366,0.11186004458595722,0.11332957299833768,0.09945055520877233,0.0957599840175285,0.09584713126072475,0.10417771529167585,0.1335612082704749,0.16939746430715608,0.21340222104124495,0.2602580551956497,0.2992198694610251,0.33967204885694513,0.37092984462727396,0.40883193499973935,0.4543254081554118,0.5013803112423274,0.5406018840572651,0.5858890655892977,0.6330041889061262,0.6724128108688341,0.7174527230231835,0.7646280665699259,0.8043041439223455,0.8490158829570633,0.8955502305945326,0.933883304121548,0.9593767090990657,0.9431423955274283,0.9036331404596372,0.8618255107135624,0.8230111803162925,0.7770471199945852,0.7294968975444023,0.6819447132238647,0.6343925289033276,0.5868403445827901,0.539288160262253,0.4917361363686126,0.44471501673060687,0.40536208186404843,0.3601696659844775,0.31262159382900157,0.26569665575473156,0.22659453140308194,0.18726057006898467,0.16163485401933064,0.13225073029323475,0.11825624238607646,0.12518787488251926,0.14295788012972466,0.16077144080421513,0.15353322862538987,0.13155519368403423,0.09633662370971718,0.06927540650129527,0.08327741513730769,0.0953191780136502,0.10325481803074821,0.08757684824950251,0.07482048334418101,0.07357430001659293,0.07699372607066124,0.07655492474324488,0.07353161891285631,0.06839568280613961,0.057136859885717595,0.06481925065884231,0.07308046688042302,0.07235778725847486,0.05247675305209465,0.02777798642696583,0.005383997340101088,0.0037816538569352964,0.0,0.014519811302209584,0.02173871178450737,0.02440102854040571,0.026000767961514848,0.02529069738151901,0.038240965585659925,0.053555997476159245,0.08133148243760857,0.11597179895848164,0.15244538180331269,0.18152840903339063,0.2166452671705752,0.2606958430228121,0.2996634969948222,0.34542825554003964,0.39297709359256694,0.44052927791310403,0.4880661523959604,0.5321861456891324,0.572333436747223,0.6196317463625884,0.6640376834351416,0.7039277773904151,0.75094238941028,0.7910790400885899,0.8352301952890666,0.8805649862483611,0.907887476079196,0.9027014850803716,0.8704422305174531,0.8322687071310344,0.7867478790994029,0.7476459784731138,0.7020854012571152,0.6545358604133085,0.6070277279081131,0.5641900975219596,0.5268552783157541,0.495725007267491,0.4510239308018382,0.418764448856652,0.37766231742821055,0.3384074768451353,0.2931275300995877,0.24557872809947612,0.1988639084800523,0.1668348086860445,0.13603073608252414,0.12414107137833774,0.13212200573101063,0.14595667020633862,0.1737150384872017,0.19282592591185987,0.1841845317475097,0.16442999462648134,0.1283791802097074,0.10456842552694878,0.11100862388535515,0.13228634448101628,0.14555864552716935,0.133301274015589,0.1310788754924488,0.13788898525983684,0.13130882940019828,0.14093341485144428,0.14688511244858726,0.13197769390565384,0.13482492107057698,0.13238876461486315,0.1274400831946949,0.11804387932596971,0.10821839944087053,0.09419251121973482,0.06415545525798128,0.040214507564233726,0.029728770838696184,0.034128500176388465,0.043382711547994335,0.05125528513909483,0.05845401346543144,0.06378103363423282,0.07906106968520876,0.09856222268038994,0.12404494429761481,0.1581280815177133,0.19608311929903866,0.2403425772056964,0.27848135117857953,0.30992153740558726,0.34393127306630755,0.3871390068878753,0.4345438748040109,0.47577082597739495,0.5187083974446292,0.5662184458015143,0.6137706301220514,0.661322814442588,0.7087958079773851,0.7504773858055425,0.7816648297566731,0.818468626253327,0.8657055046863749,0.907263993889116,0.949813652721154,0.9908062777013831,0.9999999999999998,0.9763890113178577,0.938596984182033,0.8964908197172023,0.8490612533398265,0.8066848533152517,0.7649118684657747,0.7174457035308717,0.6698935192103346,0.6223413554615276,0.57497901226476,0.5343334816318042,0.49075825312433996,0.44322665707858744,0.3956815826670044,0.3506507145283144,0.31123468406297716,0.2643025835697712,0.22367478656788786,0.1830500089192424,0.15170724806654623,0.14037045623062294,0.1403163317654783,0.15316089225017993,0.17952942045966624,0.17900345637394954,0.15534481512088116,0.12640790527957413,0.09284690008800123,0.08531967623566494,0.11205233735978304,0.13600290840243967,0.1329794848237349,0.12984957959971433,0.13685706180610024,0.1356446933296358,0.1446599559453532,0.1648767743858326,0.17256962267008102,0.16430564300330097,0.16904697688802184,0.1667442161605175,0.15341156562069425,0.14863913634267423,0.13677518595141103,0.11469667251476445,0.08624941946429932,0.06443250532719991,0.06368419027968075,0.07809612677911448,0.08452105864170978,0.07927806067294818,PM
0.039646157448194885,0.06422047958151433,0.08710215304547786,0.10493971500885924,0.119134113938699,0.13073710963004248,0.1492130994415668,0.17618662897093307,0.20997834534196547,0.24865819351725826,0.2862524116462206,0.3234980144141153,0.3535108000827265,0.3938536532539143,0.4350244202794895,0.47289053493595135,0.515064852485233,0.5576370529297572,0.6002095775452025,0.6427821021606477,0.6853534307938145,0.727181133272758,0.7643612537455944,0.7976744742258592,0.8361751802173687,0.877293109233882,0.9151758421242289,0.9560606591579446,0.9749964496276025,0.9495946595267235,0.9123500931248767,0.8703024509639008,0.8279907567532607,0.7898045552959858,0.7490732136511831,0.7065134979176297,0.6642431260006469,0.6261662510186341,0.5852861958851627,0.5427249575162096,0.5008231293449263,0.46313485389509546,0.42150475993627756,0.37895141040548386,0.338392459318414,0.3000734624771575,0.25854919634500817,0.22832868373834714,0.2261159304321252,0.22995189369610403,0.23597008357592708,0.24921924666279538,0.2474100461739921,0.2407660748943794,0.26242927511920455,0.2894502220799835,0.3140069307955695,0.3334665615019001,0.35056222507540724,0.3688279649812123,0.3788815272008377,0.3764106464398802,0.3564203709391689,0.32772124973905226,0.2969552849479371,0.26630448092817716,0.23518449646998696,0.21041116575847618,0.2132668080962612,0.2300697077039573,0.23757891338014359,0.233172099224624,0.22346419583902577,0.21757707096289414,0.24156448442381806,0.2778410634109818,0.31659675311441937,0.35579188238132486,0.39604063683835844,0.43455171514446067,0.47691126293388164,0.516691762784206,0.5556981571723338,0.5981672562052118,0.6397128665024965,0.6774212947840574,0.7193878178706239,0.7618643196032353,0.8009231564689607,0.8406498820060637,0.882484851346883,0.9180714591503671,0.9248118945275594,0.8894735337631898,0.8470970090492869,0.808234256556911,0.7682968451052894,0.7257602863662018,0.6832451456872686,0.6437027479761324,0.6044651839442952,0.5619707829804312,0.5194228805000976,0.47919509882128586,0.4406005361262366,0.39818127959466154,0.3556371928110038,0.31557965653671416,0.27683760991966877,0.23453716984617934,0.19589416306331775,0.15997363656759034,0.13431998506411513,0.1143584018696342,0.09788128656315997,0.08685294488671647,0.0875346946066915,0.08429236632721282,0.06313659403100158,0.04558194347317701,0.054289623853285396,0.06553900979858207,0.07677746953138465,0.08995865542201231,0.09495258539071527,0.08627179072957003,0.06810978164190507,0.043545748092539305,0.013243217607344593,0.0,0.020764994110461732,0.048974223482815105,0.07547144402002459,0.09956582957462112,0.11756783661971759,0.13398225914498052,0.15437166862997054,0.17675463877136766,0.202123295072123,0.23150695661715526,0.26558186514121873,0.3019130149371816,0.3407592577388945,0.3803802391265185,0.41647803372532377,0.4497428371063945,0.4889349943646546,0.5276905741242055,0.5701283924875824,0.6127009171030271,0.6552734417184731,0.6978317375625391,0.738465166170869,0.7767256484565737,0.8190629939387284,0.8615875247873677,0.9012111569166565,0.9403553819865302,0.9807939909782284,1.0,0.9760155058503799,0.9388386648320799,0.8968221450622189,0.8557719433803828,0.8178169281765288,0.7755979979349499,0.7330346068412223,0.6921298685221366,0.6540852615447623,0.6122118884093606,0.577673831328517,0.5396313069116023,0.4993572232798946,0.460847631153791,0.41845265257921627,0.3771231022631796,0.3393742438577865,0.3002450739937568,0.2683448160573665,0.2583330342480914,0.24562037387943692,0.23979013783060021,0.2520235510691564,0.2537308514566585,0.23752345613512604,0.22012038737433515,0.23225846203646494,0.2525447041373792,0.2645863708330227,0.27147727159548674,0.26637534962748965,0.2501998416996396,0.22711631327067416,0.199030281380695,0.1666890516766697,0.13554150128133546,0.10397192343687855,0.07359229992170713,0.06293367196505684,0.08174797938109568,0.09604692988464514,0.10370328260576445,0.11243797614056461,0.1168246588684323,0.1357610202839753,0.16583153447533538,0.20261149100295528,0.24120245738663448,0.28020544553382987,0.31726977959764446,0.3492647586680837,0.38597817133086987,0.4280075984528797,0.4700667389164235,0.5078337855948909,0.549228529156703,0.5917940421532706,0.6333302653770514,0.6710409328621392,0.7130146564273354,0.7553619023730134,0.7936595542307847,0.8342470382080505,0.8764432417381338,0.9133972919176925,0.9291824794308035,0.9016549039383719,0.8598499851713508,0.817278468024554,0.7747059434091088,0.7321335189816407,0.6898756801489909,0.6518262956442242,0.6109069339294839,0.5683450733862163,0.526464810186694,0.48878325234744,0.44712499716811127,0.4045547361930437,0.36238041864376247,0.3245143039873011,0.2833329757927423,0.24140053807844564,0.20398443411648715,0.17370528319315426,0.16824895116732796,0.1685220609530631,0.1772035958392606,0.18541764727505772,0.1706220600722559,0.15332806768051177,0.1642397392398074,0.17993685324707487,0.19411062139509183,0.20506392820445818,PM
0.16242126882691332,0.16242126882691332,0.16242126882691332,0.16287118779276755,0.1757619132217325,0.1796002114970916,0.17626406138352957,0.15441390267512345,0.12942953938217094,0.10493521366778902,0.10404366262832054,0.11439296097217655,0.13638291508779243,0.14514672830807385,0.14523135020686917,0.14523135020686917,0.14523135020686917,0.14523135020686917,0.14523135020686917,0.14523135020686917,0.14523135020686917,0.14522260685305355,0.1402052406269112,0.12835844806529284,0.13551196616434913,0.14510300227949724,0.14523135020686917,0.14523135020686917,0.14523135020686917,0.14523135020686917,0.14523135020686917,0.14523135020686917,0.14523135020686917,0.14510607607174864,0.1355102687884222,0.1183638637945279,0.09625992414280349,0.07704119841763468,0.04459719109322702,0.025676537632701724,0.025497579640063606,0.04267492617127511,0.061580167337130565,0.07829330841692039,0.09990226395139779,0.11726761992075119,0.13395372218139068,0.1567054205621532,0.17343540756816944,0.17959119069644824,0.1796111874469566,0.1796111874469566,0.1796117065851277,0.18218273032285515,0.19610585976343442,0.21106633678351727,0.2373025012797525,0.28052715551924345,0.31591152693874003,0.3634823790269599,0.399210413305632,0.4465629886810487,0.493519850116662,0.5299027970280918,0.5788218837316208,0.6286253894684082,0.6728518395232013,0.7112667004992757,0.7609000700015534,0.8100947950561919,0.8459046398302612,0.8931359172434887,0.9348074412735321,0.9732567839543553,1.0,0.9955764035554733,0.962920958123139,0.9136544182456228,0.8638373599702787,0.8140203016949363,0.7643692453020448,0.7253758189477093,0.681742064723192,0.6319419872136072,0.5821249289382635,0.5323739742971996,0.49011039580486715,0.44982666149060924,0.4000466144569348,0.3502390045219146,0.30575616623271973,0.26753535446192656,0.21809061437155597,0.17865772201276853,0.16481167078984704,0.17992064638739524,0.1953714765435941,0.19680091728948446,0.19680110606700119,0.19738596777721762,0.2111504664801629,0.21398765558366994,0.2165761950478089,0.23007020367790076,0.22239397500102376,0.20542345502909098,0.1809695813780432,0.16128893288648216,0.15647555388669776,0.16595832753477469,0.17901592629120966,0.17961111350909587,0.1796111874469566,0.1796111874469566,0.1796111874469566,0.1796111874469566,0.17961116306319402,0.1793758893226176,0.16711799270197503,0.1624293129188028,0.16242126882691332,0.16242114612152747,0.16147175833866845,0.14796642290116102,0.145231907100543,0.14523135020686917,0.14523135020686917,0.14523135020686917,0.14523135020686917,0.14523135020686917,0.14523121098345015,0.1441617332689682,0.1295693851052402,0.11356828430424404,0.10190868156274924,0.07949420021293863,0.056150221171473724,0.035598838913069475,0.006972809770639188,0.0,0.010659235722240368,0.026739791684037506,0.043426651534924865,0.060113597122268825,0.07680032876176002,0.09223767930881399,0.09366140635579345,0.09366159434673715,0.09366159434673715,0.09366159434673715,0.09368812810869764,0.10146957759004183,0.11299615967493315,0.13336026287586433,0.15106662482019972,0.18012915566568832,0.22848218021727673,0.27435362491229975,0.31136967470012333,0.3607160249364898,0.4022108675948366,0.44329216031419927,0.4929892467276322,0.5364941540325234,0.5756133554690885,0.6252682541022954,0.6750835855896895,0.7210225892299316,0.7579990700879815,0.807346625216879,0.8567312004710868,0.8937703880591061,0.9374887263180627,0.9652389174745597,0.967631164265438,0.9440797137940109,0.8998065705191212,0.8747394714484287,0.8444934591324946,0.8001882888439251,0.7503838970779881,0.7005668388026454,0.6507498591846006,0.6015622656011734,0.5648073707498624,0.5184877912352928,0.46867146604597254,0.4188544077706293,0.36903734949528655,0.31922029121994333,0.2694033485708287,0.22048426186729841,0.1841893078266339,0.14919047859152457,0.15806137294909473,0.17803794876342627,0.18364029739927146,0.19639439697532435,0.19732594524321545,0.2107021482497884,0.2139861380241359,0.21432135951666442,0.22833882873857236,0.24706464415773732,0.24794503473430263,0.2330058704113669,0.20059350652672858,0.17516147015409889,0.16587941647562143,0.17932621754348288,0.19293305909989877,0.1966988607317246,0.1881705075338589,0.17964218954585176,0.1796111874469566,0.1796111874469566,0.1796111874469566,0.1796111874469566,0.17960335642862502,0.17499603624484283,0.16278987220616337,0.16932148718523887,0.1794659336622022,0.17955891587780792,0.172458314487002,0.16316563096832581,0.17749914636443265,0.17960891338111162,0.1794628598699508,0.16921779332720321,0.1624417934461011,0.16242118938304184,0.16178601177878704,0.1486675052399664,0.13820756394044764,0.12623801521829225,0.09945360307703588,0.0807012832306011,0.05601753646929852,0.03108398632755538,0.012563333716115732,0.025788367437465265,0.04700992131131754,0.07070098640072153,0.08116567405891129,0.103964581979759,0.1108494377289011,0.12005891966640769,0.1279645696796643,0.12804143158682502,0.12804143158682502,0.12804143158682502,0.12804143158682502,0.1281789524125312,0.13876607748281522,PM
0.05895210036671639,0.05895210036671639,0.05997616818340967,0.07581752271734876,0.05997616818340967,0.05895210036671639,0.05895210036671639,0.05895210036671639,0.05895210036671639,0.05895152610991117,0.05665750590137897,0.038192504276280737,0.021452314254083227,0.016045174831325504,0.01612181618278008,0.0294168749409085,0.050849598164524945,0.07222527106715404,0.08038482359033239,0.08040671164802271,0.08040671164802271,0.08040671164802271,0.08040671164802271,0.08040671164802271,0.08040671164802271,0.08040900867524536,0.08589508647668032,0.11585369390555122,0.14896937689829448,0.20384070306379298,0.25004727410755256,0.3110924456694404,0.3573203305140855,0.4193878471222501,0.478343967286607,0.5269922531818296,0.5910264601431203,0.6543656519135403,0.7005941110149907,0.7626639246503792,0.8260025421639936,0.872231001265444,0.9331949374214323,0.9593634838450331,0.9413539156878041,0.8913339677604268,0.8351867367606713,0.7840390232962022,0.71975412783096,0.6557199208696689,0.6070716349744467,0.5481149405532841,0.4837534037365874,0.4194114579503587,0.363185288571926,0.31203757510745733,0.2477745676999059,0.1915483983214732,0.14042257291469573,0.08429780422943578,0.04393616166333514,0.04290922256261265,0.05862477051131032,0.06436153681669676,0.08007708476539355,0.08040671164802271,0.08040671164802271,0.08040671164802271,0.08143135372152299,0.0995448404063013,0.09337099500991153,0.06212399267234536,0.030035248780324597,7.89383786763409e-05,0.0,0.01674019002219662,0.040612331070053465,0.058621899227282004,0.05862247348408722,0.042906925535389995,0.03749978611263227,0.03749748908540962,0.0385221311589099,0.05665750590137897,0.05895152610991117,0.05895210036671639,0.05895210036671639,0.05895210036671639,0.05895210036671639,0.05895210036671639,0.05895210036671639,0.05862247348408722,0.042906925535389995,0.03749978611263227,0.03757642746408685,0.05087148622221527,0.07222756809437714,0.08579426004031276,0.10161063442537666,0.1151563816874579,0.12329404615294548,0.12331593421063625,0.12331593421063625,0.12331593421063625,0.12331593421063625,0.12331823123785846,0.12872537066061618,0.14451985698799064,0.15909254335079437,0.19179966108223034,0.23440057056309982,0.27738873150439014,0.3335930128251321,0.39793495861136075,0.4622987924552806,0.5265836879205232,0.5777314013849919,0.6339575707634237,0.6972748744761548,0.7435033335776042,0.8054942088343147,0.8566413480419781,0.9127885790417336,0.9638331690426112,1.0,0.9845921908762412,0.9502670513534817,0.8936833155195272,0.8474571534453004,0.7841398497325702,0.7279136803541384,0.6767659668896693,0.6124810714244271,0.5481178118373125,0.48604857245873045,0.4421930719444882,0.41020537529598977,0.355004422247863,0.2929564966701652,0.2467280375687153,0.18371904693772922,0.1377191674753866,0.1288043090392934,0.1444409186093134,0.14579518756544285,0.1639305623079128,0.16622458251644323,0.16622515677324934,0.16620326871555902,0.15814454262874822,0.15814454262874822,0.1661813806578678,0.15773540311063705,0.12650914031715033,0.10059596459193809,0.08691972855017971,0.11490569318350596,0.1365891049110739,0.1448275958129286,0.15773597736744316,0.15015809388423262,0.14477284251916567,0.1444409186093134,0.12872537066061618,0.12331823123785846,0.12339487258931303,0.13661099296876467,0.14474865743425225,0.14477054549194257,0.14477284251916567,0.15015809388423262,0.15773597736744316,0.1448275958129286,0.13661099296876467,0.12339487258931303,0.12298630732800708,0.10724887132161953,0.09370406743337512,0.08048565002669994,0.08048565002669994,0.09370406743337512,0.10725116834884174,0.12839574377798701,0.1454655606828137,0.1639305623079128,0.16620269445875246,0.15806560425007232,0.1448494838706198,0.1444409186093134,0.12839574377798701,0.10829769848003235,0.12102363677252148,0.12331765698105324,0.12872766768783883,0.14993159046519322,0.18468126050462974,0.2285909400558288,0.2852530400116535,0.33389845462284695,0.39252552216138037,0.44117380805660344,0.5052057179906706,0.5641624124118332,0.6128106983070563,0.6768426082411239,0.7357993026622864,0.7844475885575086,0.8474571534453004,0.8936043771408508,0.9356148523551955,0.9199206182073834,0.8780170209446077,0.8269488201156214,0.7649579448589101,0.7187294857574598,0.6553902939870397,0.591027034399926,0.5289572207645374,0.482728761663088,0.4193895698926675,0.35502631030555376,0.2929564966701652,0.2467280375687153,0.183718472680924,0.1350920748433917,0.08460324602715152,0.051900722350160855,0.056280922672195643,0.08013413508638045,0.09370177040615113,0.10183943487163916,0.10186132292932948,0.10186132292932948,0.10153169604670031,0.08684079017150248,0.0995690254912156,0.1018388606148326,0.09337156926671675,0.06212399267234536,0.030367172690177302,0.021531252632760456,0.037246800581457684,0.05079254784353848,0.05892963805221996,0.05665750590137897,0.0385221311589099,0.037475601027719296,0.02933793656223127,0.01612181618278008,0.01612181618278008,0.02933793656223127,0.037475601027719296,0.03749748908540962,0.03749748908540962,0.03749748908540962,PM
0.5376543742714897,0.5938355202928007,0.6544441636463323,0.7088727626014086,0.7606285818483287,0.8210817052831705,0.8760593397151588,0.9271164558637963,0.9776200542983173,1.0,0.9696852097810389,0.9233634865365885,0.8657447962110569,0.824854369974636,0.7889241043846353,0.7495609951898579,0.6988334764903703,0.6435490290715999,0.5926672010819583,0.5322734030576597,0.4717539580248289,0.4193299430313737,0.3656054505723514,0.3093214509815665,0.26097312060230804,0.21682731940817135,0.16905439479642093,0.12497292488581868,0.12028455435831731,0.12976034730440755,0.12651134785645546,0.10481021051681116,0.10862422047488263,0.12648362909448796,0.12005064477791949,0.11462367070357926,0.10895311528411566,0.09947133596899738,0.09393452460773855,0.08348772478813293,0.07177688172765961,0.07217322085194233,0.07896101198015248,0.07942009064495847,0.0841988628860788,0.09713450823713199,0.11409547560080346,0.1254156331375711,0.14941869844662659,0.17583850271877655,0.19980691665206818,0.20637279330896474,0.19285014636958042,0.15888410659612617,0.12511369512224668,0.09476962384197085,0.06532681494340498,0.05070150254516825,0.028620350541213924,0.010187544095090484,0.014595729140304048,0.013978434360355063,0.019437314044018716,0.032531804757423455,0.04454812192898583,0.0847521012114889,0.13324436302218157,0.18701985881855965,0.23869507427457526,0.2933625362426042,0.34471728112295974,0.40444866862346496,0.4532823164284254,0.5111555064956885,0.571796795355366,0.6276823364391393,0.6780777300324838,0.7384330617713957,0.7973965043710889,0.8457799958689285,0.8952074667672183,0.9060379711677315,0.8770606407213237,0.8240972233967989,0.7718564659957927,0.7179769025176288,0.6573951575842654,0.6010086071276488,0.5510162605643827,0.49075372584556876,0.4315521188099569,0.38309090220183384,0.32539604670776745,0.27728740010047437,0.22898490543991779,0.1832610817189848,0.1306555009358501,0.10167539889931465,0.0992846420332194,0.09841203529644993,0.08016197845004092,0.06196998684222432,0.08583336437236255,0.09877671903721819,0.09928239728848487,0.09928248713706234,0.09928248713706234,0.09928070924532184,0.09752270536188101,0.08541292064646822,0.0838458605391903,0.07653742222664173,0.07446254255024654,0.08931420149172986,0.09977939078739073,0.11244457812490305,0.13272537869401324,0.16808514842793443,0.19538513940342161,0.21833046578261017,0.2211780892717159,0.20596578316448655,0.17707194382253588,0.14997795605152975,0.12135966831544387,0.09678973794256818,0.0667187924498931,0.041082413521427164,0.024284861937986513,0.008612709257586282,0.007219713477435441,0.010352774726091862,0.03533002445104749,0.07387258591787216,0.11682694090724333,0.17249755111453968,0.2210645070448254,0.2802181258202885,0.3291363768734037,0.3862630066167241,0.43543121151341024,0.4927470896265338,0.5529448314213674,0.6025458061570257,0.6593768176667552,0.7196324749803193,0.7695952416007859,0.8170683481817487,0.8297320211186645,0.7981387965397517,0.7498089584112781,0.7004744747569176,0.6436495037355443,0.5830136926638891,0.5261018700535938,0.47657205383204415,0.41643718570386223,0.36249912136759166,0.3113712631928758,0.26333057181104946,0.2146653954666906,0.16519169453072724,0.11719155191073272,0.08411142194330123,0.0705361356210954,0.08998742003773508,0.08935999248989468,0.067021370565024,0.06845345176180828,0.09393100836963741,0.09093890045807651,0.08399936181487089,0.08393813079281331,0.08495853247661156,0.0968910938963381,0.09782331633026642,0.08563079739027035,0.08266904589313251,0.07056681863626935,0.07982241122477873,0.09882335380456508,0.1120411993754371,0.12392104963128547,0.12038372665234176,0.1462197586444498,0.17349216344043494,0.19393081931791167,0.20549075125874072,0.19356579173698218,0.16819688338281003,0.13584448090028856,0.1056214186400104,0.08027270572172718,0.05253564830815538,0.026378047026726303,0.01117981602995144,0.0,0.0015837033242034337,0.009652505266601885,0.027221923519632263,0.05433847960355154,0.0988490458043696,0.14486426626193172,0.20059693378512478,0.24898767916063314,0.308421628077999,0.36741792105178517,0.4158930764913116,0.47504807240522773,0.5356356759465042,0.5889019923609831,0.6295922118347037,0.6700062097564903,0.7076613606764504,0.7507891407405594,0.7828458655790125,0.8375639380101205,0.895437698158835,0.9405474664778755,0.9498575223489238,0.9178677389749552,0.8654906720396842,0.8164343583417137,0.75652782282733,0.7057965855774393,0.6503156686249496,0.5896805789020414,0.5292102488685719,0.4777662543033694,0.42301738465342753,0.3625582283520501,0.31060273645011094,0.26128126833082943,0.2127966773515193,0.1650744469600336,0.1174497311144016,0.08162113218639533,0.07521817339003656,0.08367561511845034,0.07508524829312391,0.04871835251049328,0.05612065606968697,0.06838103797120398,0.0685944274804764,0.0706547752369926,0.09207826672363284,0.11036079256510822,0.10168197175590254,0.09845454505403772,0.0882517099997453,0.096976026830629,0.08691140205749459,0.08775547258518923,0.10239939327829983,0.11404118753119885,PM
0.07390221499517668,0.06359680612006224,0.08135247859225725,0.1211986254646944,0.1461807020791106,0.1307826583350633,0.09789306080855109,0.06174007910931323,0.0322366938327634,0.03662159898033002,0.07029016176300207,0.10623952651056934,0.11865055624896925,0.14570679101504425,0.17229830331829055,0.1853912966629654,0.18928404681993705,0.20339711866912902,0.2041151694159038,0.204832425232508,0.22371026404013294,0.23904886072336273,0.22459095169521115,0.22060484047568973,0.19748866063971082,0.17707726439406368,0.1407484604801459,0.11509615027695164,0.09357582116300822,0.07974774728212752,0.07423321214747025,0.07398603906534928,0.06265467687326787,0.055825232966072225,0.06769791539550729,0.09091728870556848,0.10401487317749858,0.1214734768233936,0.15502868915599022,0.20023095536436664,0.2594153470076792,0.3112739990008828,0.3756157686355093,0.42734259111141926,0.49085623527524946,0.5504432956599463,0.6053118513573557,0.6712687390110119,0.7270201273934505,0.7856755835213112,0.8514624574501233,0.9042142902717005,0.9652939553165005,1.0,0.9804346769837444,0.9249734564318808,0.8730142504071416,0.810089288630639,0.7499894409801637,0.6956206125556967,0.6295123154667048,0.5649272718787,0.5135643907960263,0.4489605893344182,0.383773806670892,0.3320680698224998,0.26998197178320815,0.22573979291045632,0.19146310371217856,0.19796504343554577,0.19088404192095432,0.21806145724505965,0.2332391568783776,0.21173543635197545,0.18676058527265615,0.1577824409243651,0.12039525384923788,0.12999872033504545,0.16091322199476465,0.1837034612654742,0.17097659638684037,0.15953231099104803,0.15252456932069958,0.16520858677779282,0.14509110583095897,0.1330370161984331,0.14466458098082668,0.1312325840733477,0.14101531021951352,0.15839517785368162,0.181435935286697,0.15812884199647392,0.14664098027733807,0.11949740067581249,0.0993651133763378,0.07493128977386121,0.04787225640434878,0.03713496380369463,0.03710062288729565,0.03674168351970453,0.024453011699611782,0.02249134281960652,0.04776422820458803,0.04960611053846575,0.044248825933785874,0.05725669646411902,0.08818920813399789,0.11772371338672727,0.15999571164002369,0.2150363373788351,0.2680136470849459,0.31926525737692746,0.3832492257239921,0.4486369549398397,0.5004187225847359,0.5638015545427524,0.6277629692976308,0.6793441674495542,0.7442102353622375,0.8003235440085068,0.8573641563164491,0.8889637230156824,0.8669136767117758,0.8177683203930339,0.7612651567004818,0.696556606678489,0.6451004143416013,0.5808316784168084,0.5178087950344716,0.46578565056148014,0.4002759817546546,0.33455603085335195,0.2820279635650169,0.22784907730815718,0.1926549460810132,0.1605200964374376,0.14996672554048418,0.1712862212549462,0.17318955800565927,0.1665629994475184,0.14350006140907823,0.1069021958682228,0.09308112264956936,0.09417904324500892,0.10899419263544541,0.11132949570499617,0.11483491785195143,0.12913368489073163,0.1339647797189163,0.14778658257914623,0.1478152560655439,0.12967095788944993,0.11704199707240148,0.12756487834141872,0.1128763290659327,0.10027416239497855,0.08751249329206479,0.05216212432111522,0.023076795795323513,0.000813014578453064,0.013371434912678115,0.018603868857907102,0.02777498776258458,0.03296840217836072,0.028554867576964682,0.02249805416209094,0.018898251897145002,0.0359927719496298,0.057358061686990425,0.08365019900007153,0.11903293095523004,0.16442383921473347,0.22369385327662705,0.27567862664005416,0.33253824767611695,0.38924752043919675,0.45406973736915557,0.505605636814487,0.569657525941571,0.627910843366922,0.6839932010396703,0.7502427019007714,0.8165065242345366,0.8713512241188668,0.8885474825236295,0.8633603358419668,0.8136161585834811,0.7554679138217328,0.6951417554033155,0.6410221169077337,0.5750368737599989,0.5182641725992951,0.4607010645693186,0.39438153895395844,0.3290627620331228,0.2772676991061056,0.21552583265057157,0.1759803443206973,0.13523697377747412,0.13025512685949225,0.1487313516549711,0.1821952012079433,0.17910822588348774,0.15620187167083666,0.11704344061901706,0.09747888757535383,0.1106336657083995,0.12024881164314793,0.12978284864835254,0.12988659673720448,0.12988659673720448,0.12988659673720448,0.1299078996046963,0.1358564576938761,0.14588920173841347,0.1379026996109598,0.14106501590510323,0.1431430140495995,0.1228124464194078,0.09859627517582537,0.05893890361069776,0.03178759413382126,0.017449594219010045,0.0024241585551361133,0.00775801956159361,0.010886078878378669,0.0013386604111369493,0.012194594900268196,0.0007391917429662165,0.0,0.00508042658628538,0.022582202214841196,0.05393521599666107,0.0857474038234991,0.1315462322864347,0.18001766362097227,0.22730257864222692,0.28103219507216926,0.3394349667362144,0.40567333345656387,0.4630552695217851,0.5200162461792055,0.5862824727294731,0.6494566633630678,0.7013593050393703,0.765719272648929,0.8174278971499076,0.8810207552076172,0.9466503850182106,0.9921533171413941,0.9950158451058893,0.9459346375416167,0.8942108435834499,0.8288404985808087,0.7672056980693855,PM
0.05596887681907514,0.07434008342419673,0.10180542189213249,0.12484793223022184,0.13620180839093843,0.14528008734689024,0.1579887904877295,0.15065496090844244,0.14495903417666955,0.14489222839054605,0.1372151740808749,0.1276592065113964,0.1476022582756613,0.18833656295131673,0.23517672978088422,0.28230187403282025,0.33074486945926695,0.3782669566701298,0.4343148864010904,0.4815020150223388,0.5418397048842349,0.6035502702800706,0.6560152834916169,0.7090753492352198,0.7699411153424087,0.8174803210098602,0.8761821606518709,0.9369041406097423,0.9819712327680725,0.9952528592698866,0.9490372719359152,0.902022506158402,0.8414137764311524,0.7796106766871307,0.7178095337477384,0.6581961411152921,0.6111736304330733,0.5525070667887215,0.5160454032682305,0.468310034850866,0.4336868668289018,0.3763816680662351,0.31491198806161247,0.26516449633883177,0.209203080647967,0.14741362252308798,0.08674219118876891,0.07881702168191707,0.1233644681991235,0.17471709364896748,0.19823868521356092,0.19966718366244196,0.19976731207377174,0.20930056093965854,0.21784401519341934,0.21882330343758438,0.23320752539552725,0.2361168700408851,0.2301421681546354,0.20946397372523728,0.18578828862541075,0.19645569429368104,0.1996618040904914,0.19774141046664484,0.18285724689092708,0.18113417016859845,0.16944673590505133,0.16320147163952958,0.16416042232913375,0.17870544062276883,0.18428870774716266,0.1986030157307832,0.2057287939739485,0.22107720895562233,0.2354084165084478,0.23492432339067548,0.22007560215435173,0.20138256362295515,0.17038032678058013,0.12754897743042726,0.09064335296294912,0.055675185201706334,0.019832852313328875,0.0,0.0035267480301026666,0.02316536239819733,0.04378012227553496,0.05898251126549203,0.08420053167537356,0.09037807678222043,0.10220198570794947,0.12180981695954607,0.12662448429470752,0.11769292229644135,0.10854941688324349,0.10879323092330928,0.1249092561893197,0.15566397580799762,0.19850043785574023,0.24430810729874697,0.28989499198489943,0.3365137915275618,0.3917056835623005,0.4387368203299906,0.49638252176270115,0.5327445037895768,0.5782487210189124,0.6291744147371592,0.6907683030574407,0.7525716934085289,0.8143750837596171,0.8761782550376869,0.9369041406097423,0.9819811571690833,1.0,0.9668482246066117,0.9202630901161886,0.8596543603889386,0.7978570812990129,0.7405213604439633,0.6919818441573002,0.6306816735494372,0.568878283198349,0.5070748928472604,0.4455168253413415,0.39490857152540837,0.33988853003526964,0.2781019154006916,0.21629852504960345,0.15452747357339014,0.10602840066774322,0.13681002697314915,0.1783275844292831,0.2181005405088392,0.23567196153466963,0.2361484974105763,0.23614857229778252,0.23614857229778252,0.23614857229778252,0.2365782035848727,0.24964191157754323,0.25382418187249645,0.23473444929177134,0.19704141414806653,0.1934069734228041,0.21284608415234318,0.21788919476918922,0.21403652946581397,0.20033251872893532,0.1996674043822093,0.1996673227886867,0.19917730597223304,0.18587323125441424,0.1814348988911636,0.18142756706104146,0.18429218345699816,0.1986030157307832,0.20572538232415605,0.2175968922893552,0.21736414417812355,0.2034832939426514,0.1859109668098946,0.14804889902753304,0.11601200113789734,0.08983092301141182,0.06330403102720616,0.03841878241491914,0.03577191350994413,0.05143491315625148,0.07222145600216034,0.08845687742657482,0.10402150196572357,0.11923688241833608,0.12733475946824369,0.14112892375066322,0.14494094850087436,0.1449456525088495,0.14494634549493268,0.1476361132792432,0.17535228165151873,0.21637289976216634,0.2576877708864487,0.3036665039310522,0.3645838870569533,0.4262348116250805,0.47715993556544856,0.5318001880898584,0.5935567203177059,0.6553560626348736,0.7135515320829722,0.7613936592225428,0.8225295580493395,0.8831817310983956,0.9279042760131548,0.945157224847196,0.911261704969422,0.8645419511720367,0.8038596776974307,0.742056545539544,0.6805581670959788,0.6305647433465835,0.5748722917130693,0.5130835557980604,0.4512801654469718,0.3894790225075795,0.3298656298751337,0.2828420710783157,0.22286182444763725,0.20075090933281237,0.25403069775508946,0.2867022793290843,0.2908522899348114,0.2859042629770463,0.2730005007355376,0.27262974021335573,0.27262974021335573,0.27292862690484787,0.2887594833958791,0.30809220108519053,0.2967120311731932,0.25723202922267285,0.23788150431707367,0.252535776307671,0.2543835559638512,0.2510102684253481,0.23694604191764101,0.23559882171019364,0.2219218127967011,0.22205293039568952,0.23561668293771731,0.2361488461390575,0.23747598274973303,0.2522937297487844,0.2543871545034997,0.2543891484315326,0.25409364066816575,0.24008160491366892,0.2094877994127926,0.17197555038417578,0.13662942565163982,0.09992426126432274,0.07242260547597335,0.044941578288264505,0.024086277614333795,0.03971124273537363,0.0603270404767553,0.07586429577885134,0.09540926644864278,0.11138416508137006,0.12604629338951545,0.1388301169284687,0.14491520937326685,0.1448555531925817,0.13525897483042204,0.1267650418383699,PM
0.018496629699104705,0.03267035428247578,0.050646867654199124,0.07143803751207844,0.0834040533910887,0.08457242966154022,0.09791834863903093,0.1025075963705242,0.11590605325552428,0.11735806774194435,0.12987755904900933,0.1644740679661152,0.20128612509088972,0.24827524974499893,0.3034504372882294,0.35867697218530825,0.4137484589733931,0.45807548036892554,0.5076384731619563,0.5626993852491791,0.6074701620903937,0.6565780391640152,0.711764098697945,0.7623079450314734,0.8058183834145805,0.8606012737503712,0.906361138637664,0.946395491343571,0.9541661151997545,0.935487090233559,0.8832653107094055,0.8408245714430786,0.788930140911253,0.7359574460858864,0.6942945948401698,0.640287449193889,0.5961844712035904,0.5462808410619502,0.4923881074722889,0.4505703075644685,0.3973549128029785,0.342128712025898,0.28693823778555316,0.23815377072181532,0.19760775667923047,0.1842833332833611,0.1842076622899782,0.1897218095432942,0.20064179694426665,0.19534604153076884,0.1743888379751346,0.13440911991687976,0.10847229289310212,0.11935718227127445,0.1447711198315429,0.15068152304809157,0.15070469854575785,0.14782985830432294,0.13472919805811578,0.13396220191802044,0.1339621032327889,0.1337746887018838,0.12391568894571314,0.11723689034122042,0.11396423970570879,0.10114713556815014,0.10046903392756246,0.09768096485841138,0.08717330684213653,0.09948897575588189,0.10047149072256722,0.10047157953927499,0.10047157953927499,0.10046870375221939,0.0973042246504181,0.08439474239077338,0.07796493781409852,0.06441862672465959,0.047041666179272745,0.03364411515120125,0.019190899176887655,0.0009859406531460557,0.007880729233892936,0.020924325757822437,0.03346745937098339,0.045704417137661935,0.05035533763825484,0.06071721185836809,0.07366732945458088,0.08354074747526363,0.08493713348842391,0.10488337339312759,0.12804567649272247,0.164594520935065,0.20626709624819828,0.2549494466346274,0.2973807579758705,0.34928947555095435,0.40450875778969086,0.4562574481625088,0.49876847297667704,0.5534474348710283,0.6085765941588348,0.6545714735690047,0.6932800766028557,0.7256909258261626,0.7783908134328339,0.8200349751486731,0.873050012059768,0.9239035308325616,0.9371611619239779,0.9127890869930173,0.8680516850551161,0.8200225202919471,0.7676580528641894,0.7255708830197096,0.6714718074287549,0.6280406556787699,0.5774270831112278,0.5271471099232636,0.4834487877607976,0.42848247739688006,0.37464444550638065,0.33288388435229477,0.27964294537392,0.23315095187882084,0.18756068217926147,0.15678533908037906,0.16572195718263982,0.1675561941080379,0.17810927196014692,0.1988369521855149,0.19026178848589304,0.1633294132823564,0.1307733966397544,0.10655643128087977,0.12545930715725762,0.1482917567197619,0.156891208715507,0.1672266697916429,0.1674526212871461,0.1674548820468562,0.17027423131722808,0.17769253733884183,0.1676100538055012,0.1674525997878633,0.16712870017400627,0.15559041079642055,0.1506999107533753,0.14600554679746525,0.13428400035241017,0.13399742973521978,0.141734631303438,0.16392565509892032,0.16884021524192772,0.181520404835517,0.17776510886732,0.1723668906428637,0.16746132517820733,0.1674229574910635,0.161537626893264,0.14799395877649957,0.1345027673926209,0.12156938120946492,0.09921852735058101,0.07620754852668732,0.06545539054093652,0.051734564330546906,0.05028178132609051,0.057725045007861464,0.06686235384167949,0.07226954064104829,0.08222210880546532,0.07012941363227476,0.08163643271724075,0.09517450500888058,0.10376256058860589,0.12106151373738028,0.1465305441121738,0.17716622278418015,0.22754715202514175,0.2723704247242984,0.3214107362679943,0.3757040187798286,0.41741744818175963,0.470314345398092,0.5254357588871468,0.5712891711934867,0.6192900092510132,0.6744729368940501,0.7295665368035955,0.7744852321267026,0.8234414039605222,0.8786261085598763,0.9292985192732548,0.9704915837311048,1.0,0.9908921404563102,0.9483066114094458,0.8974876239190444,0.8543048583177559,0.7995101101437543,0.7480929421975753,0.7052581772750837,0.6506198689506948,0.6033176230952453,0.5567795706832541,0.502033364126385,0.4589705794569876,0.4079226851409281,0.35450412537594067,0.3130284570233335,0.25918221873824887,0.21418010944723775,0.1837612913852924,0.16844337162971135,0.1704957921550836,0.18747716475797782,0.20042805452865542,0.1907797869994532,0.16392261957417853,0.1314800084540244,0.09635548969055341,0.10002046355482674,0.12620862811049172,0.13430824804103159,0.14627834104148096,0.15069452895159374,0.15070736930891293,0.15070733335929232,0.1503689823837111,0.13865288586973934,0.1339701973061893,0.1339621060523668,0.1339620260468397,0.1331577052469317,0.12021324014908075,0.11721956477351725,0.11721687240139023,0.11778834648177394,0.12995290532730497,0.1220101084046239,0.11722514882068857,0.11721684279582112,0.1172167645525306,0.11644749470498006,0.10222464783838126,0.08572681326240339,0.0767501559261694,0.06304288282180481,0.04051273036001923,0.02701734596895955,0.00885629585074632,8.133770412444008e-05,0.0,PM
0.0,0.005343653160058359,0.03615042624903042,0.09104529501703995,0.13730612300526124,0.1838170901741667,0.2375804798009047,0.2880973841874006,0.2945016678347878,0.33508315835784597,0.3891013076461558,0.42164859220719775,0.44735800682526294,0.4800873085730455,0.5032288099900866,0.5183967472970088,0.5077123608389362,0.4713840664496116,0.4610355230859029,0.43273766413581694,0.4084726085818762,0.3853717913645056,0.38561144651099344,0.3984733033135668,0.4100130902390151,0.4347751219972955,0.48396613956307943,0.5524947131215945,0.6067205829961244,0.669634636255175,0.7389679214294445,0.7974502545953732,0.8446478445377221,0.8108340651834856,0.7587238312981373,0.6936175151195982,0.6376555726108659,0.576722648062264,0.515800269890776,0.47641791804529143,0.44051962625716934,0.42171425576961585,0.42061932805968905,0.4294459237402193,0.46276098661000864,0.5005268454300267,0.5208815073769899,0.4821436616655488,0.44331139345623116,0.4165736678151011,0.3989266915933922,0.3844914088281395,0.3772505995176636,0.3953547940201818,0.4184200366876123,0.44151334011910226,0.4695649898077856,0.4812383249305632,0.45013384783921007,0.42084470624000714,0.4004422969345476,0.3951232900708761,0.37943197283107066,0.3948564303735007,0.37984677107053155,0.37500546718493233,0.35653308343573453,0.346267261572728,0.3336625472185304,0.35077635235634474,0.3611616999348799,0.39116812127906586,0.41432693738346504,0.4188628876639866,0.40058143583556305,0.3897920661620611,0.37680299474853474,0.3916839707030437,0.4276329140899744,0.4633242773219055,0.48141633794533467,0.4978863908638691,0.527962183860426,0.5496457115664026,0.5534143873547643,0.5487559072026631,0.5320132812036009,0.5253358668531805,0.5075578539504582,0.4935660452355699,0.526724008333892,0.5794805717400537,0.639721550836299,0.7087462517897056,0.7625448494126785,0.8259100945911881,0.8943631569928043,0.9467874971814845,1.0,0.9646095907260777,0.9127434784761124,0.8484063211018786,0.7975584887193907,0.745582644109875,0.7106316238405261,0.7139282412604024,0.7365685392663086,0.765607557900474,0.7547717100473248,0.73312901272589,0.7233923435008625,0.7131460757611312,0.7204167337290892,0.6982969366503751,0.6864414699840138,0.6943694849288033,0.7271271070965324,0.7611630431282848,0.7853324362222778,0.7968835132084373,0.8027362015338291,0.8065691805968624,0.7725781336562858,0.728412835645345,0.7088186407195298,0.7124085565716411,0.7344624939910935,0.7518724451309531,0.7376907283713354,0.7093749679541221,0.695517195855917,0.6800459236965772,0.66232952401772,0.6439435489804852,0.6476251691401007,0.6828982058292432,0.7079053895776397,0.7072288092797843,0.6887550252142067,0.6718364691291834,0.6641446502763917,0.6643306010262067,0.6769184316077963,0.6739364175992546,0.6282471617035283,0.5849513948638507,0.5789930431846075,0.6124042556679181,0.6720792020893738,0.725028195261344,0.7937549690550547,0.855866448016108,0.9107699612517166,0.9760230894820516,0.9712042967138514,0.9073544090681902,0.8556229597292564,0.7984028361275515,0.7530433851724441,0.7258538256805167,0.7088368887959136,0.709218119795826,0.7255509496427459,0.710980384184452,0.6772679774541013,0.6529081763115334,0.6420774791875208,0.6419767684687923,0.6400809000110446,0.6229620303611783,0.6381449064898788,0.6539325998727534,0.6455796077904994,0.6225177535213264,0.5948793633131282,0.5553425983244251,0.5240720383856132,0.509636822013436,0.5218190214155976,0.5447116236919447,0.5532783723557695,0.5393318853536222,0.5054818852106249,0.4797257257234171,0.44915432263406885,0.41637897974848226,0.3774571533944675,0.34270151324453524,0.31340703026690875,0.31041223754458525,0.33733637047959597,0.3770663531187446,0.41581144878500753,0.4167224188494374,0.39947820441937143,0.38606336478561865,0.3630362251737229,0.35420419418613447,0.3551770997892505,0.37712817167128154,0.4037423922746295,0.43358770165993965,0.43061477846275764,0.4076262593617792,0.39207132056405136,0.3669400107790328,0.3252056222961306,0.29375324239655454,0.2880644164029422,0.3046493683961069,0.3564371446620016,0.4168489122405714,0.47309601319908934,0.5422717875663481,0.5999158354533254,0.6592704765675799,0.72517641675232,0.7148534641578883,0.6479256435034424,0.5969401811352353,0.5377908251457559,0.4912588241572866,0.4457699588826971,0.40977287798730844,0.3801922353727303,0.37066416458776885,0.35466328131673786,0.36544438907190147,0.39413990168306157,0.3977179126836514,0.3811246575001568,0.3762110139494381,0.3633115461584189,0.34036703506294064,0.33293802868751365,0.3545313113102577,0.38915580056399124,0.42539584311173684,0.4713440034838152,0.521078856948284,0.505690897413448,0.4709680433164447,0.4366954799477605,0.4084628372668435,0.36700594482157234,0.33570742692436273,0.3135543093622508,0.3103371897504523,0.3300429540415051,0.3646077423955796,0.3955334222933482,0.4162569148526152,0.3913206423531541,0.35819132424138234,0.35417263431637735,PM
0.1625637008717158,0.16256834152594157,0.16599353793014382,0.18201798885252218,0.20969496181581038,0.24328306991308768,0.280876289259699,0.328847061707064,0.36688251397291305,0.4158111661058572,0.4566520318689835,0.5007677902872727,0.5396427716062768,0.5854992924847662,0.6232458799264751,0.6718189387509161,0.7135678071581912,0.7398098913496209,0.7207724122012489,0.6875891847582731,0.6586173477599555,0.6127890587003595,0.5714457394436034,0.5272839894537205,0.4798980912281876,0.4413459540597531,0.391720824801443,0.34786627383589863,0.30626182656408263,0.2575998694125152,0.21987500600549348,0.18418229179212187,0.19192920148308046,0.1877736550049196,0.18935060505308998,0.20699824821883528,0.2080463354106734,0.19454530302742823,0.1578388448015562,0.12386145454962572,0.10702049369363209,0.12826074920862318,0.15276389174133476,0.1624393409981857,0.1624836604237503,0.15462045193812202,0.14735094315991404,0.14729508471852215,0.14734262638115103,0.15432782879011242,0.16245940028434802,0.159906357176832,0.14798520372430346,0.14729516886532856,0.14729508471852215,0.14729857263507018,0.15034828389831034,0.1619557577029016,0.15549825827204478,0.14737589349620306,0.14729508471852215,0.14729508471852215,0.14729505433217538,0.1469966191410932,0.13601518342070218,0.11619227953037425,0.08475423150328165,0.0591323396304384,0.04142795694505352,0.046934939063915326,0.06356275909017395,0.08145776074632138,0.10038131907888248,0.1131659015173394,0.11675110261590183,0.11675785241213577,0.11675785241213577,0.1168802450836317,0.1263365064773998,0.13437939027350643,0.15730271803415885,0.18763232976214983,0.22454184742189298,0.26347818411570056,0.3089865174409798,0.3468092348436307,0.39527698901273967,0.44545791614787866,0.48652450762788213,0.5309295130947653,0.5811868598758805,0.6275138599226873,0.6668598699594863,0.7161810845532255,0.7547331819856673,0.8021190802112002,0.8462766443703105,0.8834749143510141,0.8929591250148254,0.8650607986821264,0.8227241788255197,0.7728639317248929,0.7336805767937866,0.6871695954257078,0.6368787709012111,0.5865823132681895,0.5372396231460845,0.498942613971487,0.4513454933121759,0.41232604137547213,0.3656311184221144,0.31568176388355607,0.2763356954114746,0.23019794487124745,0.18942520858196144,0.15802727444069786,0.14741230590009247,0.15025285176464376,0.1703976027917231,0.1777821257508232,0.17379577194300966,0.15159800763619957,0.12468283857754292,0.09145009444003538,0.0826680817090284,0.11767452368549103,0.13695906316828088,0.14706214457626254,0.1472928069769357,0.14487111031858024,0.13277328416149103,0.13202657141142504,0.13202646856532896,0.1320264475286277,0.13177173102216022,0.12174223444766064,0.11676652764823325,0.11676249306636155,0.12018016697214273,0.13161887106385795,0.13202651765096585,0.13277328416149103,0.1448711103185798,0.1472928233388151,0.14729508471852215,0.14729508471852215,0.1472950777062887,0.14710585858605496,0.13788678191076364,0.1299694567214451,0.10925696753256275,0.07837171265707354,0.04513726498695059,0.01869574840331234,6.639398542684916e-05,0.009138049172358276,0.02044346136060682,0.044761631742793906,0.06291584120155402,0.07979946568102303,0.09657663809299466,0.11267523704655202,0.11674587230023992,0.11699439869487227,0.12750217051091406,0.13211501725174024,0.1412647456545444,0.16356103788989973,0.19686119866489893,0.23413940564897207,0.274093518460949,0.31895532376289815,0.36580659671463733,0.4046645105393232,0.4545500967981648,0.5017969496908679,0.540442731796809,0.5901748316603692,0.6404712275227005,0.6898510990157654,0.7277235396046073,0.774978760547488,0.8056328311456804,0.8451204418340703,0.8828122703839547,0.9307844199058648,0.9690189369007323,1.0,0.9927163856646621,0.9571100783698765,0.9072232524852502,0.8578805623631451,0.8195835041029103,0.771600672164666,0.721305236689457,0.6710086187730542,0.6207120008566536,0.570495423388218,0.5280620139574435,0.4850678061937943,0.44071865916830344,0.39965206768829864,0.34949719672351254,0.30463068298240836,0.26402356148882644,0.21769624568554002,0.18539833575272624,0.17784305960932745,0.18001858619553968,0.19937483559134117,0.20828660235185925,0.20535447646794047,0.18393454646312124,0.15875740145219464,0.12726143843772952,0.11087400376350587,0.13932659689233162,0.16031472983485706,0.16256160111480256,0.1625637008717158,0.1625637008717158,0.1625637008717158,0.1625637008717158,0.1625637008717158,0.1625637008717158,0.1625637008717158,0.1625637008717158,0.16252033886584671,0.15549832138214992,0.14737589349620306,0.14729508471852215,0.14729508471852215,0.14729508471852215,0.14729508471852215,0.14729508471852215,0.14729508471852215,0.14729508471852215,0.1472926617160213,0.14462836438251747,0.12868000742804186,0.10550751090193033,0.07395642699334326,0.04531762639911241,0.015182138007176604,0.0,0.011299336217320377,0.026664949014473915,0.0487751863454422,0.07037292214016633,0.0852980226533595,0.09893432846842387,0.1145631126687312,0.11675583680202894,0.11744797141791707,0.12932837802240726,PM
0.11124297544736339,0.10823923245763178,0.11179783954513578,0.12417989382862915,0.12753121194650352,0.13415398903018216,0.13825368072300215,0.1424490644425549,0.13261258948006005,0.11694693819219637,0.09372056605967893,0.07039651451906459,0.04367178504357505,0.020550328637302773,0.017117887645123453,0.0320568437915727,0.04657416316196339,0.06128958740455892,0.07170669095015714,0.0815534024577127,0.08762821360775708,0.09567132920122523,0.12229658007580824,0.16101337225112,0.19523863418059118,0.2332055178298864,0.273549848244091,0.31277650704728766,0.3462713451270454,0.38581558441168573,0.42617055434883255,0.46648927994163225,0.5028628662365862,0.5385105947961812,0.5787905095668842,0.6191462498179368,0.6594962930659245,0.6976843925154452,0.7317198518768071,0.7717662850607654,0.8121219452870407,0.8524771141462295,0.8919242077156204,0.9253865399478951,0.9646296822932519,0.9973100452980515,0.9999999999999998,0.9693667154639478,0.9350841580305616,0.8949737644508782,0.8546180241998254,0.8142622839487734,0.773906543697721,0.7335508034466687,0.6931950631956165,0.6528545180562011,0.6154541760159631,0.5807663303110562,0.5405751079775645,0.5002193677265121,0.4598779048418884,0.4230093633347296,0.40009053932784044,0.36595128025169177,0.3377338609083089,0.3073527778042018,0.2718423973597244,0.23863638074702886,0.20523179752592302,0.17496648201693454,0.1742402490316639,0.17863451555408805,0.18490977110013596,0.20231267595655256,0.2118809572384983,0.19689681250394964,0.168789324366581,0.1544240641325214,0.16032706658976092,0.16099439778773883,0.15799882684145938,0.15226032548170787,0.14703808828731413,0.14085158225250605,0.13486773069257474,0.13856065657936933,0.14352244623098986,0.14948135994057,0.15218864184480174,0.1503671337600574,0.1436672397304024,0.13562197183317526,0.11744707268043153,0.09234714824260992,0.07095276660395311,0.04749086883585085,0.031468648174899805,0.038532799883914004,0.04966600921179509,0.06143760414447241,0.06954306448015357,0.07430633950289,0.08209807557500293,0.09351207394428229,0.11967071426234521,0.15254101568252332,0.19208043123509122,0.23243538387072582,0.27279112412177864,0.31276689418905557,0.3467011499926622,0.3850625419159046,0.42541089984500435,0.46524565889409564,0.4989243275809767,0.5376778529686332,0.5780310345578821,0.6183867748089347,0.6587110074440805,0.6953925437728397,0.7307520404190051,0.7710067300269869,0.8113612397330787,0.8504996269130436,0.883106383061554,0.905446457794248,0.8920168697755433,0.8549873895527578,0.8209549089606718,0.7827728722788534,0.7424228524154628,0.7022241017708968,0.667278851775543,0.6301353903960756,0.5898028971974119,0.5494472855843175,0.5095528385418242,0.47576094432532434,0.43717876497512687,0.39682976039010986,0.3580762350024542,0.32442536178117365,0.28796850746172264,0.25288129852326,0.21361224900786646,0.19021561350439886,0.18742671757006968,0.18882434424129424,0.2056815548048847,0.22788693957893802,0.22981280523259962,0.21430923119828327,0.18956874299616455,0.18413793652052046,0.19063110405467376,0.2029823148596941,0.19998351446767937,0.20359056535868625,0.20507893583672687,0.20943996195542214,0.213847355552772,0.22000886860431446,0.23471453318082602,0.2435049668401985,0.2549370755576055,0.25770311571005045,0.2525276166699819,0.24755360265026516,0.23289747152290774,0.2127582407149946,0.19134243488103264,0.1721263784748348,0.166032543369516,0.17762291895162918,0.18436047201981132,0.1835005376154406,0.17870562497116826,0.17747512880836314,0.17538961289790334,0.2028989607052647,0.2382882214631341,0.2781467081854303,0.3120274690111178,0.3504709353803994,0.3905143534119615,0.42464352250287885,0.4627385524685079,0.5030846598059278,0.5433115670130975,0.5784124318068904,0.6153771758176296,0.6557046150239798,0.6960603552750315,0.7360016485891319,0.7698734935851659,0.8082993936529925,0.8445674748285221,0.861498687642084,0.8403844952706299,0.8012472814440852,0.7615895642360113,0.7280291686581288,0.6889816138948937,0.6486277665848272,0.6085772208082219,0.5745276178262926,0.5363577066798797,0.49600773358568473,0.4558072071010095,0.4208488064183278,0.3837292642263619,0.3456109041316058,0.3122221376786638,0.27901568518070596,0.2434669565510601,0.21184694437900475,0.19746492559726914,0.20292564143473268,0.19376674523719206,0.19977414429597862,0.21859990505547033,0.21798820069529445,0.19908548187017683,0.17218810821136787,0.15470732300888845,0.15751637077016767,0.15474623636263218,0.14451579653203006,0.1395614848042559,0.13469499068566138,0.13348085835331203,0.1267579416498381,0.13139994383691267,0.13458098229570092,0.1346011940747618,0.13459731917365403,0.13264865786780278,0.11963253093795734,0.10637832582497242,0.09766461429746887,0.07888777037983097,0.049460869108430616,0.025418555961961298,0.007621492257553486,0.020399523732611113,0.040211714811724475,0.01976790705375242,0.0,0.018176777342569173,0.045880003318896856,0.05876802128025682,0.08120941793029779,0.07672739662668349,0.05063458735271498,0.03391938394349103,PM
0.10358018034409788,0.10767028590880834,0.11383379542984473,0.10384163320442541,0.10356866753241567,0.10356866753241567,0.10356866753241567,0.10351689513831186,0.0973931838131672,0.08892546642435661,0.09415761049712579,0.10336432207517943,0.10356866753241567,0.10356866753241567,0.1035893699040229,0.10878411398975274,0.11933263162650709,0.13210784719319602,0.1453759589272159,0.1479499196041365,0.14705217277671956,0.1298653772493199,0.10339779046511932,0.07859408793919131,0.06053435279703212,0.0391131147772068,0.020683459971216234,0.014820324351802583,0.014795523933202492,0.014795523933202492,0.014799585750350452,0.01820615016906757,0.0313795164474997,0.05282792997589958,0.08211698323473415,0.12168789413703074,0.1679087945033535,0.20927226766973872,0.2603747481080201,0.31352005322768095,0.3666678960622436,0.4197954090749243,0.46779933710103894,0.5115471137028567,0.5644637434672886,0.6173345756071202,0.6600596236971819,0.7091209380533701,0.7622346662704911,0.8096164026226758,0.8539144963186112,0.9067456028685847,0.9501270311117898,0.9775709202778393,0.9994021725264326,0.9869392568765982,0.9510970532908636,0.9050858287746273,0.8603639318579077,0.8075695022129623,0.763791978741192,0.7158216826974519,0.6628036934936352,0.6181783842282242,0.5711665996821615,0.5180547476448174,0.4686822963025423,0.426220158792737,0.3737990946155967,0.3310887386423005,0.28700528545281845,0.24457804457748233,0.20353678916956808,0.15635346890628243,0.11446303732712027,0.09310045908547249,0.10192993454570143,0.09192274233566655,0.10943092780919361,0.13555811419893793,0.14766550266848677,0.14435229043684172,0.1217456626159854,0.1005046120530464,0.08909862120496781,0.0959363288122268,0.10348530978273818,0.10356866753241567,0.1035836574748803,0.10800710697377403,0.11797837988498339,0.11154498111804712,0.1036606184376847,0.10356866753241567,0.10355862166526597,0.09916095620080467,0.08903457633421663,0.09242798109486872,0.10311011312241236,0.10356862458337046,0.10358701042242036,0.10846186937187152,0.11812409006662294,0.12405358150326151,0.1329925712517448,0.13315946294223657,0.13239663316224926,0.11598653893014665,0.09558136295885289,0.07044114538633695,0.05000458705165167,0.024796990367885297,0.006229172435826769,2.715990020263348e-05,0.0,0.0007528891723818099,0.012227853947297085,0.007229221607975678,0.012791215736540185,0.023742352457656768,0.04935749116850241,0.08577176584542068,0.13725614555581567,0.1787117399997573,0.22946164742231412,0.2729209519215843,0.32119799789925674,0.37344995775755807,0.4149298704027964,0.46583058312879544,0.5188696628513916,0.5639260670618484,0.6105358759999384,0.6636227646509858,0.7167692289259437,0.7677489478558623,0.8092062401961853,0.8614180201972346,0.9130635988577667,0.954061702654649,0.9938880612976173,1.0,0.9706487801739727,0.9292150062200744,0.8782102394768314,0.8462860170319351,0.8089247905778105,0.7613083066026363,0.7081932138911311,0.6593581809793716,0.6164224090982717,0.5635353968675578,0.5103875540329956,0.45724913462809225,0.4082726758135644,0.3654699809931681,0.31488127244957287,0.28447153751835597,0.24561301362844068,0.19785591546260406,0.15487527978703586,0.11124117379869114,0.08999998596267078,0.09002380406880128,0.10470904311456808,0.12797246049590516,0.14753181075059274,0.15755061460191344,0.14275062054615306,0.11784438318521762,0.09310545742695986,0.07772426477668448,0.08708588921086724,0.1002072654046322,0.10356150043866696,0.10356866753241567,0.10356866753241567,0.10340772360370076,0.09451335416014572,0.08890683790316078,0.09703696771064774,0.10202799150675235,0.09015475408532492,0.08877528057610773,0.09095528491074001,0.09718985891824383,0.08909832056164957,0.09764353649046775,0.10352409976133004,0.10566799668809201,0.11762835877884825,0.1293395430241091,0.14994174304533114,0.16938177269577093,0.17743163103207227,0.17184229796350303,0.1475184003451604,0.12104469456244704,0.10241518421658746,0.07639252963143095,0.05282884135872079,0.029686871147903915,0.01652078399995416,0.014738935302021083,0.00840757689090621,0.007531486359688255,0.014718274448731528,0.016110160936363638,0.031024238498682966,0.05948280451032151,0.10681862852645052,0.14897249353808473,0.1936683243800128,0.2401279788890034,0.29169791977432347,0.332892060175801,0.38470452702847435,0.4340302051619829,0.47664034814862566,0.5293606491879004,0.5823275390944289,0.6263037596937764,0.6740420510507503,0.7271433578761997,0.7760413217346609,0.8189887669581633,0.8663166223625836,0.8845666453754362,0.8651863490356373,0.8272342108425734,0.7857409734518415,0.7355860200103228,0.6872833023909748,0.6438470615061616,0.5909216215596031,0.537774020706248,0.48533752175596856,0.4437999928520897,0.40014942989733315,0.35687791213193387,0.3232666951329981,0.2804716838791155,0.23896089781496732,0.1896716697251306,0.14767867517018685,0.10048878290610963,0.08881880674317344,0.08895224543026226,0.10006810014185596,0.12512017577481283,0.1430213466636543,0.14206131163966118,0.11918323294467958,0.08757800625025203,0.07461791564854803,PM
0.0858917887944346,0.0998464646758257,0.10285721072201848,0.10030484661784178,0.09000584257730804,0.07191801835787359,0.04229251177394122,0.01814280916206279,0.0,0.004634611988672432,0.021014690081332388,0.02314333655577072,0.02619499452114682,0.022323619322282218,0.02927381851319777,0.050009572345099285,0.0877215513159213,0.12999173228717176,0.17429541185741693,0.22061056988286665,0.26550296108947613,0.31593775765789833,0.36753108732582174,0.41205471925960824,0.4636385978012574,0.5163861932847094,0.5651908535828976,0.6115106525202894,0.6641216623670614,0.7165712489148057,0.7619350071262789,0.8118403701846577,0.8645863488668915,0.9138376060702598,0.959679072390557,1.0,0.9902985939696736,0.9439757495626395,0.8912455347401833,0.838466749249942,0.7856879637597012,0.732910018106212,0.6810624537589098,0.6364191769183498,0.5852011365631804,0.5324479576518293,0.48307896307744835,0.4372369875748303,0.38471931174661567,0.3322029704767837,0.28630758695207503,0.23699507765348238,0.18488400071387945,0.14017153743893562,0.09511931209888003,0.08046982854358431,0.0916972075334781,0.09640002761287247,0.11282466051910722,0.13578497549025692,0.15300883416808708,0.14048758176501197,0.11170876508420347,0.08453452183438004,0.06535962644837112,0.07726231505706016,0.09209582975925912,0.10420133525907138,0.11342081401292203,0.12052457157480267,0.12410778560909885,0.122136182875211,0.11319322665909493,0.09705725245162644,0.07676513496980131,0.04878555565652354,0.02618832715254027,0.019356714839694922,0.02852032177992414,0.03791474946919182,0.03909899939653294,0.04183631728311554,0.06069736939053816,0.09255070215338335,0.1320240254652698,0.17543026000435336,0.22191219042492372,0.2699587155859191,0.32072473722590167,0.36549193200562047,0.41732030201850856,0.4629427107479396,0.5125575408774852,0.565317774106135,0.6180965595963768,0.6708753450866176,0.7236541305768593,0.7763683654067779,0.8242494939766858,0.8714692007202616,0.9240816924777966,0.9712952314371783,0.9896833929490798,0.9607441654359254,0.9157448247101763,0.8635011975297915,0.8176388644654593,0.7682849068961626,0.715524696792817,0.6628076160858289,0.614849523449998,0.5677261645032954,0.5150403528571381,0.46226302042979395,0.4107827327403655,0.36630610416281084,0.3145552328595036,0.26225548993771963,0.21721068385006714,0.1692752412623877,0.12471339378834845,0.09145758909234081,0.0922690397352206,0.09971615225411745,0.11505021251872938,0.14221031998293965,0.154982924103084,0.1472322716007335,0.11835384563585372,0.09059298656739756,0.08639380713807254,0.09348069978076357,0.10312102139918822,0.11241520208715117,0.1159819715565471,0.11859748544904924,0.11784256825959671,0.12392100292489228,0.11751749182501037,0.09348591678821827,0.07181642656195275,0.05452671118761043,0.051913821647734615,0.0643166043391119,0.06334027984287816,0.0691225124168442,0.06158121838933628,0.068056557925535,0.09286252793578376,0.13046430624355332,0.1771780086525585,0.22398935762100458,0.2686500611446443,0.3188746144652739,0.3636763629884614,0.4144884723762381,0.4657695979851404,0.5103915096637768,0.5621919872600691,0.6149195152263807,0.6631795286078912,0.7100300424053407,0.7626665692077315,0.8129448300703825,0.8580634311784534,0.9099385479156643,0.951033873182006,0.9551267704470372,0.9178270788312979,0.8659812692556477,0.8133722407547359,0.7670755163764778,0.7182471757775648,0.6654974119679435,0.6127186264777023,0.559939840987461,0.5071610554972206,0.45441744429205055,0.4056965616358341,0.3594218699859757,0.31588074206579564,0.27579655948899373,0.23156368725497045,0.18230034232829273,0.13890633175824862,0.11930122633249729,0.12403333314443166,0.12750041451461525,0.14680501083740816,0.16513315815986385,0.16234486556499106,0.136370472112616,0.1118518054395714,0.09489328571382782,0.09884256975415662,0.09719612822917578,0.10274247618656651,0.10679814827787615,0.11060885179108615,0.10529844197784799,0.11237094952812599,0.10056365593865557,0.08467674669004754,0.06616270881679687,0.03867424709682221,0.02863136614697681,0.0284613981362547,0.027388916740287206,0.01919204151134868,0.019562530217016816,0.036520736834946055,0.06692810416109629,0.10638764954345326,0.1502440784246899,0.19623429109435708,0.2432523008303351,0.2931831574613002,0.33848363269923243,0.39083843076797864,0.44107552293628105,0.48622401696761264,0.5365149913657405,0.572670137451373,0.6069582427007743,0.6450527292946484,0.6965157139605784,0.7489504488675789,0.7942366171007031,0.8442097389326242,0.8918280452739396,0.8992019184848896,0.8615478734440569,0.8150566274740552,0.7629493444479087,0.7230658592706622,0.679118468688328,0.6346373832266972,0.5832007002253081,0.5304535150682272,0.4814420994831785,0.43528131245312984,0.38272333399269387,0.3318925002026649,0.28709553015949063,0.23503460505575635,0.18562122631873867,0.1399017225654886,0.09264298005287519,0.05868196234205203,0.06419148260671226,0.0720951096198914,0.08702472423523755,0.10530398088812509,0.11978329255514941,0.10948216651823173,PM
0.11444758081803519,0.11976521671672957,0.14170541029420236,0.18137984989868006,0.22567945599864592,0.27283536176445167,0.3207176109839369,0.36837820112392206,0.4179974354991971,0.4674255410678725,0.5190985117650588,0.5674156729549353,0.6205649156565691,0.6691977422269455,0.7205675909360281,0.7743662616907478,0.8281265834385863,0.8782843011097887,0.9137967408679262,0.8947905135432106,0.8433608084593198,0.8018511447631911,0.7584663719865956,0.7050647859717696,0.6512468274248466,0.597464511021558,0.5466092144546928,0.49754366784022874,0.44390250174179036,0.3901249156323514,0.339424291873371,0.29021748849461404,0.2372654221293291,0.20113869082906133,0.20458747764236285,0.2189115032257345,0.23245602994891512,0.21168087772020971,0.21021007654944124,0.22516177504378132,0.2307516994786576,0.22463908025779333,0.20275414379910917,0.17028393402323116,0.13663491187846089,0.10145374658795348,0.07328420571174754,0.08191206378684224,0.10680525112462824,0.12494213216321248,0.14150972309552312,0.1712645474977179,0.21424354702146187,0.2599895425013208,0.3056527682192056,0.3528212132542641,0.4042786312854991,0.45807976376536685,0.51156514771761,0.5600241797586722,0.6115164152157062,0.6611576974946047,0.7113704079357537,0.7632813065106165,0.8114788371698058,0.8648272688051362,0.9165096469750846,0.9644388135389228,1.0,0.978619324423613,0.9293442741996292,0.8805615888956897,0.8269717811154536,0.7731844337260807,0.7221625664430327,0.6732499561906775,0.6196274858507238,0.5658094018282058,0.5120666993761276,0.46198729570658137,0.41219450486632314,0.35846508184858594,0.30473347407475804,0.25520724986592613,0.224240224789801,0.21643218285110866,0.219660307859032,0.22307745178248628,0.19697498441063388,0.19634280029718254,0.21292241325618844,0.21876680339321597,0.21287516237287285,0.19181997206796697,0.1642628731793101,0.13159474563147144,0.0976434480036239,0.07197510936220297,0.08345611234445238,0.10132768490507793,0.11910327091558259,0.13571605322736402,0.1707947925817741,0.21556842998590775,0.26207165330742765,0.31391876690605236,0.3631276448344942,0.41356717735782556,0.4622384744173331,0.5134331112137247,0.5634419072888295,0.613278032218701,0.6654661668823947,0.7134685203327309,0.7666480209075119,0.8167397400990095,0.8665211007988738,0.919326211595044,0.9608839766152246,0.9606020098759127,0.9153385368472264,0.8628704068720896,0.8149972174398163,0.7619598400205478,0.7081431739891093,0.6547153336962499,0.6063917705990547,0.5546059880199301,0.500798609643863,0.4469804933018746,0.3931623769598853,0.33934426061789713,0.2855430995022905,0.23509422451405504,0.21417761438103744,0.2201683379496775,0.23970818922453274,0.2377384827694906,0.22154654769592086,0.23463353529681275,0.24339872034288845,0.2385084917988447,0.2228582170116722,0.19755327074561158,0.1644278817521201,0.12502508834274062,0.08744064394544382,0.06260281507914245,0.06906005606605481,0.08164141183062124,0.09028087611408964,0.1193108605241131,0.16635543050789048,0.21174115414278205,0.25892498597950775,0.30716358811878974,0.3554241262069133,0.40414578405968027,0.4549037960018816,0.5042951258212822,0.5547569234128762,0.6078005998091565,0.6557157892768402,0.7082341769024658,0.7605202429496538,0.8085176450865637,0.8610581212767168,0.9085810564868855,0.9442412220002692,0.9243100219595357,0.8725777135005939,0.8187638758654208,0.7649457595234324,0.711130228782024,0.6583581194814301,0.6105169319332817,0.557599698521662,0.5037833232018234,0.4499658076010635,0.3966961109660214,0.3486750257200393,0.29643354009483125,0.24333703311143706,0.19576019132837041,0.163640330448116,0.16950374739728935,0.18273415864948683,0.18513393972022008,0.1541705228053576,0.13853984905176575,0.15859710771983337,0.17600699422204102,0.18665594887704873,0.17965419200166055,0.1571130343193916,0.1250883626651642,0.08427094390868328,0.04683818857231703,0.012974175011268407,0.0,0.023144904886266415,0.04961575808732577,0.06979615902681857,0.0898796134168296,0.12521568112529846,0.1689519591549029,0.21383869535770272,0.2605571666671491,0.30822663468818745,0.35860203794749945,0.40754697330078815,0.4606571830499966,0.5085951537403015,0.5533130673223507,0.5952314457822094,0.6448102326264498,0.6976402588989359,0.7454824822948973,0.7982378950953315,0.8502398163536311,0.8979330027327401,0.9282943148232676,0.8959446536324231,0.8470017860145751,0.7966919938184323,0.7429336167530305,0.6893969323332594,0.6408337444072938,0.5893884417676571,0.5355891770538495,0.4817716473775675,0.4284986627340164,0.38047127586613416,0.32823826857791194,0.274427510379712,0.22122101038394604,0.1732596211106734,0.12481549369225697,0.11021192005617908,0.11335676705747821,0.13679880075572126,0.1461626808032248,0.15806065271962555,0.19308105142266685,0.2310211865215701,0.26793964850020613,0.2961033869287506,0.3094786846672597,0.3072017680354686,0.28371821996610014,0.25133155978120514,0.21566815959320262,0.18184114847764832,0.1587589123191826,0.16860822393437203,PM
0.21582654513225852,0.21582654513225852,0.21582654513225852,0.21582654513225852,0.21636935688296433,0.22522597410222267,0.23012084754699402,0.23831284149911802,0.24271887510568502,0.2501799038621104,0.2584908510936377,0.266106912918747,0.27265218245579304,0.2610424621151466,0.23640263687995788,0.2086687112052399,0.18035841201309544,0.15693515397220015,0.14972089304144598,0.15983347875445575,0.17263994484875034,0.18214511522125876,0.19147217430161656,0.19667878117670234,0.20721328022588614,0.2178773490162389,0.22677648438265496,0.2284555300905069,0.24062915071521873,0.2603575130979534,0.2875502131334551,0.3167912020704404,0.3488823248365589,0.3877026830188488,0.4213450526486755,0.46193154778667966,0.5043050438735743,0.5397289828336567,0.5781362550172655,0.6206521893073422,0.6630535915521427,0.6987192312811252,0.7368700210951784,0.7793766165152916,0.8218021392307107,0.8577094797285933,0.8956037871730904,0.9379476895499235,0.9733233634812775,1.0000000000000002,0.9885964261442897,0.9515118741211428,0.911231634906098,0.8774130627914334,0.8353443270963734,0.7928088670547508,0.7502734070131287,0.7077474695036459,0.6683932440771734,0.6338394278851325,0.5915489798051794,0.5490135197635573,0.5064780597219347,0.46408273884335416,0.4286421558025493,0.39026822458964916,0.34775363251398583,0.3053236158275696,0.2701263728510166,0.2511100898813883,0.2500787840078811,0.25011408215908437,0.25550201986499865,0.25828365359610106,0.2400745387923957,0.2159278968307221,0.18608375893218954,0.179619536433816,0.20234033802421303,0.22120498674178246,0.22716830447254877,0.2249038289099714,0.21625522577674916,0.21575845725690468,0.2099031976739456,0.1964905531030523,0.1930039290699892,0.1930125871811359,0.19697018855312431,0.19659685226263934,0.19300753661630043,0.1929917192151771,0.1929917192151771,0.1929917192151771,0.1929917192151771,0.19310165654138034,0.19972977608512,0.2043709286822457,0.20440913217371803,0.2044949490293022,0.21083959825845233,0.2157790027708233,0.2155018850281052,0.20202866488470406,0.17857080390848035,0.15336222329508287,0.12844005136802417,0.10356768305316288,0.09179308713497436,0.10256230068843131,0.11664046050507659,0.1276106346247694,0.13562068435026942,0.1379399057476649,0.14678097322904948,0.1473543152530863,0.15250526414531484,0.1605682993063866,0.17766937535792438,0.2043722584743859,0.233260987381966,0.2652096785608793,0.302319845674474,0.33568965782248816,0.37708022013222453,0.4182487388554519,0.45162775911752395,0.49327007889842833,0.5357096750225903,0.5717852412849733,0.6095024540045759,0.6519941072327489,0.6941199084809162,0.7280409077861842,0.7681890114031809,0.8107175646303044,0.8519310815897139,0.8850343611207647,0.910160450288285,0.8951137785231931,0.8613736579255613,0.8225678716827634,0.7800482290422643,0.7375360303001723,0.6992313510643859,0.6637107317967439,0.6213238018343159,0.5787883417926925,0.5362528817510699,0.4937743029408457,0.45648114038747223,0.4200022181997791,0.37752845454312145,0.3349929945014989,0.2924789279854145,0.2541229522757169,0.21872282686237954,0.18575280219101065,0.18157788928450835,0.18160383233374233,0.1866545895605285,0.20003372355170712,0.19943708153526174,0.1786317599502576,0.14981423588762044,0.11829539269012646,0.12609393076096875,0.15090954698012116,0.15865398027729727,0.15873948033955498,0.15873948033955498,0.15873948033955498,0.15873948033955498,0.15873878426596666,0.15731633547692847,0.1482643380034736,0.14730440940346057,0.1432275180193585,0.13606076363912267,0.13329870400212585,0.12471723727202977,0.11762690351508165,0.11309502552692385,0.11304469943186812,0.10876262215212096,0.10179612153192075,0.10165241554685123,0.10196696508512604,0.11041071383714063,0.11272453817144301,0.1019514678807405,0.08047017966133962,0.053294317918118894,0.026900946287795158,0.0033654172727872744,0.0,0.009290433545426025,0.01779489728235828,0.02171765581209506,0.02176077242343366,0.026724724430932767,0.033057436632341064,0.033412246133770696,0.04251811755891732,0.05994558445957354,0.0856334182451659,0.1141205814511621,0.14600792911408367,0.1823961101036018,0.22456493536327016,0.2587320303250702,0.29850965745315583,0.3409565144827953,0.3772049475703121,0.414740424504388,0.4572253794633643,0.4983499792555255,0.5317456466839359,0.5734158248084349,0.6159501195133756,0.657258763272156,0.6906094438203787,0.7321403302269005,0.7746667265179787,0.813970682143571,0.8449213635105604,0.8519354784177768,0.828404916452379,0.7941600754122671,0.7558485885960156,0.7133347180296143,0.6708116489425573,0.6320925260685051,0.5969586280311046,0.5546102908216655,0.5120748307800429,0.46953983218046136,0.42800894577394044,0.39465826522571823,0.35334962146693827,0.3108153267619973,0.26914531287958,0.23640517808753492,0.21658567129680595,0.21582654513225852,0.21582654513225852,0.21573351140561803,0.20789965815530476,0.18534402990103493,0.15713030487591317,0.13205241634593445,0.1434385740058377,0.1658945663887066,0.18202315092586407,0.19189420641069943,PM
0.20472162111449754,0.19378530781191894,0.17267549734194731,0.14578599953420746,0.12093863234155156,0.08773152852284238,0.05939541935005943,0.030942846650326983,0.009303780666720884,0.0,0.01451008240880447,0.033326244269461736,0.05396398019436832,0.07242014479708692,0.0824893206966626,0.09346745235449316,0.10465715536555242,0.10649195069113415,0.10966370431394812,0.12412533494803624,0.14428338763524362,0.17822408640618348,0.21477485968516308,0.24985325706861183,0.2919755351472928,0.329010944736422,0.37282206035753984,0.4111184139910493,0.4519477541897994,0.48826318285227877,0.5241589165227378,0.5551145863813194,0.5787980380390205,0.6083893478960005,0.6459693223725063,0.6872361513282008,0.7263565412673556,0.7715845883344843,0.8081833141546573,0.8533206287745723,0.8959312695024273,0.9339103863229525,0.9679702937383066,0.9726512107045824,0.9456026279405412,0.9030573194533555,0.860108128076212,0.8222124679922371,0.7759669421118127,0.7294581990272289,0.6829494559426454,0.636440712858062,0.5899319697734791,0.5438802148088258,0.5064668822448286,0.46283409710219137,0.41643716044901935,0.3770806218563043,0.3357120998584977,0.28940705469094286,0.2507570460165611,0.20870449827235515,0.1700004347724,0.16401315852210918,0.1686149450894454,0.17130822201493845,0.17446858568207113,0.17014841648068013,0.18008775596467852,0.1819429883238215,0.1917154885339214,0.19349491949747288,0.18864889117990846,0.16792447054077786,0.15841278250222213,0.17169871937327108,0.18080309022755148,0.181079166965451,0.181079166965451,0.181079166965451,0.181079166965451,0.181079166965451,0.181079166965451,0.181079166965451,0.18106944491954002,0.17780079247761393,0.1690128208865842,0.1754416894001578,0.18197280606304145,0.19184337371375215,0.19350988795569424,0.1935107492364876,0.1935107492364876,0.19323467249858806,0.1841094956516256,0.16413043109429748,0.13260512220423215,0.10074049164251386,0.07712887934051249,0.04929012942181954,0.025978968740064,0.02146884359685064,0.036351193516140023,0.05649034033753808,0.0702341559174573,0.08561245104664184,0.09521804119639032,0.10538416153410335,0.11178167535014172,0.11890557049214512,0.12592246112222405,0.14058137385959069,0.17019000932190154,0.2038754965749756,0.23991099890796552,0.28269876891912227,0.3200934724583264,0.36200725915187504,0.4001771208109448,0.4377416317713705,0.4759086332069489,0.5134450013818033,0.5421428091087634,0.5654605630627645,0.5940022996546708,0.6314283830192495,0.6728631103270468,0.7137900553476448,0.7535389461958848,0.7985874880266233,0.8350915332138549,0.8778335441710017,0.9046550210982425,0.9086783049565705,0.8780562714887548,0.8387399053620233,0.7980128251662479,0.7515433896060155,0.7066829024237002,0.6699921950161276,0.6244507142320621,0.5799353723576701,0.5431354368150607,0.49735918873586393,0.453326767446786,0.41627867861399337,0.3702591414494385,0.3248874207562349,0.28835768112661175,0.24316322723192907,0.19714029206199357,0.1700173438498631,0.17260090097868575,0.18083960823889123,0.18126500902585874,0.189124744434922,0.19349522334551028,0.19461222897017794,0.20311912118137632,0.19465829499285525,0.19126941130403652,0.17417582252600528,0.17131390306410155,0.18837551975596845,0.19347377777626673,0.18959479216265618,0.1897827505358627,0.19263437988311805,0.18273887630267693,0.18207003071048944,0.19189818164796502,0.19350992087088392,0.1935107492364876,0.1935107492364876,0.1935107492364876,0.1935107492364876,0.1935107492364876,0.19442510777041444,0.20422014805057542,0.20599832079903124,0.2125294269617093,0.22389502150191976,0.2246684539361692,0.2177594416404347,0.2030477865733873,0.1798493410783053,0.15256916291728229,0.1187105448222221,0.09018053069431442,0.06219259529576182,0.03698754117056713,0.01992066935803538,0.020540214284702207,0.036438564415764096,0.059604725046519924,0.07926102546137481,0.0908083866233238,0.09404853331104879,0.09406699353698111,0.0975760469475846,0.10637945268881199,0.1177611161192258,0.14696526457963333,0.17919215154851798,0.22019576272736496,0.25740214529697236,0.2961096669471248,0.3374176627787604,0.375274422650959,0.4161747161118041,0.4529286719511718,0.49555653867700067,0.5304690661851976,0.557378801470948,0.5806894383462347,0.6113677585157833,0.6542397430287774,0.6913766316168684,0.7373125764834774,0.7776387061801986,0.8180160979375224,0.8626456722514446,0.8992998971772439,0.9440222624324763,0.9797749067437234,0.9999999999999998,0.9833633552005268,0.9420917508839215,0.9046291713385439,0.8610833598418115,0.8145787585852446,0.7696087213648817,0.7329525070525842,0.6874833271238463,0.6410756197941117,0.601483130038974,0.5603551487169296,0.5138812803754973,0.4692146868084215,0.43701280993828884,0.40960287256647665,0.3651396239010791,0.3204079598379035,0.28367701048584437,0.23804506454861207,0.1916689210201381,0.15912701400800144,0.15869077925147068,0.16810604069928448,0.1686475133781704,0.16865006430535945,0.17103317158717313,0.1805195038542069,0.1810790627340173,0.181079166965451,PM
