0,1,2,3,4,5,6,7,8,9,10,11,12,13,14,15,16,17,18,19,20,21,22,23,24,25,26,27,28,29,30,31,32,33,34,35,36,37,38,39,40,41,42,43,44,45,46,47,48,49,50,51,52,53,54,55,56,57,58,59,60,61,62,63,64,65,66,67,68,69,70,71,72,73,74,75,76,77,78,79,80,81,82,83,84,85,86,87,88,89,90,91,92,93,94,95,96,97,98,99,100,101,102,103,104,105,106,107,108,109,110,111,112,113,114,115,116,117,118,119,120,121,122,123,124,125,126,127,128,129,130,131,132,133,134,135,136,137,138,139,140,141,142,143,144,145,146,147,148,149,150,151,152,153,154,155,156,157,158,159,160,161,162,163,164,165,166,167,168,169,170,171,172,173,174,175,176,177,178,179,180,181,182,183,184,185,186,187,188,189,190,191,192,193,194,195,196,197,198,199,200,201,202,203,204,205,206,207,208,209,210,211,212,213,214,215,216,217,218,219,220,221,222,223,224,225,226,227,228,229,230,231,232,233,234,235,236,237,238,239,240,241,242,243,244,245,246,247,248,249,250,251,252,253,254,Target
0.6293333475537519,0.5952505676508677,0.5642922447995566,0.5399373312911315,0.5015887241306514,0.5035740418205048,0.527796262443057,0.5015468515021144,0.46997133495889987,0.44763503331915544,0.4628806406012034,0.46303956754849196,0.46303807574015643,0.4604288776424328,0.430621742777924,0.4009339960893117,0.3935098291670611,0.3654955439602512,0.34688709519074923,0.2944275436798591,0.2363508703367847,0.17827161616529175,0.12006626850127411,0.08760573272056682,0.05995300393997294,0.049490748324036105,0.0,0.028498700449365977,0.10274338085748624,0.18975791542611908,0.25084345736348723,0.3315811418545431,0.3919570720530894,0.46113620158504975,0.48980931626193414,0.4508247071244673,0.37830444733418744,0.34396670202790514,0.36130061724379825,0.3436917677884539,0.32806589658419405,0.3113063348819365,0.32698026540294567,0.34965381027939646,0.377807561018356,0.4080887751049307,0.4588304988311096,0.4776383380308662,0.5209141603816194,0.5592448867960389,0.5640242063884662,0.5614919609038989,0.5337256786726225,0.5539854131520805,0.5365315861126101,0.5002051833053072,0.48227215375067,0.46897952540199395,0.4952752409681498,0.4963733986353214,0.47500490357133973,0.4879515442937148,0.49669159023917686,0.4965930662757492,0.4815188731614386,0.46314991968127384,0.46303956754849196,0.464462282699329,0.4973731181569816,0.5227403965926678,0.4853230763384593,0.4798048204180354,0.4965693087242844,0.4966989357883147,0.48920870395423055,0.4635998857720356,0.4630517407045085,0.4764358752047819,0.49354822173630364,0.4661414493948559,0.49974296086335634,0.530076604039083,0.5347862958062866,0.5621252895102193,0.5646006180101217,0.5903835239098019,0.5990851073531056,0.6319649479229836,0.6634572369168019,0.6650164534509511,0.6648987528429675,0.6491400324330723,0.6314331364490036,0.6299936446632399,0.5997338747395871,0.5640647618271792,0.5346862899848599,0.5303649724113937,0.5286613541407412,0.5044195156217999,0.5275316594478738,0.5303636148658084,0.5303651961826441,0.530378085406662,0.5444560571418515,0.5638655897948635,0.5638921423523833,0.5456468371987944,0.5037342718381463,0.4865825813118647,0.4185789708381735,0.3595920578368714,0.3015145341630463,0.2473812865994054,0.2275513592186078,0.22740631194096572,0.23632746830450468,0.31115576217278385,0.3996742700104665,0.4882392348224771,0.5612409100715352,0.6318939254089893,0.719761045832227,0.7822939644598481,0.8309908509878978,0.8221243925983606,0.7641736771967409,0.6919314884595904,0.6049414377683373,0.5438965000501899,0.5045041554065381,0.5331560115475895,0.5581089749108905,0.5323973446545551,0.5435899167496654,0.5638551085221586,0.5640383934857347,0.5759193673768515,0.6250606368161815,0.679364532178873,0.7086409310061645,0.7316522360613131,0.7122993785247376,0.668070224597197,0.6342247144903723,0.6565908905178999,0.6650081613950096,0.6550999498499763,0.6035881610223974,0.597692495642133,0.5975940867542251,0.5835466845832897,0.5641846448589822,0.5639501387280168,0.5514436390401478,0.5355873869784693,0.5623241684578177,0.5640421080884899,0.5795046960864259,0.5975451741482676,0.5977035350238147,0.6116084576975673,0.6311906139828114,0.6366747911503596,0.6634305111036687,0.672008898865081,0.6893534418568894,0.6655240832104719,0.6713376636817046,0.697433711996676,0.6987921911356123,0.7177432082448734,0.7612140555738369,0.7973722387329873,0.799676736159685,0.81121789319472,0.8336399302801123,0.8608941427571741,0.8906619806119496,0.9011826214676866,0.9268252900762235,0.9339260103047033,0.9117443946034491,0.8996957277607134,0.8718518126078942,0.8364323357424075,0.8333295702789973,0.8312029843669384,0.8073848444754876,0.8307610393276601,0.8081103722361744,0.770460008003524,0.7660054931255145,0.770951026588313,0.7970987769796691,0.7746596913371313,0.7931498168595095,0.7996259108252302,0.7894156531436458,0.7699692494313206,0.7938541516514279,0.7440275994596295,0.6853693181265088,0.6267343380632582,0.5754641992995024,0.531111575932969,0.49603126438546585,0.466835630788216,0.46314949665047234,0.4875908036451957,0.5676488207264674,0.6281183013947569,0.7143797048563982,0.7915332895428557,0.8575976088796748,0.9147233030337754,0.9299190045080765,0.8900889393698863,0.8180807937484991,0.7808316121520873,0.7987357681666758,0.7826364358451308,0.7660329690212215,0.7705853136419751,0.8084431705848134,0.832884667696292,0.8520685596411592,0.9214895962443057,0.9342847531474314,0.9504760048570411,0.9991503088356914,1.0,0.9723213026781066,0.9402408086736216,0.9045392742068437,0.923618258483458,0.9083334331979174,0.8710886180148352,0.8535249967172156,0.8110011194296538,0.7827041438176225,0.7660355402560262,0.7658927858063063,0.7505895069237152,0.7303405493415704,0.706394492009589,0.7265948174368919,0.7013659485564325,0.7241403443448649,0.7197993897877399,0.6757005922309585,0.6478797962701375,0.6646627229350761,0.6650164534509511,0.6650164534509511,PM
0.20668928775537054,0.21734150986688494,0.2628223621112551,0.300849777293807,0.3265820397157051,0.34277518738259793,0.33818349656033764,0.33363228078312357,0.3122069326667085,0.3265219719994388,0.3114780431514008,0.2647991977398716,0.21969310203421832,0.16637025590841548,0.1159444448313498,0.06677306674658157,0.02365243207121237,0.0016973812871436955,0.006493802864927289,0.05797679612922524,0.11177886391127201,0.15946389938755168,0.20659917284939633,0.22570088162175095,0.2542898544580767,0.306114354223495,0.3354833323999378,0.3379244818510929,0.349949727244669,0.3744509581006654,0.40135874947995065,0.4197399703242515,0.4082697861898903,0.3685124708451806,0.3266731295936167,0.3018064633705664,0.2675795868165016,0.22313082502169523,0.17965503097808266,0.17779107104652292,0.23047951672875477,0.2733282464897089,0.30635651184115664,0.310425900230062,0.30640908937598743,0.2724319261978696,0.20658266575600415,0.13923126579806588,0.07192424251923102,0.015138618430361461,0.0005544938390631415,0.0,0.010911057175100325,0.030777282066537293,0.07061831433091026,0.12013562541141853,0.15772075350938897,0.21231906578731685,0.25319580219443294,0.2900964775433801,0.30970051134029175,0.3114688859451129,0.29505755461620753,0.29065063017197224,0.3264821403519682,0.38095895311167416,0.43750701890283183,0.4946528611770935,0.5553096439223171,0.6217726938076673,0.6763672247196193,0.7395316425796277,0.7859911213849275,0.8414855951180793,0.9030864885433529,0.8871584037567826,0.8325664522261782,0.7700139651177311,0.7027570758209021,0.6432432473248748,0.5847334727674731,0.5214994865223948,0.47033392150583575,0.41988129160801835,0.37353848983289595,0.3362541499242053,0.3059457175167579,0.2926107973957306,0.29589312931380674,0.2891070019485653,0.30223490848120305,0.30878156857525463,0.3292158959004481,0.3462778009527634,0.35983833935886356,0.3970940186382883,0.43536814239273225,0.4725298640613529,0.4995856871805473,0.5288622341311697,0.5213664393383408,0.4827098189100125,0.4424402146180264,0.41065036389848153,0.3769600230111858,0.34884039249585275,0.34486405767235606,0.3392091001695263,0.3235360468163857,0.3287257108071926,0.3453712207570212,0.3542972363861634,0.35162075240091717,0.3424137382758148,0.35365778257189806,0.344143031635606,0.34520147748288865,0.354302904608911,0.3579318808245042,0.35803548172260413,0.33859441370399646,0.3375710742932383,0.3448577712820686,0.3542928861033934,0.35789046837168925,0.3790804561232535,0.40993536824703103,0.42890719845983183,0.43254746642476194,0.3967511248513844,0.36228419891291264,0.3404498850965325,0.3235517529776337,0.3020828351654914,0.29060529344366826,0.32409592687338984,0.37540131625194695,0.43358573532196454,0.49064174837169894,0.5472366538312792,0.6085397627767821,0.6758570481179751,0.7402943237162534,0.7946009673324612,0.86102937270224,0.928380829446481,0.9939390263546506,1.0,0.9361277629135043,0.868788834674076,0.8060141876198843,0.7504582971946516,0.6836201929833838,0.620731346560921,0.5652707029227955,0.5029227698314425,0.4557541355948005,0.40179511126201684,0.35677951940359254,0.3295155991737122,0.30821334451819515,0.2916921221714732,0.2892722586479395,0.3024651954034381,0.30920609483789097,0.32584406931884624,0.34731816939790017,0.36821756056388644,0.39207706465770364,0.43538187377076687,0.47417145127622673,0.5049460192991462,0.5368870948693654,0.5514896451200664,0.5243392430038365,0.48360609420260525,0.4432227955079129,0.41415559950761116,0.38325871154690905,0.3602021891264173,0.3544284485910807,0.3543997501622478,0.3543997501622478,0.3543997501622478,0.35441715549404185,0.35886032814575053,0.36454861156840046,0.36588179405568955,0.3575733710221347,0.36360587488884866,0.3550318907568406,0.3436681872087384,0.33754622276708135,0.33752544346853064,0.34163239566004355,0.35837278076153156,0.38186629554730045,0.3739872353531175,0.3623096721762895,0.36031160131545015,0.32840186522442405,0.31784250821278404,0.29588762305314376,0.30685520045187564,0.3476995287805318,0.4023964510216578,0.4591391685148545,0.5128824886143462,0.5778090507982769,0.6339292521315119,0.6959420131455936,0.7632726286452383,0.8235508235414009,0.8101258211562947,0.7465848384022356,0.6793532437925904,0.6214795890419174,0.5614785240688724,0.5035753849216369,0.44876022351791,0.40004123443508455,0.3635763087130943,0.32967335198885817,0.32013851114685243,0.30780933796633336,0.3144025400860082,0.31248538428434136,0.3208385830063878,0.33947774873716874,0.35440361261840314,0.37219082513757584,0.40833723683230794,0.44276155381236126,0.47643777754243777,0.5101137339517283,0.5437558905492041,0.5682792418366032,0.5413364112668355,0.5051027739239551,0.46474404029786154,0.4275649627432534,0.39298317036252195,0.36997228488117706,0.3400160957634304,0.3375141785743532,0.33708449044080213,0.3254472995175446,0.32304755166909427,0.33624048842459286,0.3429461140271579,0.3500667213505362,0.34351927988179165,0.3540436505545168,0.3540197235798761,0.3428428608144314,PM
0.06957292729238329,0.0821731731212818,0.0780046199386617,0.07307179120775587,0.08758620287280117,0.08837864666876127,0.08837865970890268,0.08837865970890268,0.08837865970890268,0.08837865970890268,0.08837865970890268,0.08837865970890268,0.08837865970890268,0.08897802363488916,0.10309669008266598,0.10542778758122173,0.08967949199191949,0.09451673578501785,0.10712232056478088,0.11064578964522509,0.1254094617142001,0.11963769374782895,0.10753866390380296,0.10383082705336522,0.08913290485491032,0.08835404573123506,0.08205978231240785,0.07067879466762905,0.08627812744089258,0.08837967031986249,0.09221812274712171,0.12152496457694095,0.14186820657297128,0.18148617802464395,0.21707946541168566,0.24736956003390365,0.27764207623987813,0.3080250579763648,0.3443937549636975,0.3547680397517734,0.34532209996784546,0.3250976644671133,0.29907282695330917,0.2640330193853395,0.23168010559888863,0.19407980391204793,0.16802022654216664,0.15315080228705602,0.1313532721368036,0.10890980569633957,0.10733316066657528,0.09795242346638844,0.0779518590624857,0.06372717694999874,0.04853946685070509,0.024505125169265618,0.0,0.03486582954779749,0.09502004012641851,0.14576360689575374,0.19722247216681277,0.25769357770158363,0.31823601949451197,0.37579756186082935,0.421426336955093,0.48083422359822325,0.5413781845676255,0.6019224519803523,0.6624667193930782,0.7223027874279122,0.7683210394825983,0.8250683542827484,0.8856065372407391,0.9439333326458907,0.9855848386065702,1.0,0.963686449081909,0.9035239813853031,0.8437186238611742,0.7976886166055244,0.7409247275502091,0.6803836419319866,0.6202193154769446,0.5734613846530894,0.5217811640823715,0.4892781477324051,0.4347556819455556,0.3742598924437326,0.32093409008679163,0.2720602858305763,0.21164626936341868,0.15601979484638973,0.10941627342083393,0.06461337779070009,0.05182073742400117,0.06953881550032737,0.09462532308929328,0.11966378652343224,0.14965725088403792,0.18545281024231208,0.21619352847505446,0.23885932276844635,0.2357985891942862,0.21605857501665726,0.1878238409716544,0.1575793457889949,0.1274044778331782,0.10820297934877576,0.1074191976277854,0.1115677236671968,0.12589679974978818,0.12645212010408224,0.12645212010408224,0.12645527581830462,0.1302203146889651,0.14474229084914558,0.14548885030167202,0.14549015431581358,0.1481660896272219,0.16323960540791704,0.16861601514709745,0.18297639208684036,0.18348461513791525,0.17431510505883008,0.15990739956110334,0.14598256656165365,0.13897183417015047,0.12672156063592377,0.13886240284434503,0.135746401304897,0.13514900148835451,0.14534163830102376,0.14561701317050568,0.1633910541090966,0.19879279237293757,0.23695039189149547,0.2685031119269987,0.29876197407425353,0.32905973525460785,0.3589935947355962,0.3736213706288489,0.3686562177526729,0.3430214589389,0.3223159170197434,0.2998695798307187,0.26973932300961145,0.23819864803036195,0.1942464162622306,0.16909219498502326,0.1467858732633336,0.1370862070205865,0.12249010736503507,0.10312163741254032,0.0885381814744739,0.07530045860307233,0.06671465925384013,0.050254307447647584,0.02350914336164278,0.009312080253482513,0.05108432040279398,0.10277024734804785,0.1632564651527555,0.22380073256548094,0.2836828463684302,0.329873005263531,0.3864040175529042,0.44694107201879785,0.5074853394315233,0.568029606844251,0.6278238150898887,0.6736857881987448,0.7306297416450542,0.7911699462975679,0.8517122316087988,0.9091817370546167,0.9539234360899047,0.9818592989533084,0.961042675315932,0.9174007494295582,0.8621336912103112,0.8157247417910467,0.7557840242832241,0.6952397568704982,0.635319655887431,0.5891739085852263,0.5326401118311628,0.47209941741718175,0.4115551500044563,0.35101088259172863,0.2904666151790032,0.22992295413285158,0.1708666475072178,0.12562222281775615,0.07470540027427619,0.05142190314001116,0.052553976221584975,0.07085876111763767,0.10016490841999559,0.13690171285972985,0.16725323552914295,0.19597562324011575,0.21594360714163763,0.21991332777187456,0.19106597541209558,0.15927002406237056,0.1371607731214457,0.10787429747368549,0.0788969673675819,0.06939830119749812,0.07032221751897438,0.08582518120303151,0.07995652825845445,0.06943617667000757,0.07255696368301301,0.08704931389293735,0.07634444819166752,0.08611612238260946,0.0883773882951151,0.08838142421888273,0.0919153797375456,0.10461419556953189,0.08987894980246258,0.1006735082373833,0.1034067854190277,0.0890491852765205,0.08847219674701323,0.0990709951607407,0.10737697511126498,0.10745016550980102,0.11513091895073524,0.1262505039316597,0.1264213557620666,0.11932087389397861,0.10753454090336279,0.10741538990649246,0.1071895941021701,0.09569151168400758,0.09291114136290313,0.10699917950095905,0.10776913725093484,0.12372926530601358,0.15306301134854916,0.1784680644837473,0.2069195446829073,0.2394503125958698,0.27518602957700455,0.3132917837929803,0.3348161826944822,0.34634328279290916,0.3523947859542882,0.3280863451319993,0.3026507013960358,0.263034686555526,0.22865554243065178,0.20844596028185292,PM
0.15154343743463983,0.1523104829885571,0.18330249487507677,0.23932209516071845,0.314502177965454,0.3626927913585205,0.4130415767695297,0.4435245918333206,0.4545751252601047,0.44992299836478056,0.41663377642732735,0.36387734660115223,0.304313047620028,0.2352856039163651,0.1786497205001707,0.1292321630659239,0.06434063079105767,0.024686626932004962,0.001618120129398104,0.001344947800784979,0.040547444946430033,0.1155266868982947,0.17150463980196884,0.2247492658958783,0.28316485136474245,0.33162540534537444,0.335084032138214,0.3771830936517575,0.40374851924201716,0.3893006545384985,0.4008880669400585,0.4260190218679245,0.3792923282681464,0.30224597567806466,0.22478990387812958,0.14733383207819584,0.0701073116051476,0.013721386950062975,0.0010192627188616576,0.0,0.002141941290574767,0.023051783612812127,0.04497259944792242,0.08597115983226189,0.14939775110156583,0.2000332329658252,0.23792317654225315,0.3082384190492746,0.3536696057774913,0.40323562641785227,0.44148546177155357,0.45456018504644113,0.45069224007519093,0.4311421576305725,0.44479265331569673,0.4545938703463803,0.45696407518383975,0.4887084090304388,0.5309529636358357,0.5664046533862179,0.60528261073395,0.6261162395617546,0.6551314293971475,0.6922842463513112,0.6866116084036462,0.6553995170410203,0.622106257044392,0.5764026415029107,0.5516058636382382,0.5308429269206321,0.5100667868347886,0.5055084493185511,0.5227498940875317,0.550869719060556,0.5888667551394282,0.6097347785746083,0.6608295662748707,0.7176110522518147,0.7929098113713535,0.8510992035563816,0.9235807331226913,0.9985973173408618,1.0000000000000004,0.9252641984016958,0.85243744457089,0.7944323260298156,0.7192163085838899,0.667714165321192,0.627819466703277,0.5780721800801678,0.5403083664030177,0.5230008905641594,0.5033150816442657,0.4821941339099607,0.4799015936014408,0.4852646718994267,0.5045454401369871,0.5210206480673043,0.5520325843515761,0.5628578252845107,0.5807552046157496,0.5975396832379647,0.6061531176798511,0.6065846102945609,0.6232952374969822,0.612057692792709,0.6301937817664949,0.6233985680672096,0.6065292798617645,0.6061768661104128,0.6061768661104128,0.6061220776723011,0.5943993095728204,0.561727132873536,0.5648543869954357,0.6027844929671144,0.6060822630301659,0.5909837017598369,0.5619171413482342,0.5794006130902649,0.5809194513930431,0.580919016550459,0.5787072468286261,0.5580974700822332,0.568072738711987,0.5810278054022286,0.5947468914274112,0.6220059774846276,0.6616045155453674,0.7034072371341238,0.7151837389072067,0.7509813502514633,0.7795955360555218,0.7540302351495289,0.7044719186419139,0.6738617285520054,0.6089306037673103,0.5582113554816561,0.5359562990683937,0.5073145464038449,0.5051611476221334,0.510978183610209,0.5313474371574611,0.5606296451140014,0.6026532510951692,0.624686411013569,0.6792110323620277,0.7355180580855927,0.810318777903333,0.8505796277445357,0.8096314922974384,0.7424229454218811,0.6827369998983097,0.6254497006518798,0.5967734227955632,0.5599059441386953,0.5286508315700975,0.5084836050866843,0.5334819906158965,0.5428442992625411,0.5327064075919008,0.5531042454779391,0.555662217860085,0.5582890040407924,0.5794315779694856,0.5909235482442132,0.6067590778625216,0.6265949859817783,0.642728694615283,0.6317559854646455,0.6314475327082234,0.637264786117592,0.6558946538875117,0.6442308362605522,0.61166009949546,0.5933404325581866,0.5810513768614931,0.5833851057688011,0.6030847591508857,0.5827087345880897,0.5584535608947356,0.5592149559489825,0.5775635904353282,0.5580974700822332,0.5675837433997404,0.5627813512635442,0.5556819238873758,0.5556620366756735,0.5548457108229026,0.5358016003229547,0.5380694319817723,0.5575857379279161,0.5876515865698599,0.6237561059296488,0.6314592102752195,0.64201852931147,0.6899838158839455,0.728677776559921,0.6919234153988891,0.65464212793457,0.6131210090792147,0.5840317561866439,0.546293564006366,0.5263334563428073,0.5064056022473902,0.4923008206918156,0.48235258192137254,0.5139936521458086,0.5629800957625304,0.6019716150783982,0.6337516332273547,0.6790337172755101,0.7409738157275885,0.7992461331071357,0.871371398305596,0.9413049258711221,0.926446764359802,0.8512357937556696,0.785362250500794,0.7214107059772172,0.657893496863172,0.6179464327581106,0.5850274373270383,0.5736847096057995,0.5344666796684092,0.5493038433810278,0.5556581230924151,0.555662217860085,0.5566758741471829,0.5761013109986481,0.593928108563675,0.6063206453378842,0.6206335139468178,0.6480356035289794,0.6858505003935735,0.7067162251398922,0.7072073584281777,0.7095708309062112,0.7158363293236287,0.692001122300248,0.6818206033650243,0.6654680848257297,0.6400035274907547,0.6228238741564716,0.6076754605784829,0.6235524109429655,0.6044002533230617,0.5825967598098409,0.587661679590211,0.6056060381630357,0.6061768661104128,0.6060832776628629,0.5925065311988313,0.5988183850490816,0.6061686376836257,PM
0.16173447354150206,0.21657599971230646,0.2707874838145412,0.3332499734673182,0.39019301467809964,0.46043446765950335,0.5322841621372265,0.5930177649833568,0.6577863214284476,0.7213145451456953,0.7661762120637272,0.8235007074318013,0.8894333843020883,0.960817448851512,1.0,0.9776975339530432,0.914767020336746,0.8431853182051445,0.7839532844236983,0.717462425731489,0.6454018255621481,0.5733255684908136,0.5017584780165341,0.4427527346878737,0.3759763768784694,0.3039096912696806,0.23183499268530028,0.1618373320647688,0.10527074623799715,0.06106864673419077,0.060363569339053846,0.07586809613331447,0.09496250547093954,0.12696916098581346,0.1523598309891625,0.18219647327908417,0.1836393685764155,0.16591141161705325,0.14592171862658265,0.11576442188118774,0.10415862200391368,0.10445586546022856,0.11320352332661177,0.11501352511991714,0.11501776113799345,0.1176737563691086,0.138361581254268,0.1528014379251874,0.170958863186792,0.20199642440164434,0.1957630069950249,0.18707486423652364,0.16456202265797293,0.13931308969484402,0.14489067996090554,0.12466139438096802,0.10182017993395398,0.09517510211784375,0.08056847738082684,0.0852432501735838,0.07982936847660582,0.05615294878712307,0.04598565852568104,0.06842932961438564,0.09731215030920559,0.14910137651374678,0.20732462708474886,0.2644500044634386,0.33007076247944545,0.38920053762812,0.460803288222825,0.5317951011760824,0.5891791339800725,0.6581467827263663,0.7301512291514416,0.7933708877019634,0.8553096290703475,0.9039053310135041,0.8823542744882609,0.8202011927363047,0.7596083120904025,0.6877735759666264,0.6161575220767888,0.5569820609085396,0.4904198274370315,0.4183577059078285,0.3462813834205032,0.2743037083714026,0.2109302986735213,0.1488561892310587,0.07686779283865963,0.008655160257534877,0.0,0.010516856232266392,0.0024434964206001553,0.01880505567012536,0.049040905650379774,0.07642560110452967,0.10233300487575958,0.129168550369823,0.1095539115975428,0.08938253978612654,0.07500027748377303,0.059857281656629624,0.05834684592704997,0.05835915499385713,0.06380176322781983,0.07597284003451366,0.0638503994306161,0.08212110916105875,0.09471306964067061,0.09095822411061505,0.11236164037265928,0.14074312897576569,0.1521042464052922,0.1374982602631234,0.1160479724146688,0.09177792260938089,0.07485623886139559,0.057588600363417175,0.04141083024183301,0.05067003044791729,0.04554985232632891,0.027876526423734838,0.020593289688731087,0.015508956466691703,0.006095141396319725,0.05426887776230993,0.11154484468470205,0.16601133766273035,0.22915508992554967,0.2870346738215175,0.35828076076543836,0.4283162747509377,0.48528732747859227,0.5556225265511809,0.6276626781238095,0.6930351789636182,0.753199063304578,0.8249675062211828,0.8876629650193397,0.9235275420085904,0.9068518638571161,0.8468811530007705,0.7748895825723419,0.7054918444116094,0.6482379286179731,0.577547522770637,0.5054715345256038,0.43339521203827713,0.3614898234005679,0.300029584038938,0.23600014077409792,0.16397940023313495,0.091906461492683,0.02448326483059926,0.017534497873886057,0.03712568127266502,0.04051160106364016,0.06245937407446833,0.10474405666289499,0.13212963780678066,0.1339016378175817,0.1314645497826663,0.10294289528487077,0.08320175922187545,0.07725897838507834,0.07708984532637642,0.06717382894753543,0.06665232427451695,0.09238368797493424,0.08372849632283152,0.07727328035666137,0.08144293808459269,0.10416514047916525,0.13818408298429663,0.17367682393424788,0.18706931466874588,0.16184917186440773,0.14084045336592643,0.1169149949526016,0.11497732453832343,0.10759014104132847,0.08679358559837036,0.10225541337798605,0.10364184298818913,0.07797446883067582,0.06290539480266366,0.07560857657176845,0.07723981781887845,0.08120543775660849,0.1182454470810761,0.18715788125732313,0.2539174504033177,0.3129288571499216,0.38055112958852755,0.43850455737323246,0.5097668099115169,0.5797697040973655,0.6367266136717196,0.7071086857899034,0.7791473638416253,0.8444211104479811,0.90458306303778,0.9639966774426774,0.9763042243041054,0.932535759149669,0.862428491856106,0.8031402483530927,0.7367207644401832,0.664661771101231,0.5932317781905105,0.5347012448127018,0.4673149586578127,0.3952458738255613,0.32316964635854317,0.2518049380019005,0.19350069507687584,0.12582347423632578,0.05416405308997696,0.021117233943100278,0.038863310362656556,0.033864740258295445,0.025618190314004252,0.06925602174559309,0.11013601888180924,0.12659596050701483,0.14819563045145978,0.136668663493682,0.14938341580112935,0.13185794044630184,0.11216984476043068,0.10186709860597176,0.10887635235514015,0.09654422682987773,0.09682990575617811,0.111256301663194,0.12465171864614533,0.1341255032946549,0.14766829471917386,0.16948803074602337,0.19305513371329752,0.2190994578850507,0.221335175129878,0.18930424140373292,0.1582351080721316,0.1525264402175579,0.1372831362947653,0.11593934039380871,0.10390586124396917,0.08191764143828317,0.06866226838128453,0.05845056813992855,0.05832354461489242,0.053838273489905664,PM
0.14248747934733053,0.11855124754125601,0.08427306832858683,0.04832123672151645,0.016783211541813836,0.021129338278013332,0.038746345830983575,0.056841345554108136,0.08367699927854955,0.10206331607738517,0.11393238449322585,0.126132821783963,0.13001492694154315,0.12650581551289042,0.12382318296687922,0.12232790217068956,0.11807563389333242,0.12875752220784387,0.1593493061935587,0.19700603950159468,0.24230085220994746,0.2886211251513069,0.3332041627564408,0.3719346002672226,0.4176203350972143,0.4622780918484064,0.5009817215848644,0.5466219338580345,0.5929469052814604,0.6391418076563804,0.6797286403839693,0.7216392815732706,0.7567391048061607,0.7947472930423443,0.840965916598853,0.8862295521791643,0.9247336225936564,0.9694037240347275,1.0,0.9897836519884464,0.9501276023460936,0.9114046631513752,0.865694119536847,0.8193808750053209,0.7756684210959297,0.7363613456347986,0.6903706628806177,0.6440454705121832,0.5977358852832153,0.554438157499288,0.514818115653277,0.4687218328407663,0.42239664047233183,0.37607144810389626,0.329811215028998,0.28816644475502406,0.24732074335642196,0.2081150991841969,0.1735562781752713,0.1760983224270387,0.1967285853309364,0.22319641032299042,0.24534595122512282,0.24677947053240823,0.23155718479819676,0.2070024422225527,0.19230251258475195,0.20175737552958828,0.2012135808526283,0.18919066587989763,0.18821422296877088,0.1950488172595155,0.1855332109969583,0.19138345141997193,0.1924244971859741,0.19702578377638225,0.20646345628227936,0.20134472657240043,0.2073735346000567,0.21359745256937024,0.20900462294647415,0.20618864634064504,0.1905389152492274,0.17571779298212187,0.15062044230539917,0.11981639375801945,0.08895715673491988,0.05979009724282136,0.028532258035297353,0.02473936116795783,0.029977437809713736,0.05432374781450022,0.07765121062942115,0.09557479017342962,0.10143887160668008,0.11417227655384221,0.11226149907001881,0.12499910482026433,0.1140901138717394,0.1168194202433126,0.11104906507807977,0.10857226150372967,0.12619352866898903,0.15681256875887284,0.1931898081453982,0.23470851685742944,0.2754242766827535,0.3215691759982946,0.3607778202940828,0.3948303482966844,0.4406686034329299,0.48667260853466177,0.5260195160811407,0.5696791866654731,0.6159919722435521,0.6617159260512393,0.7004907358055643,0.74499364527369,0.7913157611158912,0.8376168681812333,0.880448392524285,0.9189142622743112,0.9417709301838282,0.9223784786461255,0.8783548851841809,0.8367546587443182,0.79554432820284,0.7492945652863194,0.7034381003538317,0.6644713959221771,0.6202903483116176,0.5739708115522228,0.5279391509868068,0.48840280390995083,0.44496330271697837,0.3989580570625353,0.3635920210002397,0.332131142928932,0.2895758987228063,0.243316198250646,0.20110816414978738,0.16866999563630958,0.1637215822086524,0.17931757253670244,0.2072082322412645,0.23432463850976015,0.25356412021196517,0.24541877416183366,0.21403540601221493,0.18401181914226705,0.18359795466282458,0.1702904252526607,0.16763317918199694,0.1685338001122949,0.17229427882269643,0.16755301840828984,0.1656199385556827,0.1776865248998869,0.18445217259177826,0.16627755360910168,0.1668732043024681,0.17568903566505534,0.17519958172243277,0.17091624453304077,0.17434742698354877,0.16775676037884035,0.15644157869985698,0.13110062101473208,0.11435915777550831,0.08588033484804614,0.051553767509354476,0.020205187063267127,0.0,0.007798323968693177,0.029520232617958442,0.05600376127524975,0.07764932246672318,0.10029201836249868,0.10080706237808701,0.10332355088726852,0.10904570867768038,0.11684044755464584,0.11774133107249596,0.1182494666827334,0.13242392469890452,0.16628555931365874,0.20348682806524465,0.24628299830777323,0.28758125880936514,0.32907375362419167,0.37531824685407456,0.4187243391115585,0.45828957512624435,0.5043265136473234,0.5505017601107247,0.590879956817532,0.6333558687368073,0.6796499958586382,0.7254143777199311,0.7592071952075976,0.7987418892973528,0.8449966428130979,0.8912816454110772,0.9332039480034484,0.9651588623003078,0.9630758932025607,0.9302036313397197,0.8844778662838206,0.8400010814974848,0.8012097412537278,0.7554762087366438,0.7091511462732263,0.6628322046337489,0.6186396868996997,0.5796665112722073,0.5338275086018103,0.48750481404310664,0.44274640444309576,0.4041335934851904,0.35851869922532087,0.3151760884921284,0.27561047377828163,0.23332023920610157,0.19990583845871002,0.165273503472259,0.17202973463715288,0.1949204559290516,0.2196141512933456,0.2439993722174707,0.2424224459963873,0.2365903367435529,0.21697636851320512,0.1910993522805169,0.1843113431912533,0.19105002628553214,0.17951171789812936,0.17760903727178223,0.17760477725179635,0.17780446734194388,0.18431164361299657,0.19145715578278133,0.19897365676433587,0.20350758164378702,0.19776171182902447,0.19904907325866672,0.20290450467408117,0.1850186919438117,0.16962251106505244,0.14449357337169633,0.1164012219299233,0.08299443206535173,0.05037415345032237,0.04916921028429777,0.07791612357198585,0.0872566033233464,PM
0.12115223024439015,0.11345693980718252,0.10811151782396067,0.09525398924865724,0.09483638940274641,0.10215650520406339,0.11318424560319373,0.11340821486201991,0.1163247535959,0.12344330136947601,0.13805911114641178,0.1790251414120405,0.20541437678940344,0.2396428447454233,0.24367785138550646,0.23608370176261184,0.20511800301588812,0.16454268836816244,0.134493243629636,0.1128454957760936,0.07995846333853152,0.06596286181847688,0.07470326019901607,0.06066397962923453,0.04349065097257432,0.06186564019753904,0.10222450746930845,0.1556001231577513,0.22817512085200198,0.2899895369924663,0.35739858151809845,0.4311015676054297,0.5016312365455424,0.5609925510594143,0.6335066382229129,0.6961789772471367,0.7597771846792463,0.7970756650611874,0.7732142815535941,0.7074830216974037,0.6485096145367644,0.5774880020522026,0.5039893239490034,0.4416363821608815,0.3748476377384713,0.30114890367347424,0.2274123208360499,0.15640012918686175,0.09740806957618231,0.049275853621021604,0.06534449500868922,0.07789381648854476,0.11070127232278626,0.1638951229545773,0.20835769351979705,0.24065044296225002,0.23881247341781897,0.21476983333246347,0.18075926478045456,0.15614540931311227,0.14907618742011586,0.12568776689706596,0.10330335835575166,0.10860230816694605,0.1013977002764106,0.11534840553093284,0.13052691785009696,0.12483469301785721,0.11420230857254765,0.13320231866401278,0.16604179146381393,0.1957908082419184,0.225182151261484,0.2564567525352466,0.2561099728559655,0.2329016292729671,0.20429788481157551,0.168329346876265,0.13889560490865804,0.10379279541039743,0.09031640350005077,0.09419928006530576,0.08111256551264345,0.06729640849262264,0.06095495533654516,0.09042644964487767,0.13784133996521097,0.19330298949881142,0.24169976610417176,0.3035242650056036,0.3694686043008364,0.44315287893697164,0.516298263704317,0.5763200416491481,0.6457558494489701,0.7143751947977033,0.7751436767000972,0.8410572387177577,0.8478852386483302,0.7951519247217722,0.7508114798894141,0.6942648333009482,0.6220262157138117,0.5483090371113133,0.47983987248479965,0.41895754758137205,0.3458044026916647,0.2811168475089243,0.2168279179606496,0.15187836473788785,0.08954822864648104,0.046069799224013774,0.05036738439904154,0.05135698020545609,0.08117496197198637,0.12916407688922416,0.177845319872461,0.21499714227713884,0.20962762503286436,0.176115923161837,0.14604825087953088,0.11586300834672825,0.08713568396981497,0.07619616567384702,0.06997100856578298,0.05834663301735299,0.0749472127293851,0.08832188333057056,0.07658330983800044,0.07617618393007675,0.07995489740554396,0.0978529259672003,0.12486996169590459,0.14757791548847,0.18732916492145302,0.2208906868654852,0.24254985482641933,0.23495769407724643,0.2028062285282224,0.16253128935529215,0.13335511947211476,0.10489670356609349,0.07376185124623458,0.05510004650568945,0.03278413908699651,0.020562793341383223,0.026064112355098867,0.06367274120308686,0.10870849176996433,0.16392714973711087,0.23246118984821473,0.29756884136582906,0.3615380539656088,0.43512128321836885,0.5074305022496604,0.5666204406517679,0.6377269752665691,0.7111663152990295,0.7731957268726375,0.8392246738517852,0.8870180620748167,0.8802794357275663,0.8188988884440138,0.759034484131833,0.6859108066143853,0.6133891275153958,0.554538665417371,0.4833062199851881,0.40956839121398536,0.33582853773525345,0.2620889055478419,0.1893368993715474,0.12987048823723324,0.05969204170892395,0.0024074576422550287,0.0,0.010927303862945603,0.03926966980775859,0.0860808522398635,0.13495658110265385,0.17448906301947087,0.18554680903260357,0.16589152627643822,0.13992851137419082,0.11020447589501403,0.08190176264682103,0.07618174035285508,0.07708775412587743,0.08998914133238411,0.08110167847539573,0.09612927823962769,0.11218067595452164,0.11003385240017671,0.1059940555375074,0.1156210761794898,0.14054222363058244,0.16251547843010394,0.1976955055623515,0.23456406347108594,0.27134569671553743,0.29718356056853246,0.2860754059934232,0.25252508224670667,0.2209061199265916,0.17664349612150998,0.1326677882854992,0.10842942927866694,0.0850944652396115,0.061908196962912054,0.04724016533928754,0.048685622826567077,0.05030724734768599,0.05200695271033595,0.08338862841113537,0.1421733803602181,0.20394664243314553,0.27741951136128495,0.3488081537185157,0.4076433910266326,0.48002355567720345,0.5537626591550682,0.6269398709298235,0.6871767856143016,0.7563798795414258,0.8300939945316528,0.8990768406582044,0.9577651075688483,1.0,0.9831562526006947,0.9251768431271561,0.8640050549232896,0.7906793171139603,0.7170727191992206,0.6526545424850898,0.5879875868464151,0.5143373909585187,0.4406942392925326,0.37555771999544296,0.31162877784676546,0.2380647513023879,0.1723894750680781,0.1090144533616999,0.0370254190811492,0.015515134607276604,0.0375749182609848,0.04983813491446565,0.08449342224467671,0.1336260145243391,0.18605579800192817,0.2049690645589317,0.18479143174155688,0.15595031373967405,0.12714026977959758,0.10080578637013105,0.08549127963943937,PM
0.055559894842558855,0.06311759115546334,0.05546543652015057,0.06888020351367174,0.08472814317768806,0.1193539912892736,0.1687361909710603,0.2242551705382798,0.2737141447936571,0.3321679406388758,0.393928730338442,0.4556982083953156,0.5174676864521883,0.5792371645090615,0.6410066425659342,0.7027761206228083,0.7645425520720925,0.8237598503646639,0.872762309895164,0.9332441389200192,0.9791900055885976,1.0,0.9720611958620329,0.9259602051636575,0.8732877833431285,0.8117711453370684,0.7588368811746462,0.7042496116861998,0.6425318148636352,0.5807643861536702,0.521444843103497,0.47234697119906777,0.41165860634147666,0.3498959363052645,0.29108886600898565,0.24182773360682752,0.18091040540344183,0.12782494503763298,0.09591213713988367,0.1175561077388596,0.12627809732245332,0.10582526464493025,0.11512845162484364,0.1496583897159125,0.19347696590903718,0.22428779709862567,0.24978952658126063,0.2588221668559747,0.24589145157801884,0.21175866738682325,0.19379104627116517,0.17200117655945668,0.14820154949516384,0.15801017381021465,0.15331151050209124,0.16142155271316616,0.15299776950611088,0.15800323955267936,0.1480145438614655,0.16549483234832696,0.1652713475297718,0.15258808964549608,0.15572351735654566,0.14586283320070548,0.14561157902520572,0.14530829437890924,0.13644623627238062,0.14357164456359506,0.1364401980003347,0.1519407843339362,0.160303625748496,0.1479764710600624,0.1583162377942604,0.163223588379926,0.174179496195364,0.16330062116331545,0.16183063131438846,0.1666012515537072,0.1712622035946727,0.14667636509585336,0.11425157184442813,0.08841893032415804,0.04888418681278894,0.019698916189930582,0.000848542259762386,0.0,0.010070989626218552,0.01645650012024058,0.028630426192724823,0.03250166151453948,0.04678216079026054,0.05987916465564158,0.04940651718251177,0.06109493038137437,0.05472879847421419,0.04962247939503728,0.058322796510749786,0.06201842450847339,0.10767016542914787,0.15621834037867321,0.21287192554830048,0.26280670422282126,0.32396153216784285,0.3857226632502422,0.4429555947623145,0.4935037944068732,0.5548344635364932,0.6166017056260689,0.6762310704645129,0.7250623575754869,0.7849731235666129,0.8271163914347848,0.8660667093108692,0.9092902600407222,0.9193518625628956,0.8811210390976068,0.8298106814698518,0.776570459065006,0.7225431512638067,0.6608361739102069,0.6016370635006609,0.5525027356312489,0.49173017596673185,0.4299609258716175,0.3681914478147448,0.3064219697578716,0.24465256188922435,0.18342242442796408,0.13364200892415257,0.09422819995463305,0.09606844291613248,0.09853768283725595,0.11513084875324431,0.13860605514942614,0.1694323527890762,0.20955485418001185,0.24561941353524963,0.2533106565154708,0.24304494253102193,0.23360522902065917,0.20433062020071668,0.17347425419260087,0.15266982247245542,0.15240864381148755,0.14851136237986795,0.15774908730001247,0.1557698685413622,0.17314138064432916,0.1513014191776132,0.1436662607748862,0.16071697223567938,0.15123765436356873,0.15736257907198858,0.14666543138912624,0.13869866603104564,0.15776660130912523,0.14063493633358304,0.14006081294797523,0.15776655811637097,0.13916286733697003,0.1461190873685121,0.1565794182334188,0.13698669346203474,0.14523899682029162,0.14920382945499666,0.15808407939126567,0.16968137368917535,0.17798713736550242,0.17552159183090632,0.16422768105165853,0.1826905592609549,0.18605844315872622,0.1668532744331599,0.15477038696217837,0.12236408922206543,0.09409815976121161,0.06460119116063368,0.035585626966293304,0.02739227233690178,0.04377933064949113,0.02058007674744511,0.023485889914678815,0.04627059914874554,0.066260264556675,0.06785384287619323,0.050781319733506525,0.06244881431189553,0.064255107384108,0.05349517847018159,0.058785107074562415,0.07691738509445223,0.0728051784616599,0.06884526952145364,0.056557716209013176,0.09056288803329382,0.12975093880573763,0.18290155581636203,0.23413941945992667,0.29042940929240535,0.3521771386888872,0.4138895086056711,0.468120438838596,0.5214034058526367,0.5830500952533115,0.6448195733101856,0.7065831691673301,0.764451886037044,0.814504104588027,0.874863794130825,0.923511011199607,0.9684448376792214,0.9967537200565761,0.9652284015169172,0.914813238420916,0.8545355818812048,0.8057176085933775,0.7460507831598528,0.6842834065131891,0.6225975271834585,0.5682684516145646,0.5151046116862448,0.45341044994876567,0.391642343894794,0.33164769948847805,0.28275400558382735,0.22275823243896165,0.1713132244498876,0.12382717190910109,0.12038188069651667,0.12411482823541409,0.13649278976525236,0.16281951711738119,0.19752836821165998,0.226763026611422,0.25715939711425273,0.27234168054984176,0.26129975319011667,0.242874548130255,0.22904087244556548,0.20111070133635867,0.17811645620636485,0.16880071436685284,0.17341181119865512,0.15352764255445273,0.15652218933535744,0.14878197836458185,0.1598931259383991,0.1495403094945824,0.15503512320897261,0.15680535246187777,0.14960650191841296,0.15209266652307196,0.17166999994590393,0.14658542073587544,0.1367663220649149,PM
0.2035715292072764,0.20916131212751576,0.22986842155892084,0.26199059601588814,0.3222854805196196,0.38307139026733594,0.45116046621583905,0.5218967708951237,0.6004320574669642,0.6748304678032921,0.744062165351397,0.8260345155073878,0.897463865233715,0.9809233537644619,1.0,0.9422466797379441,0.8708134157934175,0.7806916343372068,0.7051225131942411,0.624832273955632,0.540630484397906,0.4721290548396926,0.4034474100648797,0.3300532962962537,0.25062020104938565,0.20266158531476552,0.1795855256001504,0.18820190503410217,0.23077050559798185,0.2828365167010487,0.34343879074373085,0.38663070754490114,0.4134616423185209,0.43913660967952683,0.4137593406852025,0.38344094473945045,0.35225635955735424,0.30853061480099697,0.2630860826332313,0.24191635678934986,0.25368418567846085,0.23239715251355353,0.2421199604411024,0.25314888871425456,0.23185440236438648,0.22163862420135416,0.22151177267738653,0.25141902038321806,0.27955936902483636,0.27825308450873276,0.27915127833988507,0.2964447589521475,0.3362033411846843,0.3679380941694408,0.3895501334392728,0.37187912325923644,0.32843670477688214,0.2629065912654065,0.21465424888809448,0.17051549626591367,0.1287011726777596,0.09218987525804767,0.06125755574570313,0.024394586851096633,0.036311957941167705,0.03190504718178655,0.0,0.01690071383192393,0.0343881820761478,0.002025226357074139,0.005953928598471769,0.0023131213850140497,0.013578097825236668,0.07697310931254275,0.13781174213745562,0.2079792483960592,0.2661816631040024,0.3339544181688927,0.41658589303288185,0.4866641884840446,0.5672288498781297,0.6408062546911086,0.7155906261754978,0.7720018257762158,0.7808419988996977,0.7266338094465699,0.6582498927075005,0.5714218327034777,0.48028743676073304,0.3926214159420178,0.3233072854468011,0.24991904055942538,0.17366485670526277,0.11151260200380175,0.09010070666014691,0.11853325902140188,0.10213271126687484,0.1318894632528531,0.17967167496851122,0.2262559065739449,0.29027139097838717,0.356168375310169,0.3894576925610558,0.37194894917161925,0.3393180982005335,0.3279285673480228,0.2741782826995225,0.2305910464611438,0.20747430097793096,0.19483222304058323,0.2008523749780755,0.1852967185695542,0.18724628103300667,0.2001460554954999,0.18771005017744358,0.20450973503692182,0.22529109302346484,0.2093114067983164,0.2177705405488375,0.21850580448046308,0.22565962822115626,0.26939443935025054,0.2963427866365791,0.3467897737713308,0.3781681195028517,0.44155005656160196,0.4696860190286234,0.4534257564171158,0.41921211019042204,0.3899483108132369,0.3382812687552512,0.28597514906663335,0.2504727412665746,0.23068187252213512,0.22376014541205702,0.2043065240989259,0.20356421528788005,0.2034881020035364,0.19261617341934478,0.18169850239622143,0.20421008153507714,0.24083272058073657,0.29665595493281494,0.3532649458878181,0.42578597381609207,0.5143648192238608,0.5837926626939467,0.6719936824070389,0.7630522122772927,0.8417204904358062,0.9005163224738899,0.9172490147123282,0.8714001757756051,0.8052877724684153,0.7160652139845114,0.6358121453938095,0.5683119928727818,0.5206340510581908,0.4582362668457698,0.3898662265018338,0.3038697852675343,0.2339015260501318,0.17648300665884165,0.15189608785710274,0.16569602466903888,0.20960463292185416,0.2633699612244653,0.31586470721901616,0.3724236702715302,0.4109454473105796,0.3956006841966726,0.36816379694800627,0.3595690353732337,0.31677822469259453,0.2623609123543993,0.20986754953599807,0.1802167245541062,0.15734543334540518,0.15512403422131182,0.18289267044088753,0.1968092416465268,0.17943456332361585,0.2030893587430853,0.2203511373298399,0.2118488295893961,0.24787613311342493,0.2414779647696621,0.2484934762370017,0.24442336080716043,0.28142825516588665,0.3334488230257966,0.3696792595709608,0.4077958716894079,0.4305419338583256,0.4427234444908592,0.4217201682526337,0.39521567609530717,0.35017566129502775,0.30461285705828,0.26282687467437515,0.2266650304289719,0.1851952834830497,0.17645916264964523,0.1598262415474787,0.16728816087651222,0.15819158737872918,0.12562372586411996,0.12343900015918763,0.13061671521565277,0.17189835481076532,0.23743539998157814,0.2997707252230457,0.36051292073468133,0.43441012277476165,0.5035161160630315,0.5780488220840825,0.6557466037559276,0.7276024113178199,0.8043018433363187,0.8647031940081114,0.8864290581536896,0.8322593839115395,0.7641460619135749,0.7050723240314234,0.6352874809509057,0.549519992395819,0.4711953225933092,0.3966626165722609,0.32738962206008093,0.24566940077819144,0.18355813143961175,0.12486657763359954,0.09784347559676654,0.1143539040852648,0.1486712901978633,0.19950144298924677,0.25359506037188684,0.3053953945536412,0.33382267741629423,0.33436482613385543,0.3114726974212809,0.2723734833546718,0.2298098137161082,0.19069519882873642,0.15132429722753837,0.1254854680312949,0.12342474405259907,0.12345200054507721,0.1338015697291839,0.14981669067937897,0.15021610338637803,0.16240367007678191,0.1662341778346308,0.16139284014623634,0.19014245053695866,PM
0.22362213624532323,0.18719023436901594,0.15493148093216513,0.10645595880817282,0.06594268966555283,0.04630617902739731,0.05870912302239795,0.08526768118756811,0.11201698505774971,0.13973071437379891,0.17261852459494786,0.19350456111421988,0.19676532275722813,0.21360464296091397,0.21187687888373485,0.19577480662474844,0.1878401586756797,0.17985994433117902,0.2247610423380504,0.29674196979886114,0.3614078549970352,0.43679461155400734,0.5089000930823606,0.5765864497677766,0.6563326209248697,0.7217402208599846,0.7963918469044025,0.876819190999214,0.9549319522486126,1.0,0.9858125601157193,0.9221276855126703,0.8528678435807526,0.7734134958728207,0.7096885324568012,0.6571970692206976,0.5949937215072887,0.5147884165991199,0.44109672039569325,0.37481815054306056,0.2947684596840028,0.21452295652294495,0.14808763405214442,0.13725717502256085,0.1880370379831069,0.23314163353813067,0.2540565250812712,0.26906841496407896,0.2952924244206403,0.3194510949906144,0.32908810564656,0.35929323794227264,0.41072775393474625,0.46373572418959075,0.5043180625345669,0.5121226936044425,0.48132493577286395,0.4326369032207227,0.39074039051735454,0.3454300628799345,0.3041083101325994,0.2719701280604978,0.2617802994088283,0.2788132755411996,0.2804525880136435,0.28035846739747283,0.2709580151239268,0.2582053762309777,0.23375393762861174,0.1920437303575282,0.14336934620534958,0.10849087293320414,0.07639691676795612,0.07811899774328745,0.11566236219206161,0.15109192182157916,0.18339674870016776,0.1965808249864347,0.21351167398297344,0.21641157546032241,0.21641366101796455,0.21625937650616578,0.20293996245295354,0.17549819727255267,0.15996175710024652,0.18725249111836106,0.26517384007851597,0.33751988750760953,0.404974111837729,0.4794425772332085,0.5449333488293462,0.6235787113579634,0.6874068943464549,0.7643102137279154,0.8396445596425464,0.8988273555771888,0.91430947205279,0.8680244220694151,0.7955315338573001,0.7310942328306997,0.6688909224976025,0.6164367910652127,0.550378914091977,0.47780502386673174,0.39741055242186585,0.3212113135510619,0.2570156596086659,0.17742909933939144,0.11136295369871041,0.15101598631133628,0.20787199569857684,0.2411453041420737,0.2626993324516591,0.2693126898897362,0.25919151386117445,0.2595723148077673,0.2760006965106192,0.3113271636568955,0.3641666974838964,0.4217307821687051,0.46615898934399436,0.4666949654397974,0.44036510578515076,0.39912553545066487,0.3504815337098015,0.3081134388818585,0.30281130992968386,0.32176352151484444,0.3400150686777823,0.33979334200525946,0.3444630872233114,0.3403090051842881,0.3204101255357834,0.283020816387757,0.241000218346902,0.2084531099573641,0.171486361395095,0.12481076593578422,0.08560283084947917,0.08997474606807732,0.13322013550659406,0.17071157120247982,0.2125532428485477,0.2455119490483595,0.2717517038052857,0.2803933095236979,0.2805081794036868,0.28928981963296385,0.30160585128360173,0.30177406707944954,0.2937529269612842,0.26597535463673694,0.30230288842711417,0.36512114067635393,0.4416263523866846,0.5124204340576579,0.5813676056986141,0.654684930876638,0.7206680479029375,0.7836028731353748,0.8125085571653257,0.7829425117545297,0.7135445208105731,0.6458629312366071,0.5657750499893615,0.4952617696283079,0.42601641182253447,0.34566557197952275,0.26521797713881234,0.1847703822981024,0.10432300825015606,0.025128042479448887,0.0,0.05477530268035835,0.10324402694266954,0.1357709824992095,0.15184642557604855,0.15236003083936733,0.14756508896552845,0.1341096572637115,0.1639762926681927,0.22206911617817804,0.27660503262121683,0.3209132550246365,0.33497156487620794,0.32059699628712135,0.286594970194324,0.23866994576869027,0.20099542229581768,0.21955807012579465,0.23731230902553602,0.2544809653362532,0.2797424242637896,0.2966346365732213,0.30178478577535595,0.30132832204153503,0.2827138811593075,0.243217018959327,0.2103812034772643,0.1716817940008628,0.12255853877729228,0.07395462879210557,0.04696394215541799,0.05502204527358279,0.08362625862252004,0.12305370133816584,0.1617418975890046,0.1885725854406357,0.19504529867714782,0.19506700473869198,0.19504386270174656,0.18842511240281734,0.17413452030568832,0.17672810394590455,0.21423570438038064,0.2880838583373908,0.35164292961878774,0.4284789312683368,0.49256074173429854,0.5689306463938366,0.6449113052258513,0.7093734502618494,0.7888278747429336,0.8580939076711331,0.9265670182525607,0.9619162144398237,0.9330568841911466,0.8554724784464272,0.7750264212289295,0.6951618662105177,0.6295406056995096,0.5550176212663205,0.47458263343081697,0.3942552085978348,0.3239422595876138,0.2545021703561119,0.17414082366242623,0.09756306729438613,0.09150589105043627,0.14309000704544417,0.18381077417450076,0.19502091157881685,0.20401827873341727,0.21622460439157498,0.21878822939428577,0.24892717808671927,0.3035026184172187,0.3536054828958384,0.41251528764850365,0.4547426917908113,0.46922564310845427,0.4399645758150341,0.391367648745498,0.3493310876835847,0.31242012469410696,PM
0.0,0.02631284094495534,0.15323883373561742,0.25020934286217766,0.3871113820796115,0.48340513160685283,0.599033495333348,0.661062764708177,0.6177734536381383,0.5111773375291886,0.41600836007941133,0.2835640162915869,0.14557731437192878,0.08369053086458322,0.200440484341728,0.32604112396932017,0.41882215508740117,0.4926845505956763,0.5079643377328349,0.5080112413309159,0.5080112413309159,0.5135949152284116,0.5592922759806065,0.5632003527494476,0.6029454031790902,0.6717531171032523,0.7416001372486907,0.8117591664024033,0.8561127152353816,0.900531054268841,0.9436182259788843,0.9413945586081987,0.8955861174619368,0.8672856183730353,0.78527115974771,0.7196900643499706,0.6584329120674788,0.6164398603103862,0.5750889631808267,0.5627085711353335,0.5627591289547063,0.5887479887319174,0.6172057859802926,0.6173924459223255,0.6173924459223255,0.6173924459223255,0.6173977075147423,0.6277755693418356,0.6702440731949899,0.6735753880967597,0.7174280796086077,0.7267709084649532,0.7267736505137368,0.7267736505137368,0.7267708168451836,0.7170099111853769,0.6838011525155459,0.7249732966207674,0.7267736505137368,0.7267736505137368,0.7267761896901757,0.7351111069238616,0.7789599023120228,0.7909420973316887,0.8340197847515451,0.83593705312229,0.8039980770587434,0.7809634422595746,0.7464759521200417,0.7201617934666693,0.6753456768548798,0.6720830482180311,0.6720830482180311,0.6720830482180311,0.6720830482180311,0.6720902992682785,0.6854454786967299,0.7230442056275574,0.6808139021299624,0.6720861109360055,0.6707847690160129,0.631145468031642,0.6172995157952705,0.5984825785068679,0.5508886821136443,0.4817853213099781,0.38669362037880717,0.27295451545496974,0.18060040642497022,0.10291696316780197,0.1639246276492976,0.28093877105824205,0.3884491354517099,0.5215366342708485,0.6142267367119896,0.6983861599770904,0.7017067537351558,0.6534964332866,0.5326402781578974,0.4102467808782375,0.30712868722083897,0.16808372777919622,0.10834009124129196,0.23102231219713865,0.37026802968973094,0.4675344878341452,0.5160775730499072,0.5603865413326776,0.5627015753115838,0.5627018436266216,0.5627428567254587,0.5882601663908051,0.6172014725128872,0.617989969261437,0.6608594312036171,0.7523192129607601,0.8274541558306243,0.8870482157195685,0.9345498866037438,0.9819825753877556,1.0,0.9773002317636887,0.9310749374702709,0.8645636422354137,0.7802477974548232,0.6986693094159513,0.654084225765736,0.6178207380772598,0.6173924459223255,0.6173924459223255,0.6173924459223255,0.6173924459223255,0.6173924459223255,0.6173924459223255,0.6173924459223255,0.6181982537958088,0.6610431290004666,0.671631325349761,0.6375847229342977,0.6174033617633103,0.6173924459223255,0.6173924459223255,0.6173924459223255,0.6173924459223255,0.6182080171333553,0.6612246663196562,0.6720799789557876,0.6720830482180311,0.6720830482180311,0.6727196249073373,0.7125870844302167,0.7267405500113551,0.7267736505137368,0.7265550709128963,0.6945193079991121,0.6715693116039851,0.6369993361249673,0.6173544186533455,0.6021166559236715,0.5632798402906349,0.5627018436266216,0.5627018436266216,0.5627018436266216,0.5627018436266216,0.5627018436266216,0.5627018436266216,0.5627047492821351,0.5713146782880099,0.6136630010361461,0.5763569282443708,0.5626079984519325,0.5437124998661798,0.4961353022670547,0.4316494374959525,0.3606635791811943,0.27215729338031025,0.17782046137668317,0.1024862231479684,0.21816603893515918,0.3357462818359025,0.44335329564995973,0.5764023697665515,0.6690795461435162,0.7533387940908476,0.7740091503574877,0.710797796069361,0.5884243063859209,0.48882869141904806,0.36205530474616054,0.22223540567948774,0.1038433125264131,0.13884789434923306,0.25924155356559275,0.3377812351178431,0.4017980749026808,0.4969493201031039,0.5579953152540327,0.5627001093952906,0.5639188052540849,0.6076213050255284,0.6115537628529779,0.5670766668007765,0.6025402430017799,0.6180450125062489,0.6639526302764143,0.757185034379237,0.8304759949885216,0.8875511152166489,0.9173088848326927,0.9836136130032251,1.0,0.9732806534085938,0.9058318219127433,0.860703580409325,0.7903812033694244,0.7306081958699906,0.6618991105272443,0.6175889974311612,0.5941140344841322,0.5629381234764335,0.5627056916568964,0.5720199732112423,0.6054972351851191,0.563958007574616,0.5627018436266216,0.5627018436266216,0.5627018436266216,0.5627018436266216,0.5627018436266216,0.5627018436266216,0.5627018436266216,0.5627018436266216,0.5627018436266216,0.5627018436266216,0.5627018436266216,0.5627018436266216,0.5627018436266216,0.5627119218011511,0.581333089147039,0.6167494486665017,0.6388587414468283,0.6824996335288862,0.7249157072399459,0.7054465284399853,0.6723844169848334,0.6711709803167434,0.6340724020783046,0.6173269672243098,0.600301282731774,0.5615234638324491,0.5190457301078979,0.5325999139634447,0.5625022432823688,0.5627018436266216,0.5627018436266216,PM
0.8026153284157642,0.8450752883480481,0.8791535971487603,0.8788750429897085,0.8462566209582612,0.8355126223949103,0.7914221760140228,0.7596181066363226,0.7277848013091051,0.7197541829282263,0.7197160387540062,0.699051974221236,0.6877709048126199,0.707824623242364,0.6931261002159594,0.7010198891817456,0.679615754685833,0.6545494796960991,0.6595138213510578,0.6373380171783474,0.6024145332861863,0.5996417408732473,0.5996404826729291,0.5996404826729291,0.5996404826729291,0.5998425724958709,0.6210165734084327,0.6396480850819977,0.6399244761822924,0.6728313687245473,0.7200276370380818,0.7537847797635226,0.8097018738394395,0.8751223511482991,0.9166229963959109,0.9576444284340582,0.9365848793530889,0.8791207997031583,0.8170044991820573,0.7600894758968648,0.7213077640823924,0.692785721667228,0.6722544059226054,0.6412594412804307,0.6396764344056365,0.6396764344056365,0.6396764344056365,0.6350832574878638,0.5627235245324416,0.46181525743267304,0.3841286542979647,0.2770763146931383,0.16941975210964788,0.09381675000614997,0.025824402653918277,0.0,0.04009635198467709,0.11337335496250933,0.21141242312869046,0.28730429361906484,0.39153148864731513,0.4042687653961803,0.3246859154220907,0.25760241802765194,0.2487963683279526,0.2982645165419271,0.3642072393461042,0.43789543300496003,0.5222136553999741,0.6074774022261078,0.6678610888705192,0.7121915169690132,0.7600460502033082,0.8042791406206033,0.8332360109351482,0.8089562244534596,0.8122339993875034,0.8122055094410259,0.8395117886615058,0.8583336033333238,0.8798151632765068,0.8800855414141129,0.9007412027244097,0.920459234971009,0.9479645542140265,0.9690020261344285,0.9992150266537054,1.0,0.9999784035489592,0.984425901203382,0.9335715265351814,0.9126654348394201,0.8640138892388247,0.8398140716667948,0.8151354547227756,0.7999223592362643,0.7994182799588652,0.7732152486356965,0.7598472880553713,0.7597842896037577,0.7597842896037577,0.7597842896037577,0.7597842896037577,0.7597842896037577,0.7597842896037577,0.7597842896037577,0.7597842896037577,0.7597842896037577,0.7597842896037577,0.759973339610637,0.7804795555789719,0.8160822921730562,0.8676151234733238,0.9045736582220103,0.9526031840550084,0.9354388449163684,0.9139362560811612,0.863252994356138,0.8013982566922273,0.7581002401209789,0.7041825731875555,0.6772223755040327,0.6436007003827768,0.6396793171177579,0.6396764344056365,0.6396764344056365,0.638868248212753,0.6029716440154536,0.5214774336604702,0.4464399519817741,0.34177976980421043,0.24788826365482475,0.16579444050367798,0.09823427653532235,0.07947048078343055,0.10352763474317062,0.19066545689736625,0.27322756887574506,0.38136416451418054,0.458720698784262,0.37702460519377645,0.298831442980358,0.21417414016416103,0.19957495954525228,0.22663492172198385,0.3006519083845962,0.37817786488491656,0.46641333540931207,0.5248888995559335,0.5978749489253943,0.668068166165563,0.7046997869637863,0.7197269962453907,0.7197722168744773,0.7315874785310239,0.7592430511466315,0.7598472880553695,0.7722832605943486,0.7667555340092278,0.7597924121627759,0.7635316868729021,0.7969830953330455,0.7998202413364641,0.8006616549401402,0.8294970988763,0.8398438977445366,0.8362136851383362,0.7931958293700436,0.7599662558566029,0.7240701494217632,0.6823244705064946,0.6796837979159109,0.6605254923281665,0.6398698310178705,0.6396970534550475,0.6513829235346114,0.679159541257925,0.6805313272186524,0.7083371038568815,0.6873838767958897,0.6992890637728539,0.6936623312895165,0.6914506963579976,0.7191763983663506,0.7078755055134067,0.6831480701683388,0.7156889331870504,0.7197483378710503,0.7201403010073815,0.747006247636361,0.7836199070888918,0.83757268030738,0.8808780166740675,0.9278413756900399,0.9929756883736855,0.9999346248979206,0.9778695977210736,0.9246915687882806,0.8706020941209225,0.8157923670016798,0.748617838715008,0.719607710206132,0.6938066028252683,0.6797916843600342,0.6751372324097051,0.6474120349811745,0.6768879674269579,0.6473591604276967,0.6362236199848272,0.5922026439656563,0.49866194164498623,0.42005117343868115,0.32091349803529035,0.23567756314592092,0.14901319153730785,0.09042937103610527,0.09737717227462905,0.1699208270512802,0.2651863921174922,0.35678778928134314,0.44271260620232233,0.5484373519366494,0.566132366139322,0.4865529723067521,0.3789407411689343,0.30065495260886443,0.24230565506939428,0.2525637293813707,0.3131232628873395,0.3847713210520567,0.45675725533574685,0.5543392718822888,0.629000673260907,0.6795477613810288,0.7087304526619613,0.7216885719298656,0.7532803675585926,0.7597951287911231,0.7710928241397426,0.7992325771861646,0.7998202413364641,0.7998202413364641,0.7998202413364641,0.7999093194202009,0.8143449055033161,0.8395470830779228,0.8399843906010949,0.8567525048944029,0.87969434480459,0.8614299211095426,0.8367966063045058,0.8029306639453191,0.7789886793407623,0.7594943952462243,0.7332555986267932,PM
0.8312234481836676,0.890734418712495,0.9248350990713101,0.9218950429494459,0.8620002069812127,0.8166558049037702,0.7590911281976211,0.7199659234597737,0.7069275582082719,0.6896055638679259,0.7298027945484558,0.7545158592220602,0.8006254339369647,0.8314418343512182,0.7515451577351078,0.6800183480398481,0.5964222184253325,0.5579504554384558,0.5814740689323585,0.6008551151547596,0.5703320717283802,0.4842116499329725,0.38598335643705894,0.28773047515351013,0.18947759386996132,0.09146835726692437,0.01836279061342072,0.001525979048649262,0.0,0.0019136611801142678,0.027770924738795166,0.05290382760303203,0.10323058221390458,0.18149759112498742,0.2479836001434128,0.294631393854087,0.38130526660145936,0.44478811148275454,0.5063826078069136,0.5587238781641428,0.5874380360876224,0.5983820838792626,0.5969278885526625,0.5606294006498933,0.5040342992009776,0.43855413713596914,0.3730600822791468,0.31941505884996246,0.3585424804733899,0.4553603369700596,0.5502840083886396,0.5917284918195538,0.5993837199886478,0.6081189998819507,0.6744812078273812,0.7173236329775019,0.7286525280935257,0.7400040893609399,0.7478611481859492,0.7213865753861413,0.7405178192996678,0.7614523117809542,0.782286004092251,0.806718835952859,0.83890394764863,0.8470909224096799,0.8469033143334297,0.8244105845123775,0.7758883002189014,0.7288677126646004,0.7144991915747427,0.6849511971887283,0.6544037885098879,0.631079896934752,0.6495087749429125,0.6724106483089525,0.6574779619790183,0.697905307219842,0.7222735935520799,0.7538483515404852,0.7807212287970513,0.7821036190341992,0.7972926061528209,0.7916977917184811,0.7976439472566836,0.7912376607310332,0.7819571332188167,0.7835760529736673,0.8088369754104017,0.8144578385629897,0.801257985628447,0.7822418797905728,0.7819501268865139,0.7896328669676071,0.8217155122430739,0.8666128654113106,0.9157353053624693,0.9630240849338669,0.9953297859918022,0.9793842225488127,0.9250336914858623,0.8399266262923089,0.7835425997407564,0.7499769062327477,0.7259610483622465,0.7454901149306741,0.7592053287532474,0.802319884516054,0.8438535332219388,0.8448950157123027,0.7644872890367402,0.6835751788954294,0.6191978282157065,0.5876678361946643,0.597480267699761,0.6440982792723933,0.7066952080247537,0.74668525502892,0.7524619343769556,0.77938589502687,0.7631116105816753,0.7610513458811399,0.7934147293789282,0.8147823197765298,0.8382696738100908,0.8471214636354665,0.8593766467005555,0.8779487493890601,0.8505828911804958,0.8469139335696756,0.8176824648798293,0.7734319345824101,0.7406217909200015,0.7078606726415488,0.6846620507962626,0.6888422763052526,0.7153811928955278,0.7168836969087238,0.731364863408209,0.7639086056811513,0.7818309906520415,0.7819335243144563,0.7819335243144563,0.7814365377887853,0.7594046678721131,0.749550749235941,0.7647528761930698,0.7588547988731502,0.7373884925108367,0.7336501147823986,0.7492698179603146,0.7493529199876621,0.7493678689003112,0.7582765370191797,0.8156359572208025,0.86564499189309,0.914785209212833,0.9638828295019168,1.0,0.9601894332538246,0.8991852927772994,0.849812030769896,0.7963556575450772,0.7504731013548236,0.7263063367220957,0.745400427019038,0.7714132211932654,0.8107436402868275,0.8462065186702628,0.8845150887512645,0.8153284002745762,0.7332862062390353,0.6530505081133331,0.6204006929198984,0.6218000876711063,0.6589912676209808,0.7081510482182587,0.7567903572063566,0.7815107462376085,0.7819343233025,0.7849602751385971,0.8118957454952049,0.8145135908608365,0.8145455391414451,0.8259945765221159,0.8468667572199244,0.8573647622592588,0.8508180781094623,0.8273285234249901,0.7930473971147993,0.7330109966531984,0.7084923872290574,0.6762022707620403,0.6519329363696125,0.6310015449523947,0.6231949739889302,0.6544007101444667,0.682741509581227,0.6887377372811239,0.7154620103999338,0.7309254113858996,0.7538449164242182,0.7588671014045207,0.7504801897021034,0.7750537777169324,0.7814740947879164,0.7608879310515819,0.7720961794075079,0.7520692079674891,0.7493536191022008,0.7493529199876621,0.7493529199876621,0.7493532464971997,0.7509378751752305,0.7845081834321519,0.8472537354760084,0.8874252855916263,0.938268238642264,0.9306714298609204,0.8748670176410878,0.8289705599852599,0.7704177311644065,0.7487863866691713,0.7247169412291656,0.7252479472058413,0.769495245303462,0.810176204206865,0.8273409215020857,0.784319916246881,0.7035895098571032,0.622191552937541,0.588117558593269,0.5960841353748414,0.6415849443849737,0.7034612913056542,0.7460427954423814,0.7690435477113171,0.7553158347059874,0.7594843063518883,0.7814480750305872,0.782342260887666,0.8041463764946384,0.8364690326098678,0.8470978411851879,0.8580492129503199,0.8720564383042007,0.8479042952499096,0.8282216115545964,0.7942035976110713,0.7536152037108703,0.728541655474892,0.6866381537103861,0.6358387785767716,0.6312915042012444,0.6514717749774732,PM
0.18284971406352746,0.18728423102187453,0.24182262366979668,0.33087158632769853,0.43625887692945664,0.5225420633198423,0.5730328181260438,0.6509951499071693,0.7094946774166733,0.7887684851621986,0.8869460636513002,0.9075163688087882,0.8339307969020044,0.7555257360246994,0.6767492504876156,0.6141964555868089,0.5863427757479274,0.5334899599447178,0.45201100747858014,0.3801021958195552,0.2917919618225353,0.21322871124808263,0.139822592920817,0.06192956366750124,0.013407748131752939,0.00014949222682769658,0.028226985070753052,0.1251110797595123,0.2052910055113193,0.2792974073754788,0.35648212035339544,0.4076482124700149,0.4216949829436274,0.5124478576426075,0.5503691052961548,0.5744714322922269,0.5587905295896851,0.5018536563271683,0.3988521631022408,0.29300224974871636,0.1871518870611455,0.08205025182914749,0.012549725863531869,0.000312626869576782,0.0,0.016047363781283686,0.04265356645035645,0.0945588445184633,0.1758351130161202,0.24357702689347338,0.305958637993891,0.39319520253781626,0.4554400472665634,0.5160973547250274,0.5495879955455578,0.5603218285202756,0.5511697703283689,0.5025912662213345,0.4344248051019717,0.36410777056725774,0.30407148755590363,0.3412646670330366,0.4454203757306745,0.5352654977442484,0.5589850515415034,0.5636248273686375,0.6017252897388055,0.6293532688401715,0.6548306264830464,0.6807110214655188,0.7027068787277768,0.7365496316113829,0.7677276169237972,0.8092113023758358,0.8232194848714949,0.8095011417538771,0.7902937890056618,0.7637944937197849,0.7364876910854345,0.7091076153716411,0.6806401178556714,0.6994972910022685,0.7122763917956147,0.7269720142132599,0.7070820468656827,0.72964977922115,0.7247534335649108,0.7022719264811697,0.7056049868739152,0.7643850257240032,0.7731819591291931,0.8084320495885287,0.8723626724931579,0.9291875267739327,0.9903144691903041,0.9770500604222896,0.8920011820710361,0.8353799209367496,0.7617950397222719,0.6910953211173867,0.6581961426982277,0.6175401850006708,0.6287446381854682,0.6129058977967325,0.648552886034178,0.7250275930664509,0.8049505655407616,0.9022638955392788,0.8870087550112862,0.7985283321597736,0.7513773052496395,0.6760104806448979,0.6077237147362053,0.5734206198774165,0.5254037727064125,0.5206992805459016,0.5427543216842912,0.5292719564771806,0.5672651169163707,0.585751577447029,0.6123168048683345,0.6380326180896452,0.6404415342599652,0.6552448572491478,0.6991477759829277,0.7421296078272421,0.7705145513214999,0.7743149805753582,0.7734741039015969,0.7610088314170165,0.7336155363714578,0.6987188911447886,0.678957677304008,0.7000799197768179,0.681314539619227,0.6881162081211665,0.6749924498636419,0.6896975964343897,0.7012870367753568,0.6946287695797535,0.6773715782550092,0.7006621067460399,0.7235078806983006,0.7526650168333164,0.8116992331246076,0.8349295410159465,0.9072016622546606,0.9702328076454165,1.0,0.9410309293692514,0.8593545636055451,0.7767519135175469,0.7438270633362576,0.6852536495467563,0.6638159291048034,0.6433226613492113,0.6843665348885315,0.7165013698257745,0.7877782439136523,0.8919818098042995,0.9607706681655266,0.9084597719720326,0.8152316567050129,0.7269290571342664,0.653170340713225,0.6232173866463411,0.5965014049624893,0.5551579641796867,0.5492823798741817,0.568367233628936,0.5927929849273799,0.5861883864036139,0.5992820637744494,0.6422827512890041,0.6686699022228861,0.6886066665687878,0.7076985343670383,0.7549298227768553,0.7441384962356441,0.7401682858648124,0.7617334274439296,0.7607284135737915,0.720268514082445,0.7014484100538629,0.6990311506763778,0.6744382747588435,0.6708378463762354,0.6708343368888929,0.6708343368888929,0.6707152587581513,0.655911908732767,0.6404781300962785,0.6442356795206914,0.6915627126839761,0.7385240952201917,0.8123626957798837,0.8512748124790708,0.9141534850863371,0.9381489841186719,0.871430590068778,0.7996023085560333,0.7203390328316335,0.6540948124771209,0.6329417508406889,0.6107192403313926,0.6135556904085595,0.6540233678173397,0.7188437194128809,0.8013785429637927,0.8615495686910419,0.8069883917354046,0.7494216299299259,0.6785590019136807,0.6136453259986743,0.5695643609237377,0.5227853491851144,0.5388401917345904,0.5488077824167412,0.5488481908713423,0.5561688254744706,0.5977506955333336,0.6101849986005181,0.6322991364068775,0.6702224729959525,0.6965525046760934,0.7147224933769927,0.7355144870458341,0.7817269844738481,0.7927838086062069,0.7839241048423453,0.7571286286217198,0.7154439741022642,0.6886979691382544,0.6711038934027824,0.6729935606619115,0.6811111189111445,0.6859780085764511,0.7011896269836857,0.7013330896576342,0.6992936503092029,0.676582780572315,0.6965586194322686,0.7165085116494634,0.7747246243467769,0.8071545165092342,0.8682551456995942,0.9256410092999703,0.9860006758935178,0.9855455270883153,0.913120234487983,0.8510436233434424,0.7859188917018063,0.709549171950675,0.6672525742647766,0.6422813926854305,PM
0.19818250105273094,0.21920458000891152,0.28785349362959955,0.36086522664656684,0.4456614792345883,0.517728553201863,0.5900669783907153,0.6585814936845216,0.7103846325894319,0.778662339535872,0.8530639466934646,0.9378207358951087,1.0,0.9925554579774749,0.9354709921121316,0.8545613964054137,0.7905523212026786,0.7072898253529525,0.6223010425007969,0.5373119165815554,0.4526306669373259,0.3830063558032828,0.30799684946118955,0.2230333779078446,0.138047799332087,0.058803841798897416,0.06493066616389775,0.11602155067719888,0.13247862599492155,0.14099909474096162,0.15789918046581253,0.15854151369139213,0.1765995638675264,0.21850348310545176,0.2682589754628335,0.30402606485570605,0.3353582149408947,0.338025124703333,0.327708987763474,0.2914538886959157,0.2593527732713943,0.2538711920710277,0.22061244932303659,0.17219783149181822,0.1791322827362114,0.17984283627046338,0.1595783207360224,0.15977822109511308,0.1805580638948996,0.18400941226434497,0.1840127962783873,0.1833190132964031,0.1641234235446838,0.15789230967852763,0.14080343672562012,0.1326718316337434,0.13266646363134527,0.1388590923287767,0.15769114599985024,0.15833248990339577,0.15552874143547424,0.13448064856543507,0.13265531784287798,0.13004864577963637,0.10890062459872851,0.09437210845672173,0.08267379611215109,0.10219938854054966,0.08731291774514993,0.081319894170794,0.08764786887925613,0.10686694033703681,0.12567626035054058,0.14624087203772618,0.16884569333994293,0.22987979689814075,0.2998391810347405,0.38427099434690426,0.4519161934525977,0.5288874922154729,0.6138251080724926,0.6895762766490892,0.7585078760529855,0.8414370969161435,0.9048421212028623,0.9496016533048621,0.9191933522774436,0.8479631656759805,0.783201035144562,0.6994355641977696,0.6144465966399526,0.5294898356284694,0.45236387132203326,0.384836477889837,0.300168064182297,0.21517893204700034,0.130265350012162,0.0592370526519419,0.054723611496948266,0.09411909870770252,0.10673578514551885,0.0932282729050753,0.09485588870398143,0.11462477969635376,0.13617778933699842,0.1753099037262391,0.2262170488449593,0.2618264486214832,0.2850874137963997,0.30158369277132824,0.3070252356638701,0.27080233933871867,0.23747699520132937,0.21122127080088937,0.17104642491326238,0.15549165052942637,0.13681296867203496,0.15559542546365535,0.1422366670380537,0.1326680467069039,0.127026818991836,0.12035126838201826,0.1325420382192135,0.13273982815250118,0.14458314852299825,0.15498392626275947,0.13425487173087802,0.13266669583974267,0.13883841108341333,0.15769136969259367,0.16251024022993654,0.18255950348025785,0.18617309354676603,0.20125746012166168,0.18431114879796873,0.16569376048505546,0.1529045663966757,0.13311819760780352,0.11492983827525016,0.10699341726431033,0.1069789054126673,0.10697455947538703,0.10247442239030491,0.08259168465588917,0.09486079054691032,0.10729301526172996,0.12505600200105604,0.13982420651133332,0.2028528664355731,0.26665871273881603,0.34900863315551156,0.43397850717822983,0.5097622157097339,0.5786640493267887,0.6632846364860772,0.7454431225075142,0.8097446698224449,0.8864622154454063,0.9439964790842588,0.9709440384640109,0.9271755003931874,0.8456489936727971,0.7623448476676256,0.6976078685941776,0.616358592961797,0.5313707269579382,0.4463815948226424,0.361392597368555,0.27769225008399,0.21260654703285375,0.13209941054325647,0.04892173095972563,0.03590764326734952,0.08322345909873174,0.12860238362433307,0.12666217129524338,0.10777052980964363,0.10699711804315815,0.1166642132398863,0.1387311400238751,0.18601032709658138,0.22613667459713405,0.23532752895017506,0.23529703229422427,0.22270220942464825,0.1884927810424104,0.16678129477806536,0.13527913549402282,0.10640764706302797,0.08475267094599026,0.08130150251846935,0.0814003363797422,0.09378453056527114,0.10711428975255899,0.12418764664532667,0.13381578906102476,0.15391304727895516,0.14660372980170244,0.1328000060611405,0.13287474314122427,0.1489734400146281,0.16900739316256708,0.18376014662181817,0.1839005344576039,0.1717334194516038,0.17835759637980875,0.1832991741745298,0.16250025391397838,0.13671606208822507,0.13265921334239206,0.13265690149619935,0.1326541274468518,0.12961329072098593,0.11685404034012326,0.11827962392106528,0.10705597258406918,0.1069789054126673,0.1069863064039911,0.11274299793066156,0.1568585161030409,0.23468738737467643,0.29933358616318895,0.3825223815134695,0.4583381351880389,0.5272098655752178,0.6118284690358564,0.6962710848926514,0.7631112785627829,0.8409250221843871,0.9074580033694275,0.9460889529104106,0.9348146069013348,0.8711687601126412,0.7864388213876863,0.7014496892523878,0.6164605571170938,0.5314714249817944,0.4464823801672839,0.3621444316091287,0.2960418775629501,0.2171835395319448,0.13220376038884396,0.047448407769644874,0.0,0.04772367908568054,0.09641355041626554,0.106923994463207,0.1069789054126673,0.10699704240878827,0.11737840522313103,0.15202030346488815,0.17491104403947855,0.21642730609922545,0.25404645542785254,0.2610295527020323,PM
0.10293310589516391,0.0825126426573819,0.05789097325513737,0.0353274653553699,0.028447240184995337,0.016526223498782855,0.021202400761316298,0.05482439676592943,0.07683709262230654,0.11528942353200033,0.1726804710110228,0.23341525374416072,0.30728771622248896,0.3759256666887403,0.46219950664456544,0.5487556076929403,0.6240668197851669,0.6936455953590235,0.7799600501184116,0.865842785225114,0.9273757501129731,0.9646543464421065,0.9398265791060316,0.8661699362891779,0.7796421474924609,0.7017353935325348,0.6573312264977087,0.5947694345983239,0.5191064129464538,0.43287828526461514,0.364357868220047,0.29039482282295825,0.22758701187619312,0.1625751683926442,0.08810060237057193,0.03748809789627572,0.009898493021945676,0.02586690172330286,0.07806172919808763,0.14002371331248664,0.1695960676060304,0.19845348186939749,0.2273108532301391,0.2545488895352399,0.24564638917643045,0.20664296251285919,0.1665553912011699,0.1390654255472965,0.10328433047538521,0.08590402243180328,0.08580658293270282,0.08568279735938766,0.0724224577116841,0.060193082851201396,0.08221215170712703,0.06269632744160614,0.06788786188933216,0.0854949538929084,0.08580658293270282,0.08580658293270282,0.08580658293270282,0.08580658293270282,0.08580658293270282,0.08580658293270282,0.08578937024345912,0.07845355919091812,0.057916887821996,0.07058260646207781,0.08560664460270662,0.08580658293270282,0.08678697096389065,0.11527432586843656,0.16608916818817843,0.19520971250289687,0.21660271769272033,0.252656664852581,0.25765290141884734,0.2576601112165431,0.25726217571917775,0.237626425420288,0.21850830380817232,0.1796743019220397,0.14802814473127412,0.1130514308400139,0.08726798613814868,0.07475595879034724,0.0649303432619357,0.08115777447732153,0.03664411398179457,0.02852533410430169,0.02854025150307482,0.03774104155575664,0.08536031654539933,0.14309182170528523,0.20317627104344727,0.2680139854114616,0.345598532558701,0.4218560915389977,0.4904946855446335,0.5767265690519059,0.652280338187051,0.7216240683688522,0.8078784868287183,0.8827045848351043,0.951980320054135,1.0,0.98407259893811,0.9234488256737601,0.8375820313547262,0.7529819568885348,0.6892524194525897,0.6064203104379651,0.520132612814824,0.4511414507211038,0.3752238460215791,0.2886846506542824,0.210973963177298,0.14404058357928395,0.0766749101689177,0.012020830451147546,0.0,0.01745764788259052,0.07088917790247162,0.12854012021859962,0.17486046694878077,0.19978726348125964,0.20752590723724484,0.22808998739625963,0.2069975988615802,0.17519879246111714,0.13269507108281164,0.1026404145800015,0.08590930653185591,0.08571377329356711,0.07554742015696903,0.08327282481415921,0.08568207874040912,0.07242159965917239,0.057705796509280205,0.07707664819003845,0.08578381308148764,0.08580658293270282,0.08580658293270282,0.08585250245629439,0.09724976051788747,0.10773258663502272,0.08664602440410984,0.08586307065639875,0.09822759306995366,0.10678306521988912,0.07077435038094304,0.07931353584100087,0.07814220250578341,0.07145173411771388,0.08561679830359736,0.08588420705660749,0.10020814590011984,0.11993604801716184,0.15688064054434747,0.18681696992916663,0.21571744472578747,0.24568692869404707,0.28168640323523864,0.28626905198442465,0.27637910832042323,0.25749634617942707,0.2371345453245377,0.2185235364623921,0.18987922732774276,0.16876554934973065,0.14400479779003295,0.12152815442357934,0.11086274922239436,0.08643969777261962,0.06383174604960296,0.05716251608011724,0.05286132872722504,0.03919035009100291,0.07868047936897593,0.12427062961215896,0.17923802477802386,0.23347151357515994,0.31449192547648774,0.3778822781556741,0.4622001072813253,0.5488002061915207,0.6347769771757852,0.7010795505801424,0.7799771573203644,0.8624441779972711,0.9213035082997587,0.9427312111118225,0.8947676664027968,0.8163840903434139,0.7503107178016499,0.664380675163442,0.5799060430708254,0.5163269683981575,0.433219082954559,0.34664235453233605,0.2687488198768273,0.20163009507070306,0.12455754893145965,0.06007309051103693,0.028912737667704747,0.03494199578538293,0.07380481727132171,0.11828874398968736,0.18387818326044947,0.20030953952110497,0.2017384317526032,0.22524999084443387,0.20762967708141122,0.18536018782106378,0.12234525041078115,0.09268121655502526,0.08194503722864965,0.058451652480878025,0.06592382369610572,0.08541372428578242,0.08569295106027752,0.07269422392552816,0.06699413341691063,0.08545433908934541,0.08580658293270282,0.08580658293270282,0.08580658293270282,0.08580658293270282,0.08580658293270282,0.0864459052745854,0.10682004558108549,0.11277446884797726,0.09033540345761804,0.0858084277456026,0.08580658293270282,0.08587099680647725,0.0989796620831056,0.11430844358961689,0.12818465500682397,0.15775949882833284,0.1996935264334434,0.23312163341593894,0.2574511861466551,0.28213004220193927,0.3074060578909181,0.2890035023594093,0.2743334178168437,0.23179706216526785,0.2188808092626946,0.1806271814127598,0.16164122212948584,0.14037407630217835,0.10571360588839074,0.07542318745779308,0.07442346096792551,PM
0.16158511326844494,0.13092442508493107,0.1311578520230352,0.15358468866353014,0.14262248210347783,0.15405962895464942,0.18433738369071362,0.19151180105497634,0.186322265947656,0.18488519077962717,0.1767047118344287,0.14529542305479293,0.12293344998630618,0.10860645365170596,0.0859959899751157,0.09860854495454996,0.09939208098987651,0.09941460738056573,0.10523319811065246,0.12197761992334089,0.14308034138609038,0.15454401966054165,0.15927607648937414,0.18469424441850935,0.19381114750357886,0.23630204584737813,0.30231275924366896,0.3555021801252134,0.4192694705571123,0.4865600744824481,0.5521655049519092,0.6041581079460858,0.6501824765513122,0.6977459278005389,0.7375973625034287,0.7920172704056347,0.8473710604521152,0.9141573646717762,0.9699129023355302,1.0,0.9720978997679111,0.9064752600820358,0.8391872790135246,0.7763936164911316,0.722558270537915,0.6557120949913942,0.588465040628392,0.5283171647299927,0.47204528619823183,0.4052535894193867,0.34981351560271534,0.28927364922239507,0.23651874020923458,0.20804242923182903,0.18751815007872707,0.17348514431638318,0.17470698617193037,0.1904840642583565,0.20707287012000686,0.20997413265476084,0.204754442600529,0.17573498623248351,0.15558888352993971,0.15560579836049326,0.16997277951177514,0.17739328916108654,0.1908593139673509,0.18426671672158612,0.17112772135490895,0.15205420215393284,0.13858096029588696,0.15674554091749426,0.17241435074192557,0.17311016616811337,0.165752663057531,0.12852308136807666,0.08774729174173768,0.06737034503839512,0.08019207207313173,0.08565389526918121,0.09902195206650122,0.11051756147467673,0.11807171369720448,0.12989632719780086,0.12338818750863645,0.11927912355301151,0.14109689955477256,0.15680938859496596,0.1954692767048969,0.24867743455008684,0.3152661414650795,0.3740267022203474,0.4315982600879136,0.4987772920476692,0.5648904026369306,0.617665141404196,0.682245038824886,0.7495144274241974,0.8105907284096165,0.8660100726439524,0.9292999892810005,0.9624318359730442,0.9448849776996862,0.8909268424202712,0.8324758427955317,0.7653327363760893,0.7072168538086894,0.6490035011308071,0.5817626231298414,0.5144635436546654,0.4471644641794881,0.37995895021541637,0.32135943574892645,0.2643761688398283,0.21183228032031742,0.17513547269972474,0.17299818887930796,0.1624987856098299,0.14382401507029785,0.15338951974091586,0.15471599235759337,0.16079582512695412,0.1726835090798562,0.1644868535506432,0.17015449988463205,0.16836852176812345,0.1710283689881158,0.1647251327671384,0.14102313943125067,0.15313315260810567,0.16966734039310394,0.160203994322889,0.14445192994334377,0.1421486989054177,0.13628334194007685,0.136272131450621,0.14134477206087315,0.1553750901992883,0.17038423836018834,0.17239250178192256,0.152948182190773,0.11954148921079444,0.08532793798901794,0.049506129312704594,0.050055520416039556,0.062180282784100704,0.06270788757737566,0.0735524416146962,0.09003211763629171,0.09475232531558886,0.0814560992256439,0.09012714157497026,0.11138328008251985,0.12003045209110885,0.1619001074336146,0.21703751292481588,0.2778286123708731,0.3450934879164955,0.40981487470008116,0.46248767356792353,0.5285599510516223,0.5957600627186332,0.6534140112750975,0.7121145388904666,0.7793226491294742,0.8466217286046502,0.9137305801814004,0.967549495791761,0.9768888148183019,0.9359055853582472,0.8701902154304033,0.8136871750922423,0.7538404293606402,0.6865785900890327,0.6198442584307355,0.5657186274733008,0.5031060378596015,0.43590431721461576,0.37712314890297316,0.31954635953566823,0.25285038068235455,0.1984459682538473,0.13897084549266747,0.10468670756144727,0.11496425789912257,0.1178201636707712,0.11598817662080485,0.0933544153789061,0.08111429499295708,0.08190865800526392,0.09679425628650984,0.12260433121856673,0.1484168512282622,0.1546552463954236,0.14826059172252615,0.11813460474233217,0.08753846551892774,0.08098332298541111,0.0810882343803967,0.09151749240655693,0.11373445186549835,0.14000966600007425,0.1476492915549179,0.13641705771672719,0.12777569798138622,0.09963182101462653,0.06955345820957337,0.03691920628170697,0.003980136767142817,0.0,0.02672454990582329,0.04696317702296282,0.06193086997723585,0.06847583663134715,0.0942632255565945,0.0993804963562277,0.09944057834780562,0.10810409754304473,0.12128756874738089,0.1573709668366443,0.2163551857631627,0.280956199487699,0.3336459158641176,0.3997447313885387,0.46641900792522417,0.5199198569663253,0.5832177196561394,0.6505070862827487,0.7162717536334644,0.768873165895386,0.8339721979111618,0.8998042478283939,0.9480211001293162,0.9540193513821045,0.9056768206545884,0.8457898933141403,0.7785283567841277,0.7134468328207628,0.6608395450840834,0.5950630824088314,0.527854778408603,0.46913409061916456,0.41149943185998916,0.3443844617332972,0.28542185185504465,0.22814360811761114,0.1733018069100285,0.15142941640325924,0.13475817109049348,0.13531718309341922,0.1538791976089109,0.15469152173019118,0.15487504125946217,0.16611853068157245,0.18684186774845868,PM
0.02790766519310761,0.05247179688694459,0.08535733167739323,0.13292897679499216,0.2115032461389541,0.2793904758069816,0.34921171354257563,0.4318381085324159,0.5137758882229404,0.5753832778450088,0.6521194043522103,0.7348165755744134,0.8058489152826134,0.8726142758058595,0.9517267216595497,0.9979087228663213,1.0,0.9508629134605044,0.8829559526310007,0.8002766132655914,0.7212833478606564,0.6616013476705183,0.5800020653469389,0.49763365785903346,0.4349539360990011,0.35972116159930234,0.2769793523674471,0.19424620906004542,0.12060250557397101,0.08547991284931822,0.08354042662726435,0.1099621983235517,0.15121924541952048,0.1925725963495042,0.233957590736515,0.27119528778993196,0.2635165995335784,0.24482195679633545,0.22221215116883464,0.19860225626293193,0.1587818011959765,0.1259387471537048,0.1107233515018029,0.11065160965446985,0.11065160965446985,0.11065160965446985,0.11065160965446985,0.11065160965446985,0.11065160965446985,0.11065160965446985,0.11065160965446985,0.11065119244178412,0.10843633790616103,0.08565550867941507,0.08266583991009568,0.08266508745598244,0.08266508745598244,0.08266508745598244,0.08270702499031302,0.09414152369353967,0.1104052982667767,0.11065160965446985,0.11065226122088134,0.1133739153627431,0.1363262954431752,0.14740096860079888,0.16628374146635316,0.16662460676033586,0.16612368438505776,0.14516711280994343,0.1176489050229712,0.09049205805519023,0.08267974634330777,0.08862712230578751,0.10973182308593454,0.11035642664692347,0.09274383672575759,0.08269729753710742,0.08738367583525619,0.10169945362245336,0.06719532118044302,0.054723777991055655,0.05467856525749415,0.05525854561563026,0.0892663541855887,0.1697529283442929,0.25250428842656625,0.3327359501088685,0.39244277387570303,0.47277571804047547,0.5555273555639308,0.6367417375469158,0.695894052654725,0.7757971804451529,0.8520500129574913,0.9076720033688943,0.9457047805599155,0.9286534552893215,0.8673045463146654,0.7932284302893979,0.7296699793763075,0.6473895381340986,0.566462552286298,0.5062072031858111,0.4468872898068872,0.3985339230479603,0.3177587060062592,0.2492075839565846,0.18119314234256567,0.12115172549358277,0.08369973185599289,0.08500324847145801,0.11687486082455933,0.15834262295580093,0.19959411381754322,0.23976712081735663,0.25017185189229174,0.23022919534355157,0.2128990552115715,0.1923866462575914,0.1662920667166059,0.12270693540006405,0.10229660056191481,0.08312759175165496,0.08266508745598244,0.08266508745598244,0.08266508745598244,0.08266508745598244,0.08266508745598244,0.08322665794584339,0.1016247646394568,0.08771747380171924,0.08253927857458443,0.06956700203404953,0.054742618006978994,0.05061350501736772,0.027796824766713968,0.023291051655863093,2.7681199666673706e-05,0.01593717656300786,0.026646400877919696,0.027808945120947115,0.05067387491163888,0.05474345257049151,0.06971539292314688,0.09677119317773464,0.09367781776797912,0.10501918667271681,0.11141085919468718,0.13053858435941557,0.1078986434207172,0.08336768394904492,0.08122905491355148,0.05944722526591306,0.04922642248792375,0.027592316894871516,0.026692043059005854,0.026692043059005854,0.026692043059005854,0.026692043059005854,0.026689756737352965,0.02356271618008332,0.0,0.005337957996891518,0.026144046283238076,0.04986813286700276,0.11243714702317131,0.18280902837521662,0.26545392232267595,0.34305010683496473,0.40424402200554965,0.48572609598339067,0.5684781875015057,0.6505513598333259,0.7129289052281687,0.7887612555759933,0.8680627761820343,0.9250639000530949,0.9685355521049317,0.9496995558991141,0.8827292248770746,0.8123013222409314,0.7451023890414774,0.6624275670797868,0.5828624931540931,0.5236593433509347,0.44215461218820096,0.35940289269348735,0.27921696578774124,0.22991590859037014,0.19023887567456033,0.1209263195067729,0.06567681260788572,0.030774857905341513,0.049591998687690264,0.08096096837019662,0.1221789796587851,0.1635133122728476,0.19653880816610148,0.22069398111015914,0.2170144733491952,0.1902435422854385,0.16263968585407618,0.13504131817893672,0.11085064088571439,0.08882820894215815,0.0826670337479074,0.08266508745598244,0.08266508745598244,0.08266508745598244,0.08266508745598244,0.08266508745598244,0.08266508745598244,0.08266508745598244,0.08361049217228,0.10549989131746074,0.11064330929003852,0.11065160965446985,0.11065160965446985,0.11065160965446985,0.11129915055991546,0.13149420700499714,0.13862390720757922,0.13863813185295815,0.13863880864129552,0.1414280507479635,0.16686527992397338,0.19220065857102586,0.19461071700070676,0.19461112265334357,0.19408097880784414,0.1730573857103339,0.14588499901003793,0.13828392197798145,0.11877748497433505,0.10131959208616692,0.08298317293427093,0.08266508745598244,0.08266508745598244,0.08266472909445621,0.08072254942973078,0.058294589349637604,0.05467955311624717,0.05472214039144063,0.06696746680925258,0.10359140305593506,0.14501218699129748,0.20614835564880263,0.2808376469902134,0.3632142413109145,0.4274144887013165,0.5011110014929061,0.5838433369438132,0.6665879204542371,0.7402391841354978,PM
0.13681369129028775,0.1263235269196321,0.10218245707521323,0.07434897691039843,0.03824107982900715,0.0,0.038997945765445685,0.11387828931706467,0.19041884316653412,0.26696008370996394,0.3416810858827528,0.40193705276870695,0.4761044729133985,0.5526445531808268,0.6291858174033584,0.7056918792929903,0.7749901692462728,0.8385430519022403,0.9028183418319844,0.9175689403165674,0.8587113367985979,0.7952387773402694,0.7258522961480143,0.6493451640139103,0.5730557860328065,0.5092642317273155,0.440164372061719,0.3637329246197232,0.2956374374260977,0.23400198601854605,0.1908585574418682,0.14911508825200448,0.11067014477575032,0.12255476072524774,0.13191348892645394,0.16388346476503557,0.212349076813934,0.2633880028823268,0.31302946481539795,0.3319168779529904,0.3181363266995456,0.2862227371771646,0.24173627714183565,0.21439856950980518,0.18461530503810408,0.1733446191054986,0.18824174397618032,0.18536031429110178,0.16952155365465638,0.1685721121032251,0.1669396524578044,0.15100220979929757,0.16275588303316413,0.1526164713797007,0.14825244530871595,0.1596549747040341,0.16849226853787913,0.17247643195298945,0.19801262898109995,0.2341842672547476,0.2613194853634182,0.28859125749590175,0.29118990928256316,0.27747924381835176,0.2545027077515134,0.2399554211010475,0.21561360006078933,0.19659753093972032,0.17778785955330223,0.1686238590244189,0.16503497307667514,0.14831486095512014,0.12980872742724792,0.09463337150987483,0.04569259038632678,0.0579011635844382,0.13170866374353052,0.20748562525680692,0.268516489582447,0.340861268984197,0.4173916769496153,0.49255817637982524,0.5419580284703143,0.6061584201664192,0.6825960385030281,0.7591373027255597,0.8356198192368005,0.9026308706448058,0.9425413052447671,0.9231604524418624,0.8655078146772417,0.7899906265630166,0.7179866831618322,0.6567369116764912,0.5808355119868165,0.504294863420939,0.4291656472558105,0.3689418722038149,0.29778999873706,0.2432803242466428,0.20116677705061248,0.1553359141122792,0.12897266045496592,0.13590475138675373,0.1608339768688789,0.19748666453431296,0.2572973662184368,0.3167504655898803,0.34905346115506086,0.3499662876541314,0.3274079590445358,0.29238158051258933,0.24962036910152108,0.22260128695575077,0.1940400974601606,0.1890585837793597,0.18905884424948294,0.19387803792428748,0.20682563862837666,0.19114827137936263,0.1890544399364953,0.1890534690933099,0.1892685757384398,0.2013321371852861,0.20947284043369319,0.21101879701521886,0.23593134456839193,0.2740475272810907,0.31196505732836455,0.34080352812026193,0.35267512236307796,0.34450631710072743,0.31950104092547704,0.29556410248767095,0.27633338238528316,0.25742807218829755,0.24784453945748508,0.22623059966048942,0.2099645620829227,0.2018060193168436,0.18275444095200744,0.1567195524363929,0.1169020581315956,0.06967142784225855,0.09305327316669665,0.1524442704257467,0.22608069901748928,0.302620465536815,0.37915881722979083,0.4525364586522551,0.5129156704837361,0.5883053730710666,0.664846175551109,0.7413874397736389,0.8179232341235902,0.8875141709304883,0.9030906526816511,0.8578702646163325,0.785093886678943,0.7245691740697056,0.6492648478919549,0.5727266077326214,0.49927912071900193,0.4387955103968544,0.36401405671969966,0.3014818215942019,0.2510959508308681,0.20702857961707366,0.17087379753236664,0.16857889616597177,0.17409509218196595,0.20691388157935808,0.25331165929588906,0.3200781654614513,0.360913518754832,0.3711200332486846,0.34442172933514303,0.31148190553626653,0.2775375587540827,0.23480501463362247,0.20772301442189178,0.18990599516137063,0.18692900559898584,0.18332497240769374,0.17535875826479908,0.18431615757694564,0.18702277440168036,0.18196390700560272,0.17092889870286898,0.16857461024849485,0.16847049333850128,0.1599205270124111,0.16519179810288076,0.18379502938660952,0.19414134417161577,0.22877782993848106,0.2608781340335691,0.28591019893669234,0.29966027690094466,0.3025661029845481,0.27760763581461356,0.25212794938321714,0.2267521646503532,0.20892124165609838,0.19226785963443804,0.18843111502379006,0.1739474082768857,0.17464582521877592,0.1752786517700402,0.1503169740457313,0.1184211436228444,0.08392100525586965,0.11250152762077814,0.17345064620378192,0.2492905605591007,0.3258265206627673,0.3975954282206078,0.45917805543036083,0.5349750063508623,0.6115162705733947,0.6880575347959272,0.7645987990184593,0.8411400632409896,0.9176176237289009,0.9802331681679939,1.0000000000000004,0.9610521872442948,0.8870696243374563,0.8214614627968824,0.7542577147691785,0.6777770711857634,0.6020032544224732,0.540509155215684,0.4686289762028548,0.39303853635171837,0.3323615170280978,0.27204042677446516,0.2310340832986233,0.1851751584765693,0.16884160030320672,0.1696672693398935,0.19474478277925655,0.24122483468242883,0.2983454657953346,0.35775497600352013,0.39001446710668386,0.38586122277934765,0.3511482574389464,0.31288057089022425,0.27477765153363976,0.24391976456013165,0.2145029963164995,0.20953917119862675,0.2095340801916783,0.2095340801916783,PM
0.7691718645996692,0.7927432634223752,0.7932528897189641,0.8132307026154448,0.8410669101159902,0.8706800697874364,0.8968020518278621,0.9214737261693173,0.949250654549707,0.9654917902483877,0.9458810513517344,0.8896428462194237,0.8445342062674017,0.8023083511227842,0.7728474360651063,0.75871354623487,0.7586265730733386,0.7582807581826705,0.7233362131784222,0.6478398975543582,0.6338097176561508,0.6225540420537499,0.5755249358406695,0.4880362392552007,0.3991917368471469,0.3103472344390932,0.22150273203103854,0.1326591109201276,0.04607712043771439,0.009684696507147983,0.00013289663941762342,0.0,0.0006507667403319317,0.02460876189013117,0.04058815841166741,0.07998128034379715,0.1325060339081583,0.20906985746643958,0.26761235043499987,0.3031612882024204,0.3808304486851988,0.440167451871293,0.3935905278408507,0.38075548539799087,0.41205512556742097,0.4711182485172918,0.5342879424454203,0.5958096497753909,0.6463190581373084,0.7042763147789453,0.76511887591972,0.8368533288445841,0.8858075769662879,0.8965529488370638,0.8986556059870798,0.9272415361322048,0.9310417033172795,0.9310417033172795,0.9310776388030639,0.9411006170551843,0.9651649926971579,0.9656697798827585,0.9857485219730879,0.9999294456252814,0.982461315248325,0.9656381013253981,0.9650462101420016,0.939039233700492,0.9304816536206912,0.9027406892697263,0.8726201395303486,0.8440260783507627,0.8252523340815658,0.7966407989035069,0.7931109798209839,0.7931095991221273,0.7931095991221273,0.7931095991221273,0.7931095991221273,0.7931063089461272,0.7867583243518093,0.7668425903726099,0.7925829852283215,0.8015652146952714,0.8271405020702174,0.8275926251709151,0.8275926251709151,0.8275926251709151,0.8275926251709151,0.8275926251709151,0.827585927312632,0.8168032210497289,0.7931637765331772,0.7677384650753254,0.7857960411698022,0.7931051338832704,0.7931095991221273,0.7931095991221273,0.7931543342071778,0.8038720905053118,0.8460297824298157,0.8644517674982577,0.8934497959273004,0.9111483052916052,0.9403728438549619,0.9625302433734522,0.9275539084644295,0.8672011396127486,0.8288590486385949,0.7824133590135043,0.758750742238794,0.7586265730733386,0.7586230478847691,0.7521135550997906,0.706730536778946,0.6480840846858209,0.5878970131649028,0.5428969212286567,0.5197933479405874,0.5650530453452429,0.5569621463457919,0.4750218863752851,0.4160130140790068,0.38016364438274053,0.3849872852750078,0.44805204653345854,0.5074645994724465,0.5654272614032259,0.6264307385530223,0.6874595916694819,0.7562426308211263,0.8274343916102129,0.8627747066846405,0.8925332127674244,0.8965586772684917,0.8966526901094349,0.9114864145967259,0.9308997346661556,0.9310425552378518,0.9331386320358677,0.9617245621809927,0.9658264225254394,0.9875747479312889,1.0,0.9999997649874297,0.987209502739649,0.9657765548710158,0.9615743639703318,0.9318419667776157,0.901916195612456,0.8855859161371988,0.8566738728624319,0.8257920323851584,0.7954956153052501,0.793110686055269,0.7931095991221273,0.7931095991221273,0.7931095991221273,0.7931095991221273,0.7931095991221273,0.7931096578752692,0.7945333145060092,0.8200673899060993,0.79789867612552,0.8102304820647763,0.8275207969058966,0.8131507691333271,0.7935296490511261,0.8149706497521017,0.8173432159160479,0.7937104982080347,0.7931095991221273,0.7931095991221273,0.7931095991221273,0.7931095991221273,0.7931095991221273,0.7931095991221273,0.7931095991221273,0.793171933405711,0.8048863323222752,0.8286558540396731,0.8563737740648074,0.8851439373066539,0.9129402274798615,0.9310834980707554,0.9495503629823006,0.9422604954606015,0.8864770834165441,0.8365023467255126,0.7975160214438342,0.7675419776775572,0.7586449093605898,0.7586265730733386,0.7577548009710204,0.7251687991457798,0.6651162347131381,0.6057176322622677,0.547966454479603,0.5177039918450106,0.5442947666777496,0.5762920964761031,0.5061458359648006,0.4473647395793936,0.3948247380060437,0.3855195114942056,0.426861394422569,0.4878350864455552,0.5484572313342362,0.594444378831283,0.6706858428094788,0.7331473752614457,0.7833335081141817,0.8390175072758908,0.861916831156492,0.8764555207604809,0.8963969115248425,0.8965586772684917,0.8966931682660624,0.915419384063469,0.9082113417854432,0.8980679008433166,0.9252894294187506,0.9328121421564077,0.9607482738116957,0.9655239068220682,0.9655247293660674,0.9645032290782289,0.9367488077508339,0.9290458535138555,0.9007690144073415,0.8837582213504271,0.8556640255278714,0.813569722034603,0.7919990524357203,0.7639901136144456,0.7586284237973384,0.7586265730733386,0.7586906672767775,0.7705178275709699,0.7928554469466906,0.7930204227177402,0.7751251432877604,0.7753060059637287,0.7930270217485829,0.7931095991221273,0.7931095991221273,0.7931095991221273,0.7931095991221273,0.7931095991221273,0.7931095991221273,0.7931095991221273,0.7931095991221273,0.7931095991221273,0.7931095991221273,0.7931095991221273,PM
0.14382024811189087,0.15139559760838583,0.20455801046986943,0.2870949181413418,0.3482645593233267,0.4024838238300248,0.41576333764739815,0.35955639173172216,0.3006388508201465,0.2790745307815632,0.21170279356727395,0.15129693756434603,0.07950936283588783,0.02677513012084587,0.0015128480209236628,0.0020767552046927484,0.040547220022421726,0.12273018052141982,0.18635791412171132,0.2540112128267462,0.3107017961108296,0.32368819404162297,0.37654832651862824,0.42779024854619907,0.40083830534816434,0.3462016943400066,0.3690415766665236,0.4419892766133433,0.5282389797940183,0.6010758210068672,0.6903771430075469,0.7640401556428196,0.8498085832246223,0.9201655151767274,0.8704664861492497,0.7915372691180855,0.717222661085879,0.6452713990652015,0.5769187119190624,0.5165787716799084,0.47543890367091013,0.4447940743911869,0.3999672961288705,0.31301769544259717,0.22173674121458786,0.13045546729904745,0.04313385141428716,0.004408273993910861,0.0,0.004285941621860356,0.026779829070969985,0.06450982099843028,0.13014948616831656,0.19010529105364382,0.24639619503193622,0.3171689224679981,0.3723347867803444,0.4185634736317003,0.43681078627652026,0.4394621870114195,0.4098117471616778,0.35495543009984853,0.2942160582219491,0.24172978687272062,0.2721822541935732,0.33927546539372466,0.4016829865711329,0.4513183091081081,0.4635611062110092,0.4726120124841171,0.479406509912788,0.48304449118674375,0.5017927816517451,0.5034061991908714,0.5088529540923359,0.5379063207951598,0.5801678148522287,0.6020986205826637,0.6165683901367669,0.5992063441799393,0.5795652502245852,0.5753171386803757,0.5753017840001133,0.5703056282503773,0.5431464925883009,0.5276219841127752,0.531349214841204,0.5535853034501605,0.5903173618741646,0.6412304994559106,0.6797248166844589,0.7216774248111704,0.7704824639789272,0.7568772488605133,0.6928837334470468,0.6270102769127952,0.5722765576937037,0.5270618583206534,0.4928117653016906,0.46811029955167704,0.43436438564877733,0.40147420334662476,0.3486297571379189,0.3216391562704728,0.3563822597934916,0.4303057868210902,0.5088286672311897,0.5848865328983526,0.6676459004065447,0.7519934871478164,0.826753158024069,0.9170794120127241,0.9681106594332713,0.8995532804519546,0.8247095725694886,0.7447975284974793,0.6729959088265596,0.6038097472756463,0.5432758154604969,0.4952569158894877,0.4796093643747885,0.4794183890718151,0.4794183890718151,0.4794183890718151,0.4794183890718151,0.479418445673661,0.4798893616786568,0.49587103696344537,0.5071633569839689,0.537024573825259,0.5856611083215544,0.5992863250860174,0.6086959754415875,0.5975229057365294,0.5839675325658247,0.59719878645627,0.5788364103378778,0.5721406587764135,0.5529906417791923,0.5452582382115354,0.5264097632694931,0.5091710265008991,0.5372058989505697,0.577374281703932,0.6225502157428893,0.6728057643530483,0.7191984480980786,0.7524306870578052,0.7373420145083114,0.6762874419267693,0.6094001409184391,0.5555185874601642,0.5194870378795367,0.48891328568362136,0.460840826708095,0.4414378727809041,0.38784510811001427,0.33136164194326856,0.3238652038065921,0.376666091426626,0.44904922511074474,0.5211849067375933,0.6085055248445466,0.6805940845286917,0.769250338286549,0.8570994664103764,0.9293366147522346,0.9828077617253057,0.9274697858130376,0.8460861287656622,0.772369616259772,0.6922555378458872,0.6200753690130956,0.5521741750331128,0.5008890720908452,0.4799328618485479,0.4794184502942196,0.47908440549552056,0.46435311444473815,0.4655135837423221,0.48811692713069643,0.5029955553540493,0.493061082104568,0.4801531604799196,0.49759895024363443,0.5332203131856388,0.5654757859638795,0.588251954247724,0.5989332090843829,0.5851287481740339,0.5905054336134694,0.5812871014640741,0.5735584732974472,0.5504248202322062,0.5302510744682669,0.5455615310005224,0.5294643324384558,0.5282106357412704,0.5462628711413182,0.5818302554772079,0.6377843742839548,0.677377467224396,0.7365197483839672,0.7970123622044247,0.7895741057207482,0.7306580786821644,0.6769261399280544,0.616783520465189,0.567810647473932,0.5322129300981921,0.5038970057943528,0.48386185441206386,0.44764391582400487,0.4000022385179385,0.39195385856357357,0.44404281934218615,0.5090432918323828,0.5960182965684044,0.6694332029605494,0.7556134364859601,0.8418286937803132,0.9150306825066381,1.0000000000000004,0.9943564943060852,0.9073839344730206,0.8307593121443637,0.7491059425520281,0.6761681324289031,0.609148825628246,0.5484618146463274,0.5071353274603485,0.4892764218524355,0.4794983789146645,0.48265202289344167,0.5016574951792507,0.513698114097707,0.4995945033961786,0.48101422470477617,0.4990348262701634,0.5035331087451778,0.5157787320343314,0.5490957596763022,0.584036473622561,0.6135669799838621,0.6210096647627443,0.5867959419117157,0.5753432567772703,0.5752989183348682,0.5689704402904026,0.5502066479119483,0.529151938781903,0.5072195934397792,0.5006387580981708,0.4853375489914802,0.5209527816580981,PM
0.44752080841196173,0.41520233659092254,0.3632871523391801,0.29932430087281947,0.22415361637521203,0.14737236109126428,0.07511800312777428,0.10350235716842393,0.18069335730962388,0.2590954219089121,0.34832274604973357,0.42725131666722405,0.5174427576112777,0.6066468019594167,0.6862826842673,0.7689566949237436,0.8430454461352364,0.8471042599011165,0.7832504434680905,0.6952382309591352,0.617409416465617,0.5226241134642118,0.4423291925582835,0.3589112483021095,0.29699297043205997,0.27591195844826366,0.3035603629668633,0.34184841449949266,0.39955862389388486,0.4702486545073823,0.5321799156597535,0.5699094102658666,0.550709757162311,0.5032453844630855,0.4479674979904673,0.4075676318546786,0.3862235880712559,0.3938570688601146,0.4078759168175883,0.4257711867978671,0.4631227595149707,0.49525316010181575,0.490116653656417,0.47614962980224274,0.4486876274045799,0.4133243267323041,0.4065392745648255,0.3886665241753997,0.37561744281524323,0.35999954171484205,0.3415645119236559,0.29417549797689535,0.23214822499559506,0.1457587456902032,0.058596942398686735,0.0024322502130336154,0.051627568818635616,0.1364471279379913,0.2195494413846255,0.3049941733262962,0.39801948424017297,0.4750925532574808,0.5694316038931619,0.6578505738251721,0.73805531992575,0.8199221515121602,0.8967293784077857,0.9206181379191882,0.8796755832240661,0.8050724526368551,0.7097455240068538,0.6135938549524615,0.5180906417246574,0.43847748070853854,0.3551266687113781,0.28319481428148263,0.24465233080072313,0.26228341830551694,0.30097268022146517,0.3671593634122412,0.43228206762763977,0.4986523796659479,0.5465099987277515,0.5435989440003288,0.5103137362016987,0.4466091185258607,0.40191750866169773,0.3714206088990122,0.3768998419527625,0.38971852022482434,0.4129040226900411,0.4369384280546127,0.4609563902965119,0.47828537095603574,0.4646017449128146,0.4406177471312942,0.41688645753629316,0.4077104183362814,0.40625359292601004,0.38734398709652096,0.3681088561622903,0.3397035894867968,0.29159379993653145,0.22879648119051232,0.15079597242620135,0.06893899651948088,0.0,0.04575506135685892,0.1412662834768228,0.23386834217143626,0.31117770559628966,0.40462254663245956,0.48236508986761306,0.5739319868871631,0.6555124403762145,0.7412736381505374,0.8173393361597343,0.872815962531182,0.8544661682823307,0.7802307002049202,0.7030900556620061,0.6102121061917032,0.5310943687819636,0.4438460671089528,0.367419249948985,0.294044898101125,0.2487584647621146,0.2724762576724671,0.31074788719318613,0.3597266115275568,0.42373215330769476,0.5061327434570027,0.5594752920583534,0.5663160369083782,0.5333555279831517,0.48107714444447724,0.431426456450934,0.3923059626176659,0.40528678655112094,0.4103607047433928,0.4322325705844148,0.4662537482851943,0.49504862877336686,0.5279446208896594,0.5490936741341574,0.5464719401398863,0.5180323981671249,0.48751017930188034,0.4793713781395619,0.47892969812186426,0.46303198239525845,0.44846975548157175,0.3989125010985237,0.3448103907034814,0.27298777412702924,0.18957077359725938,0.113181152971769,0.0516047594607576,0.0978839192193881,0.17865856352707343,0.2660813576682144,0.3526500893095199,0.43471861292059266,0.520771127290641,0.603173976772533,0.6940545734173371,0.7724280777816386,0.8669472969433807,0.9391363199451019,0.9396327630529235,0.8712557923126134,0.7943951476746722,0.7078976288567782,0.6274455828602514,0.5352939611783718,0.45780323071078577,0.37283623199653526,0.32356914946252546,0.31926297713351026,0.3601666839281199,0.410248604190663,0.47249213943092494,0.5359956182942973,0.5849973483238955,0.5831584725284493,0.5488232024908983,0.4933474709070502,0.4468704988923169,0.4160599719587146,0.4107935708392074,0.4298949394315006,0.4403083312622784,0.47765080276838834,0.5051215661879143,0.5255165660526266,0.5145278025761737,0.4770299658497845,0.4541818180509547,0.4346736770713133,0.4457979283907334,0.44246193273098244,0.4481132753079242,0.4298025683021205,0.4006257436791123,0.336308400872539,0.26980857060577934,0.19715154156597547,0.11937231064920617,0.052998395686519206,0.0977320458053832,0.17579307549268375,0.2688682046380717,0.34631441747434843,0.437170779182372,0.5145748710970466,0.6076789772257563,0.6979181511241723,0.7769615495211939,0.8715905544424487,0.9502047690477884,1.0,0.9658712775563094,0.8867758569359943,0.7949867148230343,0.7173225628356823,0.6226455732003728,0.5355887491666786,0.45424136997168896,0.37493983530526576,0.3218858871856183,0.3197039055496811,0.3530124840140938,0.41192424826942275,0.4713332870398039,0.5321513680908261,0.5880384959261598,0.6125550561460482,0.5774376579256986,0.5293011958718887,0.47591343649716267,0.43666316181997455,0.41180056466913095,0.4277879371858475,0.4480528149570673,0.4768487481849548,0.5038348822202083,0.5302904583056653,0.5377940748670547,0.5264170282366276,0.5017664707945828,0.46207274338644266,0.455464006184537,0.4554457625030439,0.4521562263985808,0.42118342443385215,PM
0.21838340807182055,0.2232072654359032,0.2510599024863709,0.29366384246895416,0.3359428856737392,0.3616364707969706,0.39582454525663713,0.44116077853568014,0.4866567861423343,0.5312774107494291,0.5620501303750827,0.542363050926008,0.5036364358664789,0.46341630051016836,0.42659430943325605,0.3898153927277903,0.35683480061994266,0.3293702883493752,0.3045948756896102,0.2786170494330855,0.24091098183384108,0.2115462310228977,0.1766076074208629,0.15512484888336675,0.14952458024491633,0.15557863937344507,0.1900285635084198,0.22607791102228525,0.25793024431398104,0.2732982783149449,0.253916027647517,0.2586751438294508,0.29694128895187144,0.32603417916045374,0.3532990258247497,0.360324217160471,0.33544182525650834,0.2910081960065003,0.24551216547229204,0.20004000412536715,0.16094313501193924,0.1500687464057222,0.1495020072796811,0.15617054674043662,0.16911316138474097,0.19483954260635006,0.2287122019011385,0.2540511969741275,0.29068095350507295,0.31866691793069535,0.34456888560440735,0.3575191434710412,0.360539646425446,0.3496675199941641,0.3237084901986047,0.29343475331052105,0.26634872736610715,0.2791870773123779,0.3125012988978404,0.34370012101195413,0.3595079592867876,0.36253505739733094,0.3814377059900451,0.3979003259963316,0.4092639311037638,0.4138053803357691,0.41395310407214736,0.4203564115647358,0.41893089709739995,0.3975209745691046,0.3696723100615087,0.3387666998490748,0.31015312348881574,0.2894422931643885,0.26375827335933244,0.24338151192863977,0.24074388400025915,0.23190472277900764,0.23449519199393798,0.23143018253159653,0.22054181709246246,0.21462775840905302,0.20059343869868718,0.19989836392761573,0.20049040978780752,0.19179464411249048,0.17516878394268254,0.16350517708840528,0.1512967500687039,0.13887074437843983,0.12684339023401647,0.11235135437721655,0.0948758545931323,0.08238402086068786,0.09432637602138816,0.1327198876685165,0.16869524168310934,0.19527812075720385,0.21520243339376988,0.22691256677757954,0.24170722439910297,0.2715587656373979,0.31356237549704935,0.3590505862359732,0.40454427865736386,0.4478962419837389,0.4838685500009665,0.5196760483528442,0.5556461664956918,0.586010211507171,0.6135977865193805,0.6453015723131557,0.6689092673681525,0.6982687092248956,0.7334070917199778,0.7636802756086876,0.7595494757156136,0.7375504111475799,0.724818945397044,0.7240638444133729,0.7114586587993406,0.6873184837186026,0.6826239237708405,0.7144715635207837,0.7513883090722133,0.7914908017748015,0.8306362308044981,0.8760607262186435,0.9215572578113982,0.9670172572568763,0.9999999999999998,0.9712435951089666,0.9350358336061328,0.8964504696014381,0.8595540081719337,0.8281247435013748,0.7998936423787188,0.780497799405709,0.7697460044821531,0.760381303202802,0.7649068051482828,0.7706230614515939,0.7789340874432888,0.7875098700680441,0.7935385267158506,0.802633826390698,0.8159800200238829,0.8273739277122096,0.8378847721253753,0.8375789059991601,0.8202226543104654,0.7971061347794242,0.7667671487304852,0.7494952000442929,0.7333814873372522,0.6977333683861142,0.6696316366654547,0.6518992726402846,0.6183495041549627,0.5810984309060008,0.5370128125414675,0.5005585401624912,0.4567280570810368,0.4188735906814274,0.38192110634005005,0.34769054842716196,0.3142764503935185,0.2868146976245334,0.2619806027146263,0.2487431941521867,0.24151309567270896,0.2413638196779082,0.24139921241063544,0.24622875592874838,0.2527779395282308,0.2528872273515208,0.2573850733046279,0.26423301479646355,0.2643600844076448,0.2643811982828783,0.268435531209978,0.2762228406891676,0.2850472046792647,0.28746280149504644,0.29378666926173636,0.3003036686311267,0.3132046845145362,0.33399780492597775,0.35762951549666133,0.3755132219239954,0.35872542899568916,0.33599791453312644,0.31337015152130343,0.2953675812341994,0.2874930396729074,0.2817143063351226,0.254301123895627,0.2331044947583938,0.24742218247522318,0.28845454729074405,0.3337863429003789,0.37220934272372386,0.4134544690491997,0.4589265203072812,0.5042989093268071,0.5422510257090147,0.5498682777529444,0.5132578353788191,0.4730191980903222,0.4346159289475371,0.40066444764722076,0.3709599137587334,0.3469602558706322,0.3263358335940021,0.3145508573068383,0.3103746735226953,0.31035261386711865,0.3103583115227557,0.3127737350609918,0.32375835624106264,0.3336574755099322,0.3439484410937861,0.35534930871233494,0.3705221298436834,0.3831892382125852,0.37846631094842853,0.3552460815174654,0.32584633427262655,0.2992491015902019,0.2763902704673169,0.25104750865025816,0.23250297116321117,0.2198661600463474,0.21317580667698155,0.19845286143502983,0.1808566100757809,0.16773927048410608,0.15298494521270212,0.13720102708806192,0.11316212771370093,0.0965808684532028,0.09783911065949535,0.1158943955721845,0.13670210789941595,0.15731897453369803,0.14345714716388014,0.12759372728589158,0.10843560299216803,0.08945892375564646,0.07179556930488484,0.059261869558493,0.04418098209101906,0.02816844398155771,0.007488908598034305,0.0,PM
0.6870897899805417,0.708904856368143,0.7092733773408391,0.717499474024808,0.7410113083107834,0.7222779403108373,0.7093477892280822,0.7092860973215647,0.7182165025202973,0.7412337250084873,0.7417970595745498,0.7613136429029979,0.7745750436135594,0.7988466904674132,0.8347211104280845,0.8510300800998793,0.9000915930148761,0.9507783999084083,0.9785604022432777,1.0,0.9771777612646977,0.9401198658837382,0.908902918766116,0.8671469892656818,0.824378524038722,0.7818742425267207,0.7456040187204174,0.7416392073496851,0.7416373665589386,0.7412266642999397,0.7181098495986848,0.7113121329512611,0.7380370539986485,0.7416373665589386,0.7416373665589386,0.7416327455394107,0.7350976459289171,0.7102869396270322,0.7098539838776761,0.732355090761101,0.7416300541763894,0.7416375315953498,0.7431915095543733,0.7690209219267015,0.7679239670038571,0.7440512895555607,0.7680925706812314,0.7740076522918571,0.7737814756138377,0.7533638908811229,0.7418079377799645,0.7601437783347569,0.8045798433814193,0.8126484050456675,0.8384577493548075,0.8597220381773205,0.871122470364492,0.8705774424040582,0.8413251410460658,0.786063219921604,0.7561932455824794,0.7174264859975006,0.7092701973456581,0.7092560614717636,0.699533630946604,0.676905493426621,0.6519311206269309,0.656750035846243,0.6766818983560272,0.676940494818008,0.68757053177929,0.7290521002811117,0.7681546914577995,0.7826748990412371,0.7785412206532678,0.7160609205501522,0.6468397544898483,0.5791311762291382,0.4950943732741857,0.43497335134116355,0.35759472833000405,0.2733387332349304,0.2121007616713131,0.15617035480393948,0.10934202184677666,0.04161583333360852,0.03120640031192501,0.06401604568897135,0.132489576075689,0.1971969036192327,0.25080711398130884,0.28139350228970805,0.3410914520862347,0.39758958679293865,0.44053270748321616,0.4984190043921348,0.5569444590504062,0.5996907678666785,0.6386832149272843,0.6462637079980915,0.6724773617725166,0.6768900920757659,0.676890193636634,0.676890193636634,0.676890193636634,0.676890193636634,0.6772026522188241,0.698080264192237,0.7142598967843421,0.7343172533054423,0.7104910384182954,0.7232581183577258,0.7655515786238478,0.8077136761278867,0.8382858493058851,0.8603240334025335,0.9025022420714537,0.9343078398077571,0.935584627370873,0.9063863710392912,0.8554268045767284,0.827599677506381,0.7806090673591095,0.7284681727282543,0.7098884002289614,0.7316173435967803,0.7264808647936194,0.6793041166332561,0.6783393840594734,0.7039667360500905,0.7092645418043029,0.7157367621196036,0.7332446413124041,0.7100663772641527,0.7067587467060079,0.6735549434035013,0.6312064603879621,0.6122829977598165,0.6121330169687607,0.5998935839505828,0.5792971576166677,0.5487330077472992,0.5166289411008229,0.49616992985797737,0.48925323352919126,0.5144751702857722,0.5236523209304149,0.5469669616811794,0.5411190010544207,0.5174361843274955,0.5416691669652849,0.5491758276419851,0.5754534624062515,0.5820896430924112,0.6092377578472181,0.617242962584398,0.6685607078031168,0.7051161649081958,0.6795534258609699,0.6453453498707376,0.6332748854567605,0.6118621260211228,0.571596066392285,0.5459204473436845,0.5192784471079284,0.5150242163775971,0.5150222994161995,0.5164947145622794,0.5400757345385303,0.5185595905168014,0.5150239624754249,0.5153758567825761,0.5381281489673242,0.5810368464949196,0.6360758478563264,0.671091602207488,0.6995104495485363,0.6537146129410996,0.5763434417582092,0.5187733275749347,0.4363088185557089,0.35374952584495656,0.2958331726696528,0.22818154527296386,0.1633771010111733,0.10514272229953736,0.03691991325585953,0.0,0.01780744730617556,0.07383694039727207,0.1340785742444064,0.17670723658509502,0.2197002144391078,0.2818160191637604,0.33532611003758905,0.3633796281743473,0.4102206637853172,0.4628881410911667,0.5128171186786918,0.546971754939718,0.5473989073131973,0.554771107524461,0.5792622356440127,0.5797694342531772,0.5798388154056395,0.5914956538927569,0.6074051209376261,0.5814869567766721,0.579772671505868,0.5864635169148977,0.6116108775119926,0.6209523374377435,0.644160848517739,0.6556013791963364,0.7035742703480832,0.7556289894188932,0.7966310240427914,0.8064482725539888,0.8206665139357003,0.8677178608989289,0.8455921986225725,0.809254761235823,0.7669096242321665,0.7185792052986288,0.6812865381678295,0.6528261494254055,0.6445151367710586,0.6296845354670175,0.6029402857995585,0.5803411098480549,0.567128108305254,0.5475561768066735,0.5473958477920258,0.5451824481458356,0.52037742920976,0.5437015823944114,0.547396203255067,0.5490725254335054,0.5749238141911395,0.5594048319817695,0.5549512229464275,0.579266858891712,0.5742573115662326,0.5487716316832163,0.54996701660468,0.5766257946994298,0.5563950554016941,0.5571907394278384,0.5551155581389526,0.5654281537386989,0.5498062669386767,0.5752246265442755,0.5909600885248407,0.6314961783707087,0.6445061464060036,PM
