0,1,2,3,4,5,6,7,8,9,10,11,12,13,14,15,16,17,18,19,20,21,22,23,24,25,26,27,28,29,30,31,32,33,34,35,36,37,38,39,40,41,42,43,44,45,46,47,48,49,50,51,52,53,54,55,56,57,58,59,60,61,62,63,64,65,66,67,68,69,70,71,72,73,74,75,76,77,78,79,80,81,82,83,84,85,86,87,88,89,90,91,92,93,94,95,96,97,98,99,100,101,102,103,104,105,106,107,108,109,110,111,112,113,114,115,116,117,118,119,120,121,122,123,124,125,126,127,128,129,130,131,132,133,134,135,136,137,138,139,140,141,142,143,144,145,146,147,148,149,150,151,152,153,154,155,156,157,158,159,160,161,162,163,164,165,166,167,168,169,170,171,172,173,174,175,176,177,178,179,180,181,182,183,184,185,186,187,188,189,190,191,192,193,194,195,196,197,198,199,200,201,202,203,204,205,206,207,208,209,210,211,212,213,214,215,216,217,218,219,220,221,222,223,224,225,226,227,228,229,230,231,232,233,234,235,236,237,238,239,240,241,242,243,244,245,246,247,248,249,250,251,252,253,254,Target
0.35884406525254064,0.37765172752789056,0.3890646157429254,0.36562770346886,0.34069817566097926,0.3027045117040652,0.2680312779409033,0.22880995404194993,0.18736197606754024,0.15468240695470126,0.13530717095309752,0.10785123509888139,0.08066591975324089,0.06274085682783337,0.05020147922995477,0.03625565359848881,0.039461050757206184,0.05614368870076758,0.08817188719500457,0.13825108554772303,0.19619332707598947,0.2546319261115655,0.32225754525990524,0.38486696782761687,0.4402421890316748,0.5075510932649672,0.5753160339427055,0.6411703074350577,0.6944899963210411,0.7605980649564437,0.8283617103359546,0.8941487747698424,0.9454046191726073,0.9690460792211444,0.9279145894403649,0.8607759322262774,0.8040848129969929,0.743036027982797,0.6757183520879737,0.6241121343628233,0.5890406091388818,0.5260536419290958,0.45830766247313015,0.39413310747221697,0.3400806190266752,0.27301881575499287,0.20526265733781113,0.14127033978619563,0.08712313955332451,0.02680139438123952,0.0008727977829976474,0.0060563054413593775,0.02943017748377219,0.05794945511241201,0.09958361202040944,0.14748696843353315,0.17613379707371335,0.17680803885430763,0.14694008229973488,0.10665737726278124,0.06636923415432516,0.05284484501194253,0.03909695973704075,0.038520683258420174,0.04478149644994289,0.035587145754063965,0.03544831068789556,0.03566280205918959,0.0465030999429783,0.05348621790718555,0.06222779540459111,0.07127907470039974,0.06326021191494302,0.053571789633870104,0.0550025400744536,0.0704433896197405,0.0896755031766645,0.12234031297363224,0.14936516781853415,0.1861818738927976,0.22068281716891835,0.26101108572303655,0.2973030338509792,0.329859268838705,0.34468408995882704,0.35545583171669914,0.3357656721754134,0.3107729561575314,0.26485197421585704,0.22654259103930885,0.1906214601422218,0.1564359045452286,0.12535299143890155,0.10414237030168616,0.08229041969133322,0.05681731204678098,0.043959196611761175,0.03550736568228352,0.035520584173978076,0.04909837105361081,0.08015247563657146,0.12387375657643052,0.17663030086878928,0.241779001566933,0.29522495106749114,0.36092572768010545,0.4286905963344121,0.4964568770055724,0.564223157676734,0.6319894383478943,0.6997451392583431,0.7625332568953489,0.8177651280055058,0.8850330098232253,0.9503599864688561,0.996289984714767,1.0,0.9575215964935277,0.894009420517691,0.8292495627982208,0.7755108505608361,0.7087297956317196,0.6410186495372598,0.580461546456136,0.5232646631014086,0.4556840470292851,0.3879248054401452,0.32335264145894627,0.2695532811049115,0.20263897821904342,0.13645137942033703,0.08315947991324935,0.02108155371918974,0.0,0.014588303524495139,0.04120860257679704,0.07281642912389064,0.10816108385916445,0.16114273230104148,0.1945218412958214,0.19449548324830124,0.1673864111473531,0.1300530291318749,0.09102304253557758,0.06902928794173491,0.05442248857373588,0.053467678319023104,0.0534675699408651,0.05393662683853462,0.06716987973396238,0.07151219629279071,0.0783769462429591,0.08932484290651699,0.08950585749810935,0.08939544987318282,0.08055865660445649,0.07156335470154396,0.07652048811773549,0.09782310316888809,0.12066314651765397,0.15402923690857184,0.18533325383803145,0.22675928206816032,0.2717784446031546,0.31160451379197696,0.34233239891273426,0.36704143466832617,0.3757798065554012,0.36009948084658294,0.33582322174518175,0.30568627606109233,0.26914842767390246,0.23696940353212703,0.20192331282561193,0.16662264585132158,0.14271912983981938,0.12675137864355213,0.11277613389949703,0.09612306062123643,0.08954399919736034,0.09269126517301984,0.10898765343265193,0.13156419737079705,0.1855588746674628,0.2390043079389792,0.3043941088958113,0.37030145235289424,0.42351430581195704,0.4767100958611765,0.522274471149148,0.5891616891803833,0.6524347981816847,0.7072807267313421,0.77444701623436,0.8417454553980095,0.894615277328481,0.9298134686657118,0.9168147631550236,0.8605708685956244,0.8039824451436024,0.7428951598050411,0.6751648267629933,0.607398546091833,0.5396322654206722,0.4718659847495097,0.40410893958894434,0.3399675186697215,0.2858939362165547,0.21894359098939864,0.16042022410308654,0.10511499578281747,0.062097314804597126,0.06241792990323658,0.07518007816614247,0.10295096467881004,0.14066095223808395,0.17967463116170945,0.21753472883928504,0.23312758047097404,0.21789406263353417,0.18000384364832422,0.1322464335603346,0.10357457896495781,0.08670394751001798,0.08169048123676204,0.07923994164006576,0.07871915257683426,0.08933429919669589,0.08950586233642044,0.08955061403573383,0.09690260301081599,0.10736042210057395,0.10752505417559544,0.10750932353391818,0.10261154646313742,0.09254066373396297,0.10686935984352752,0.12585023100252402,0.15933591170371653,0.1977135947433073,0.2376421142676568,0.28198304124846807,0.31899226483178866,0.3459755228370103,0.3616847803539014,0.37352108000668904,0.3487413511249593,0.3204569363167722,0.2856333797897399,0.2554038308744304,0.21874067421076537,0.18372886737471594,0.13776517136991906,0.10532333210187073,0.08037923973736838,No
0.009185833737835658,0.029893358151213967,0.03518139482329197,0.06636455769603788,0.1242009494613967,0.18713102020374262,0.2364057205621961,0.2723078692082437,0.26693796191248964,0.24470220743106985,0.22262599479384182,0.1866689996289601,0.14813986613291874,0.1068738107741769,0.09180322565368737,0.10968235331255904,0.14859639690610305,0.13965934844842298,0.14369596201193868,0.1527136760109924,0.15224968245976456,0.13165475564376017,0.12217109966815531,0.12216104335175615,0.12216552679281634,0.1280100686174599,0.17458795571116248,0.22121950754401976,0.27385933251256045,0.33043872974877875,0.3831133491982994,0.42745677520146863,0.4553574251021484,0.4813284543898533,0.46012504473506777,0.45147190731440645,0.4199535432323005,0.37760215460745794,0.34436391141637657,0.29503790163350363,0.24581507317122941,0.22713211190337645,0.1946344018094468,0.16260887448713035,0.15198701616778276,0.12774397874505006,0.09546519172124057,0.06564269946380641,0.060945125371637765,0.04984123843496402,0.06216973543535875,0.13450066497002222,0.22186650740843827,0.2947141780610609,0.3551810789906096,0.426033700424008,0.5195276422204085,0.6167936321442422,0.7086575090783613,0.7822759054081727,0.8778305872219736,0.9533318008808012,0.9973390342408006,0.973869847088471,0.8921939962711329,0.8149873355513861,0.7278514613009932,0.6305908245742939,0.533318696107326,0.436046567640358,0.33928288788005734,0.26279793184969513,0.17491797132240805,0.09219492401267626,0.020538962167003127,0.001193315306538878,0.02655388405889525,0.05891913769791035,0.10115033736440715,0.16218948138091438,0.2206274508840398,0.2685795774636688,0.2768055220100205,0.3019470126585322,0.28975367127811413,0.2481512034712665,0.20918565269625766,0.1606681318464913,0.1262034431065686,0.14984878877661423,0.17403655595695344,0.18329790090047648,0.18333093918178545,0.18333093918178545,0.18333093918178545,0.1831259879666236,0.16714495604507373,0.15406664319168772,0.17763554640910328,0.18353109048963034,0.2034713926301377,0.2389207943639331,0.27884517012839893,0.32942158297847435,0.3692757188534772,0.41568113965309905,0.4389729064883472,0.47996176951590375,0.48064870901087886,0.4487760578846167,0.4060333023730509,0.36962001187344296,0.33608442320200194,0.30870796858731175,0.2695902896066089,0.22435991586731951,0.21319034580178453,0.18491423255091188,0.15374120908908928,0.1349697837585948,0.11242387284179411,0.09187470516601692,0.07861940352017704,0.061915195254557354,0.10230804917990888,0.19676529180027025,0.2924144209790178,0.36454085169312567,0.4578202119830985,0.5353698549021262,0.5935964131529392,0.6871890961135207,0.759942488489882,0.8526031354450714,0.9462207254205772,1.0,0.987575284137022,0.9270380300319516,0.8503192209897872,0.7533032327174665,0.6626368757767889,0.5883009220171802,0.49205900166511096,0.39484401233045663,0.3101444198153187,0.2306798085017041,0.14084364670977934,0.06904960914484537,0.031215204715643097,0.04806552695173849,0.040550498712308425,0.07065854857902476,0.11925196266329952,0.16804379931129532,0.22791427243462703,0.27136467191349656,0.27367473814540055,0.24813355703498097,0.20979340796041868,0.18029098456190518,0.12943599707176556,0.09328951957304188,0.09548159759999564,0.11766584505183797,0.10173314795386634,0.12102460024397033,0.12216104335175615,0.12216046720862916,0.12024072159140609,0.10173247753277259,0.11766316336746563,0.09390231579187613,0.09199430017308341,0.11271763673316837,0.13638189215924434,0.18269386421328537,0.23134606551199077,0.2733366480400088,0.31284126085699704,0.3479978756058877,0.36650306656825116,0.36383257257779444,0.3351093992326293,0.30642446923813615,0.2815140806898446,0.26535335837010443,0.2098843170932314,0.18327790499040386,0.16094491436201253,0.14742731769862694,0.11668925651844919,0.09257267699237914,0.09106279077021195,0.07019630028422963,0.05636581436490751,0.017908041104145234,0.04094292040382719,0.1293543240034456,0.2032072633949653,0.29728272580063564,0.3691698432720223,0.4631549662658232,0.560425355828083,0.6562637574690147,0.7290932182430563,0.8216340668571736,0.9073737209120756,0.9430534822223047,0.8920067962579648,0.8154617187603668,0.7285662657097118,0.6313225409485232,0.5405614064485427,0.46630077733821196,0.37057291374877543,0.2938572629736891,0.20611567101324724,0.11457545025654348,0.04327872460486226,0.0008285159871519454,0.0,0.025986978845533137,0.07048514895968694,0.12469300514319936,0.18844851713020283,0.21501015478761865,0.23894175740531676,0.22189287041832007,0.21253655421694795,0.18166339556202793,0.13527848333273162,0.10236415569213264,0.09946516091341273,0.13104675975988123,0.15222845359544834,0.1450184065464244,0.1290593268101965,0.15157112779441206,0.15274599126677035,0.15273078761520598,0.14668461683352607,0.14636424380982493,0.15934953758815595,0.1842177847978963,0.21302957622008734,0.24538506482789746,0.29171141908023657,0.3654162775147656,0.42319920002176303,0.4633383578437664,0.5087897226707989,0.5197229079868046,0.517361502248125,0.49229947158569587,0.4679610161933754,No
0.6930716850772054,0.6261930642680849,0.5514229245455633,0.4766478814972164,0.4062185757602155,0.3490166563267625,0.27517252881674104,0.2010679652882561,0.14356517818971914,0.07410764278503246,0.02559304960636899,0.029882077757899417,0.039859118522707515,0.02470669987595775,0.05536111441397207,0.07623483257161423,0.10078487488849053,0.11398579406795006,0.12048341792850525,0.12527866161680024,0.09933166454636044,0.08345416837973518,0.08766992125394202,0.0644620944029235,0.057383304613468855,0.06833627983362911,0.06845549605021972,0.06845549605021972,0.06861052601539841,0.08157271173047231,0.07354094922533472,0.06846211022181148,0.06845549605021972,0.06845552158263635,0.0691410018339842,0.0859137515309536,0.09275708560628182,0.11191229398463998,0.13410849310826833,0.1635312324944569,0.19560482545796942,0.20442237181791523,0.18492128305336353,0.1626136286919153,0.15661200063072878,0.138207745896898,0.13014833709755713,0.10479952486409472,0.10973658105269912,0.08040212571531224,0.06853580508340684,0.06845549605021972,0.06827946120843631,0.05585847884020101,0.0507907554366005,0.0678630876211348,0.06907465344810904,0.08676589888978947,0.1283696473602216,0.18329602201421258,0.2519043121967255,0.3086638314484418,0.38196108816551355,0.456739179613483,0.5306663486524217,0.5881363189462618,0.6582151404012917,0.732989626987421,0.8077682096227354,0.8823729612161042,0.9429966353592185,0.9962792779673455,0.9965512247306227,0.935230794355796,0.8605033632082275,0.7913277807867445,0.7331608782559016,0.6590179958684281,0.5842580853515402,0.5155688624096602,0.45702668867427754,0.3827676320551259,0.30799032354383993,0.2352691736162651,0.17903649170849079,0.10666780755603433,0.051198680459969115,0.045744362459131604,0.05923776800327696,0.0836044835490366,0.10519765825955618,0.135659135876685,0.13730122405857914,0.15267996595183808,0.1598418974065976,0.15132075832798852,0.12017276483120076,0.11419186330485509,0.1141834062948357,0.1141834062948357,0.1141834062948357,0.11418986689655775,0.11926352435405496,0.13637985192244928,0.12594720288247663,0.11428491033083743,0.11157658586595609,0.09281980418345936,0.0946298916242605,0.11226990991517072,0.09987745682257776,0.11054140459890105,0.09927134272060778,0.11800350648999247,0.15032063042148192,0.1752167370175175,0.18682659868711005,0.20447961972399709,0.1961307016154521,0.18149692435121345,0.16299463315422003,0.14155154294088668,0.1154662606027812,0.10202060751300124,0.08910545368148437,0.07027227522389667,0.06729138389214384,0.04956547447881077,0.04554349957637305,0.036260329322839624,0.022953497282463875,0.03343035822677498,0.04686320339213257,0.06794856164581109,0.10285926285401903,0.17041511560493428,0.23195905765220903,0.2972824281292006,0.37200150959068345,0.44165127911295343,0.4992937493030656,0.5734799867600531,0.648258499181221,0.7230258605488729,0.7907393167099412,0.8501334434706491,0.924367604961982,0.9843986215931473,1.0,0.9453993210345937,0.8849032961428298,0.8185130992059095,0.7437491352802734,0.6689706054506397,0.5946897534587787,0.5363122768307651,0.46748984214170086,0.39272017722601227,0.31800030737837925,0.25339228695890137,0.19755623331918626,0.15676478788785841,0.09632723449869163,0.05207590965915987,0.04560557620426042,0.05084073710973547,0.05848635669474467,0.055169855390644784,0.08998457715279207,0.11892617442949804,0.13651794868541423,0.13701844717134026,0.12991082235676554,0.10570248501957735,0.08135025724374367,0.08543734244317358,0.1032792127662252,0.10420360783718596,0.07655612197351491,0.08967056112232452,0.09079891074915913,0.0705355443997564,0.050104696460681275,0.06700273593028472,0.06839422210523205,0.058026595769387956,0.05552962559180141,0.06824820736842341,0.07010234608446364,0.08423955818665174,0.06931277287794435,0.07392317327924669,0.0928030340356627,0.11272808720221805,0.13288945967727495,0.16229766882753127,0.1969649649234202,0.19326084750037742,0.18045110584696422,0.1527012256885838,0.13700749277011104,0.12220433659714391,0.09396209197339234,0.087871972516532,0.06455084720961768,0.04636019211110787,0.045533605107117125,0.035464335323141416,0.022856931048826024,0.0227275858056033,0.022727964149597657,0.025429497695957703,0.04480137327678291,0.0815727925121923,0.1363691031439851,0.20754489937949883,0.26565559253214266,0.3349006548792821,0.40966640278725297,0.484353101904583,0.5479019189842509,0.6112385248579963,0.6859167782061997,0.7606953608415132,0.8353118192240201,0.896049963019868,0.9342467367821143,0.9172666495699024,0.8655934921557193,0.7932425182946794,0.7184642907920731,0.6436857081567595,0.5689071255214468,0.49412856087488155,0.4196584798132763,0.3590323283297434,0.29264213139282313,0.21787922786829483,0.14501405124334532,0.08865216977940804,0.02082120760178574,1.6199438406250266e-05,0.0,0.013056282571251465,0.03983192134360225,0.06723372422259821,0.0866270240463507,0.10651678675422094,0.1333407909742812,0.11775813649118128,0.09676319614964601,0.07001685359186904,0.0684557629800322,0.06845549605021972,0.06845549605021972,No
0.1626667416432861,0.17058765262768283,0.15491657216022103,0.14246249074142137,0.13704086136403948,0.1262933605339831,0.1240383617580263,0.1108919096059724,0.10253591105993509,0.10610186319267845,0.11021543840223513,0.1188067729047857,0.12602812089189008,0.12607088289888813,0.12641356487943867,0.13810184242308177,0.15480591375867903,0.17426247455200894,0.19850189735615498,0.2157349152907102,0.2321624642800919,0.23744237722201866,0.2362705657129207,0.22352788016419423,0.2157325913829231,0.19212422863232526,0.1720357466565683,0.15775205275163362,0.14359231584747878,0.12691545401395743,0.1118376638314742,0.11012917377166787,0.10343036771400227,0.09357359650385888,0.08123041954176458,0.07833370847947041,0.0780766595119684,0.06731416912987065,0.06689404870202864,0.08501218898575358,0.11517622675836714,0.14541639864776457,0.18210977286875218,0.22780259196694663,0.26616543650355373,0.3160294781137867,0.3662307968537437,0.40976937899172095,0.4458152116251859,0.4724878731665667,0.5194709153564312,0.5695303767171551,0.6092177693437422,0.6542797143170249,0.7044960534136369,0.7546563948272271,0.7959958667100269,0.8393193343223087,0.8895238557701002,0.9376960677542399,0.9746569354655437,1.0,0.9887594175705763,0.9508543162534777,0.9007574798101077,0.8505220431649061,0.8002866065197045,0.7500511698745025,0.6998157332293014,0.6495802965840998,0.5993478028856938,0.5519735412976234,0.5141379854274066,0.4645516386300348,0.4143162019848332,0.3640817873034341,0.31579469014898454,0.27868664157591283,0.22928754403076823,0.1790526777839676,0.13016716548667873,0.0944429484983953,0.06715394479898862,0.0626128548252467,0.07505964542603438,0.09948716475813857,0.11735666494143882,0.12938068303979833,0.1505332002965063,0.1578248154956281,0.15063271249226684,0.14114530923584523,0.12845975297309709,0.11481888527069817,0.09581752076212835,0.09424955403181734,0.09924326248293358,0.10909567386155983,0.09706481767388153,0.10182198106813445,0.11005440497952135,0.11015779427214722,0.109692101517604,0.0994562905496239,0.10527388567467089,0.10197597096274658,0.10509310663224314,0.0944724119325131,0.09859747707971778,0.10717472449132215,0.09492784081182215,0.09424470564540632,0.09424470564540632,0.09424860336781515,0.09836232229927777,0.1074060153645533,0.09497890878970239,0.09429248265943979,0.10171200628833654,0.10850925206549578,0.09551052124504,0.08773211882784437,0.0784145174552986,0.07818578862609948,0.0692423793101078,0.062454597598424755,0.06241852839192452,0.06241852839192452,0.062438987188380146,0.06838501674217934,0.08065083289095609,0.09395433254721608,0.10737631527225311,0.11965386398120881,0.13747508010060772,0.15633452480206733,0.15689376555156498,0.14416264313088112,0.1317990215955831,0.11860871142079343,0.08887605048865366,0.0756355104389348,0.06294487523504433,0.05342043833888921,0.041765861419561734,0.02918858511230704,0.01989779458328833,0.027763475273105076,0.015386576649140338,0.010866956587386234,0.0067856291513930245,0.013005223705221614,0.0,0.0036279247063655262,0.030977981885562667,0.05995602219101803,0.08733725793831049,0.1214111456955127,0.16465089818896583,0.2030995026308804,0.25300116629806846,0.3031985824355128,0.34654082821649634,0.3879341532709346,0.43802982425213255,0.48826526089733546,0.5382941968363322,0.5778493154088924,0.6230764258546593,0.6732939188514004,0.7234503576624793,0.764579011240206,0.8081160458599426,0.8580309628027956,0.8972535899786855,0.9395645274963567,0.9517035462895991,0.9207771019231132,0.8708034306303603,0.8206471323635331,0.7782408300568089,0.7359526758011845,0.6857747726762948,0.6355393360310937,0.5853050401826958,0.5374336226267773,0.4999948889186405,0.4505106780770287,0.4002752414318276,0.35004068415082656,0.3015643736256277,0.26454354506714806,0.2152465834777626,0.1650115746313605,0.11593608843211989,0.07864768769442643,0.048422626605134855,0.05707625526345561,0.07801706666772823,0.09901930789827329,0.12880655471910396,0.1577178889276709,0.18952596373867703,0.20607553590722816,0.22457538774831587,0.24791499283108154,0.2533560190322235,0.2521547568704756,0.2426602413887533,0.24718052082083242,0.23138843823502198,0.23236480672987359,0.24856695247736305,0.24933102550232755,0.23787327590379714,0.23718329486512513,0.2260113355941038,0.2215490188503555,0.21843581759648734,0.2062343479025417,0.2056391780245983,0.20905241631855276,0.22497684204959922,0.2349390723049165,0.21947056777758256,0.20627324173260098,0.20144165304776118,0.1908001225306979,0.20299464417442392,0.19746461047537567,0.16770631192950392,0.1639351713705759,0.17343967652266157,0.1642513988281844,0.1664640403674369,0.1719112037613817,0.16356437267952684,0.17050997871987494,0.15481638981462176,0.14246283478052568,0.14198397152562858,0.14198397152562858,0.14158120729506907,0.13129060330047748,0.1406058151733327,0.14198337736062738,0.14198720378323637,0.14574008994735177,0.16714564115417474,0.18020426029251313,0.203912885721782,0.2080844506243924,0.21926021749820146,0.2073790740672723,0.20563670629819297,No
0.06954044299621964,0.08456931929160394,0.0945805007329672,0.14865574013021376,0.19734162048854964,0.2615755925650749,0.3238401732225511,0.3731481396391567,0.4379198849478585,0.5038178045802724,0.5697122083654884,0.6300871378346287,0.6805275476075225,0.7460585790411249,0.8119261010229621,0.869740983352461,0.9189973255700661,0.9370846961933514,0.9059416485745677,0.8556360405223824,0.790186089632507,0.7242887860948128,0.6607347346494796,0.6126973247121081,0.547945315171654,0.48204711624296825,0.4162845912941626,0.3612950127878123,0.30564323758888756,0.23980634178211524,0.17390814285342904,0.10832635691511161,0.06592734240025733,0.06354795968402138,0.06470195921331756,0.08859869108408036,0.10592912129618526,0.11359384097197944,0.12991219036866664,0.15029765842987564,0.16865165555708694,0.15609285996926303,0.1300060984899063,0.11368288267372728,0.1062727001749666,0.10625154217442079,0.10625152985252617,0.10565274357333365,0.08965335410481101,0.0872648266710514,0.10452377634550514,0.10625095893808689,0.10625154217442079,0.10625154217442079,0.10625154217442079,0.10593295973808203,0.09141023810094717,0.08487767872787089,0.07631754712732253,0.06540340089657448,0.08323124856893083,0.09982276160546855,0.1147615915787017,0.13071068650555207,0.15749138901458837,0.1701487028496329,0.17030760593610506,0.17030674340349794,0.1680275395928561,0.14975391120777015,0.13280417152826818,0.1295159355275981,0.1430729335483214,0.12398289875792301,0.10697099633637297,0.10479180453628478,0.08782937347448216,0.08490083525592684,0.08489952092052633,0.08489952092052633,0.08500345236719165,0.09816323488994971,0.09710762382034677,0.08531562837324458,0.10217974105715877,0.13486211766972023,0.17744354732833933,0.2418164161217664,0.3077141427111685,0.3727336267807422,0.4217320874727135,0.4840609750720999,0.549954917172021,0.6158531161007081,0.6817309847633108,0.7402785367740172,0.7924728338720461,0.8580938905615616,0.9233515941336314,0.9725978590681592,1.0,0.9751120264905069,0.9312905290746238,0.8721494655098843,0.8062629056354389,0.7403688446663423,0.6780174903384193,0.6290374359546425,0.5640221311745872,0.49812393224590057,0.43222629190975814,0.3680065678191178,0.31931590631424545,0.2558822870378439,0.1900126329127252,0.1321107012304341,0.08275063907994218,0.06364635432380705,0.06354843613060401,0.06608175038530018,0.08378480958464474,0.10085792235632285,0.11610256621781945,0.13149431260433087,0.14772234659070005,0.1341371973848,0.11211460294698616,0.09046517512722385,0.08490334892238183,0.08489952092052633,0.08493102560183674,0.09307106838988588,0.10472561515495427,0.09163643009798816,0.10503965597199327,0.11043190782072854,0.11980603648561194,0.10650739913999319,0.10625154217442079,0.10625154217442079,0.10625154217442079,0.1062513244876202,0.10524787244340938,0.09162385242692972,0.09959886857659139,0.08548521728142777,0.08569047069977209,0.10228443134614507,0.11803659039413406,0.13989336580996214,0.15441117423556383,0.16993758049638874,0.17030760593610506,0.17018765065170083,0.1600504029598735,0.164527686174603,0.16493363181242637,0.14950413566944087,0.14895487822693187,0.14698415686167676,0.12910979393410038,0.11231757658026398,0.10581929219920738,0.08999658352866513,0.08490290533418365,0.08476670488527649,0.07391455479442133,0.06360963052300628,0.06422978791842171,0.08033703624534017,0.10097816052354869,0.15010722136740995,0.20630346986294823,0.272127440621345,0.3380256395500325,0.40392383847871693,0.46982203740740536,0.5356829375135534,0.5930312284203887,0.6463831673137843,0.7120628118682584,0.7779582506926017,0.839412628603128,0.883236503866466,0.8938852832034625,0.8649124202287952,0.8046681591458187,0.7387801682637214,0.676855681778,0.6275259075385176,0.5624311962576294,0.49653299732894407,0.4306542704835019,0.3712011241368307,0.31984665599590434,0.25429222286809017,0.18839502201284875,0.12518855485799607,0.07691292279381257,0.016688494676666554,0.0,0.014659246160046546,0.009042436108575025,0.0031602480918566656,0.020506425632531577,0.04254457415359569,0.06276338139274706,0.06354739698417777,0.06351649727334951,0.054207925708614546,0.027667202370520894,0.036354717643028334,0.024300414921467617,0.04059766564601697,0.042843814828823046,0.058734204442449034,0.06768776325261561,0.08401965368842479,0.08981079170836637,0.11101210565670527,0.12722306296828112,0.13399562405650967,0.14894997642037655,0.16411820211772277,0.18553783113393507,0.19481271068465178,0.2117269228570935,0.22331898510224857,0.23509835199798612,0.25209695159819345,0.2558089198227753,0.2686338619523485,0.2784715818541863,0.2962728785772697,0.30573057733699116,0.3193446487711533,0.3084901472066952,0.2984618196355653,0.2926327767255854,0.27726400136975293,0.26317566054991914,0.255710896324028,0.2479122200018029,0.22618702977367944,0.21252066610839915,0.1956540109437097,0.1705710346024678,0.1377348972290613,0.10994997045804311,0.10625353010671512,0.10625090143591276,0.1044100674160835,0.08796655321550473,0.10407741360388467,0.12485584162149177,No
0.08088417392264469,0.07427156529768664,0.08219707967264545,0.09124954534386664,0.09662595354091019,0.10425036955513778,0.11274328426128655,0.1231493212984347,0.12608680954133966,0.1229902128224325,0.11538923088717556,0.11488402480801341,0.10746956381903017,0.10420821554934423,0.11042651032305995,0.1265923258953483,0.1530031407588015,0.18330116304543975,0.21191613425601097,0.243487802359877,0.2711093995214011,0.2968371844911202,0.31830391483276776,0.3231983296506884,0.3104233714171656,0.2891436303474104,0.2641465751348677,0.23889455140960125,0.21084241305473417,0.18720052054045588,0.16301286913632262,0.14175581329214504,0.1261146131912929,0.11529407555684501,0.10631086508875676,0.09821888237273124,0.09336131940120596,0.10076049010968902,0.11755344018806535,0.1398565019630127,0.16905065227776905,0.2082474746417351,0.24220296983156664,0.28376686919634486,0.32626474416189555,0.3619186852432137,0.40086188931465006,0.44353256096766125,0.4862202832990141,0.5288547548411666,0.5658994351924054,0.6033638917835236,0.6459869453847744,0.6886746677161273,0.7313623900474802,0.7740334687885662,0.8130250634962175,0.8486046412707269,0.8911290685158855,0.9338118605008818,0.9737792977882671,0.9999999999999998,0.9944303601064577,0.9556508515672479,0.9129682804097248,0.8702805580783719,0.8275928357470186,0.7849051134156657,0.7423251656430347,0.7058435626484763,0.6677918576301269,0.6251384513299054,0.5824507289985525,0.5397633863730691,0.49776954470200363,0.4638338920245759,0.42268241512691707,0.3799963445814394,0.3373086222500865,0.29463167662231426,0.2548652784217329,0.21994429280617123,0.17754196016432644,0.13485635047616906,0.094075099473798,0.060025964371209106,0.03301966646703813,0.042993307430681416,0.05392165465963883,0.06470991064172393,0.0826765061754402,0.10627785258341382,0.12518156216301368,0.13943815331776044,0.14371942679116145,0.12667727672572182,0.10665626813882012,0.09706082792041393,0.07776722450794615,0.06623670354274025,0.066841782569387,0.07116244280593587,0.07118879524393229,0.0711891077743978,0.07215754697619592,0.0808164037868706,0.08219910743564562,0.0864671707051543,0.0930336696940206,0.09316631941027542,0.09649113620765104,0.10094984225319581,0.10157380000129246,0.09653939840254444,0.10373458342371933,0.10627603601032631,0.11461869495063137,0.11902077578828463,0.12596958551477289,0.12597772058569223,0.11919746048038049,0.11135293831500737,0.1008331019037163,0.09338035960898816,0.09526629759667338,0.10788850532946648,0.12384400949445418,0.15350840508005903,0.18551247121988035,0.21747551411211608,0.2458289700813594,0.26805319881204714,0.2891981240614572,0.2984260233701639,0.28500361305974153,0.26456126343576525,0.24171314208307937,0.2159955148232584,0.18875715637962132,0.162473872873524,0.13646363011314833,0.11097955979986018,0.09116004645986675,0.07203810062218441,0.05499047764223097,0.03464960126639305,0.013897654365251588,0.005426160069613273,0.005523125218735769,0.014001499254073124,0.03602809079678071,0.06305707071295386,0.0931706101579508,0.1288595594998989,0.16710434284950737,0.2094631828580611,0.24427946054994365,0.2841634579118315,0.3268412998217125,0.3695290221530654,0.41208416647198054,0.4481656649083232,0.4866286724044253,0.5292956842388252,0.5719834065701781,0.614671128901531,0.6573586092738137,0.6992424975196834,0.7333385127683474,0.774439373397872,0.8169135961716976,0.8488467822245804,0.8785267806392636,0.9014284958657728,0.9237041502502878,0.9164280294919716,0.877125370995149,0.8344418244964491,0.7917541021650953,0.7490666535329444,0.70702021426132,0.6730196001445841,0.6319854524810358,0.5892997177479826,0.5466119954166297,0.5039242730852769,0.46129307727195434,0.4236429705570408,0.3867885059762568,0.34415761099951614,0.30146988866816327,0.2587821663368104,0.21618976576924487,0.1794242272912352,0.14166344051005209,0.09901612625787348,0.057198687556648364,0.023511322883821295,0.0,0.01354297635361501,0.02288051959646409,0.04305965451458271,0.06130853437610417,0.08342721184177093,0.11119946829111083,0.12947067296804882,0.1432439212793386,0.14010378000990187,0.11929713844169076,0.10474163882045029,0.09648543405949028,0.08311525012746879,0.08217330812970847,0.08217302248358416,0.08217302248358416,0.08217302248358416,0.08217302248358416,0.08217302248358416,0.08217330140862322,0.08306335722170055,0.0916902379714295,0.09315594269212957,0.09370598482427561,0.10143368307955258,0.098003789032159,0.10392522674971572,0.10414641117532653,0.10683921535544783,0.11473331725861491,0.11512563993216185,0.11512570420253976,0.11508354629404982,0.11037332784726117,0.10359647445562459,0.09805792765129784,0.11050903468299245,0.12582737914017628,0.14328467241721587,0.17280015042663122,0.2034468294591365,0.23193995764083764,0.26035368187642893,0.288775325964449,0.3131423098046704,0.3290167397400994,0.3307595885496071,0.3122270039237989,0.29321913869754357,0.26850410616549936,0.24094911739043057,0.21559977700944022,0.19121638180267442,0.16457891231620447,0.14479833165895362,0.12454801257594461,No
0.565739333012738,0.5646537729264267,0.6026048203549124,0.6125244766241904,0.5749896243028436,0.5328643661555121,0.4830160052666308,0.4549637666308355,0.4404401384910175,0.3862347123227705,0.31882916884665446,0.2413797168863403,0.18134979063829793,0.11916564480336023,0.05501002695881674,0.013795772439628706,0.0002848357624518627,0.002069652029702773,0.0375374666903423,0.11923382821541528,0.18280096021280778,0.24357807662303532,0.3073745954346325,0.3541427180881427,0.35869559310883314,0.426800639202936,0.48672770098382845,0.5447763839762327,0.6028891108565224,0.6721232749778467,0.7452863338099114,0.8188274953305266,0.8495637970759784,0.7704775697177269,0.683502388032128,0.6024726472622017,0.5374172730715303,0.48636795878673666,0.43952128801635126,0.3548184144012487,0.26783223364279074,0.1808452398057292,0.09391420481739177,0.020592256299244216,0.0018329180914871124,0.0,0.0028824584382443064,0.025553223288998783,0.053516346435941387,0.10473272449107718,0.172506871380254,0.2225230642064302,0.28205198080543337,0.3497451227086783,0.4013537381324328,0.4505096991329607,0.47846711614198956,0.48790744541189746,0.4847091374000847,0.4482341982724858,0.3945516699362708,0.33650978852749214,0.27983195550107887,0.26735210449984637,0.33996666954529076,0.3893517600637155,0.4569062674192734,0.4862236729129803,0.5200903457706403,0.5312783841790321,0.5313235656013413,0.5391990434592513,0.5575174999506842,0.5699014497295485,0.5909639876533346,0.6130615998311164,0.6356579939209057,0.6392895931949951,0.6754584257549174,0.711349692764883,0.7464411647991076,0.7849108653321526,0.8383183657043176,0.8848759737847081,0.9247405727568347,0.9660011775191046,0.9674739488781041,0.92553444189023,0.881368778641697,0.8268666226410488,0.7766872688254329,0.7250372920637389,0.6814985066005175,0.6423511500540195,0.6079271283017604,0.5849954922220553,0.5833670496922849,0.5630465211596833,0.5557605634075511,0.5396882748293104,0.5569357072092131,0.5610286656785366,0.5872632410288503,0.6097721688636106,0.6136508346393752,0.63520325095209,0.6198443203471546,0.6110282296070402,0.6109882039159613,0.611860082804994,0.6320454174905503,0.6453162128006493,0.6636742810677285,0.6613660233538177,0.6399159153931349,0.6459920087137734,0.6565862574087475,0.6380972936388032,0.6375530571338341,0.6375530014604349,0.6375530014604349,0.6375470686288143,0.6322309794677778,0.6126142071744161,0.6283011131573764,0.6132502577148315,0.6109894128088884,0.6109876379030634,0.6075936857409276,0.5864145051570082,0.5844240998411454,0.5844232323921119,0.5847340286358591,0.6010360077873447,0.6294779642586912,0.6388038235813465,0.6592051372194625,0.648592372105055,0.5960682388079128,0.541786694556678,0.5113134414080944,0.5047444992942154,0.505768432292272,0.5264033467011391,0.5506938704876632,0.6050028377129637,0.6703070569398033,0.7366689207001551,0.8196829357956563,0.883556612630688,0.8953920131556581,0.8182995794171184,0.7516758680642148,0.6657872027790637,0.5829419846184214,0.5183426802280575,0.47916752575827726,0.4972884081794273,0.5595864599007774,0.6011417711244746,0.6109734508356723,0.6126436016848356,0.6335160191284608,0.6375507083672955,0.6377285645691657,0.6518377375145388,0.6724822396240127,0.6904052594525636,0.6960302050122635,0.7238615389114971,0.7637998271291266,0.8064592338598509,0.8389146467713413,0.8890837360446184,0.9313917094184241,0.9675958748725826,0.9624364198902908,0.9199382250590826,0.8620537111121873,0.8048878684971665,0.7589658247142443,0.7074695944184874,0.67156695494422,0.6361619623669705,0.6071048841568523,0.5699575436892435,0.5578596273970584,0.5463973628579559,0.5315304580802094,0.5313829687720784,0.5446069088915744,0.5731875255280068,0.5843707258738284,0.5854630893743442,0.6058060883465943,0.619159474532589,0.6354082734618904,0.6139308112731463,0.6109901951586343,0.6094801673267431,0.5878445063968503,0.5743334029582376,0.5586393622250503,0.5742000760759538,0.5610084778069524,0.553751366320876,0.5417132205061472,0.5745799112922816,0.5607327625979606,0.5578605619373311,0.5578583304600135,0.5578583304600135,0.5578583304600135,0.5579070143731881,0.5675295992335903,0.5814584027557412,0.5601854596631295,0.5583790928687868,0.5750368403929107,0.5660015053897922,0.5834014015003399,0.5844231280044871,0.5844232207934867,0.5844232207934867,0.5844260439587812,0.5877719189485822,0.6226170001210027,0.6594396619990688,0.6814623868304981,0.7134167772492681,0.7292073858922485,0.6879868637898676,0.6441729040097695,0.5867316550675445,0.5575164221496021,0.5372971496851413,0.531303688617859,0.5327583030629608,0.5700842788588796,0.6280429001785288,0.6960016205708275,0.7626892114214332,0.8439328165431004,0.9303068848029259,0.9963556808011829,1.0,0.917539888210742,0.8466301618334819,0.799523177673783,0.7357064319335453,0.6553955476869797,0.6145205403022915,0.6167504209312105,0.6442597289852632,0.6636419602238881,No
0.2039483766777912,0.19373915042396161,0.18464688115430095,0.1727981954439084,0.14185056681924513,0.1095364906150369,0.09367288935417983,0.1011398855227914,0.11060447851790745,0.11572412126268183,0.09532520843839976,0.0975465152650421,0.10250035598020135,0.10177781260862284,0.0913117188744974,0.10210551850229788,0.1259203809229139,0.12135811250388961,0.10936135274966396,0.1036996395396832,0.11536915743380893,0.11199932811044544,0.10178871393709255,0.08981691553869364,0.07729287049559463,0.07436450318121368,0.0903714935930684,0.09788771380733463,0.07833808683510224,0.08371596034777085,0.08800020838910472,0.0908115368892135,0.11424124728332474,0.13558421834930412,0.1676925540204386,0.18909455997810598,0.18960851862871042,0.18899744866354817,0.1778073397774138,0.17922486592798847,0.188023067357034,0.1692645963776691,0.13648428449229622,0.12484438299139411,0.117386773601305,0.09827403299304693,0.08205142360613005,0.08444159245079197,0.08188714285241128,0.07361384596511256,0.07349993614692574,0.07427548506517967,0.09857346789560761,0.13815675040415965,0.1837090894514919,0.23383255357578836,0.28397562633220597,0.3341185514797904,0.38340564278186484,0.42196962852706665,0.4700372315872814,0.5201773878976232,0.5703204606540404,0.620463533410458,0.6705202322632347,0.7129853248002176,0.7564346100902761,0.8065222222194577,0.8566141058519312,0.8998468929299497,0.942179815597596,0.9702750618093998,0.9516422884689804,0.9060568515582559,0.8559253858432605,0.8057823130868424,0.7556980783195208,0.7124723163452011,0.6697902666553164,0.6197236242778428,0.5695805515214256,0.5194374787650085,0.4692944060085904,0.41915156481352955,0.37025771302091304,0.33180249691717245,0.28323510462293555,0.23309264444317357,0.18297255768073573,0.1376028361318049,0.09699504367255551,0.04703783191567901,0.0004295717756339634,0.0,0.016157296391245968,0.02852149170306939,0.034073754811596135,0.056968572402646966,0.08534592501344163,0.10624075978701297,0.1278035053363542,0.15492633365520359,0.16843720206284996,0.186827281049061,0.17211681335208473,0.14118443661081237,0.11097358863972362,0.08913894110333365,0.07666610632743565,0.07368259278373168,0.08314560471132593,0.08798925338428631,0.08841334886708463,0.09865353779131913,0.09657866347897714,0.10084253920666875,0.09056693978892527,0.10728658614620468,0.1109581398361894,0.09373253361129619,0.10956135843624848,0.11705901550612996,0.12443702490618902,0.12485403154721597,0.12027406995366619,0.13096963473086998,0.12341264875595614,0.12572668901960782,0.12766102276654534,0.1168719394972273,0.10214758413710578,0.08860153925653513,0.09768784550831766,0.10251809316341909,0.10762446501519696,0.1238765167364475,0.13303270264594325,0.14781334009099645,0.1702513760896749,0.2012234074494179,0.2262551584533603,0.2354529724175367,0.24496031371148863,0.23392407473139665,0.2222470002728878,0.19836991073762844,0.1806390263269857,0.16484758138738176,0.1698415422297126,0.16130483134539286,0.14888430815437825,0.14046373502080645,0.12656191866234856,0.130805737271654,0.13135796788842224,0.12341466821740221,0.12687268808383445,0.12806143675488624,0.1611833031176957,0.2093044386782994,0.259444792781677,0.3095781102388804,0.3557417360246129,0.3957071830055101,0.4455035212605507,0.49564655434709515,0.5457896271035114,0.5959280553692072,0.6428870065817511,0.6821712209166111,0.7318484192386943,0.7819913886689283,0.8321344614253463,0.8820771921873649,0.9223596789591189,0.9678665748708237,1.0,0.9878398603073228,0.9519700396166129,0.9028808329812916,0.8527381107958507,0.802915872555384,0.7628023315210006,0.7168116025671836,0.6666793961553048,0.6165363233988885,0.5663932506424705,0.5162755020536265,0.47103231594254913,0.4303025338504889,0.3803345618334699,0.33019148907705365,0.2800484163206356,0.22990534356421888,0.17976227080780083,0.12961919805138278,0.07975367110817055,0.0477491269067456,0.06284446883506245,0.07331739064486253,0.07393773527893988,0.08873844632649464,0.11936951157186781,0.13819274185290054,0.15611561206484437,0.17636393322667177,0.18899006245098082,0.18819082500137352,0.16520335633817496,0.139612669568018,0.11705292844506188,0.09368580796651216,0.09983152847459875,0.0894912568100108,0.09846478628229693,0.09216223123264511,0.09437162443446834,0.09680228308625738,0.08825666402343124,0.0998024396852788,0.11537843702058792,0.09527009354941329,0.08809192888688155,0.09521936774181405,0.10280978061330615,0.11331835235752807,0.11702692364114009,0.11317592940645005,0.11073319801480386,0.10186862335995661,0.08793548525677863,0.07680470743301404,0.07350532133453092,0.07350502505577783,0.07690969458984664,0.09670241954135461,0.10262801162327495,0.11300483294686448,0.1471767686436305,0.17319855190686484,0.20193251313596905,0.22702978377154004,0.24490877458573168,0.23468484354258612,0.22219518387591375,0.2169880145017853,0.20183574839545182,0.1812227872261567,0.18676781953904786,0.17444909701391653,0.15631384080900546,0.14500700927492183,0.13322344225363736,0.1315549871120285,0.13155434501360652,No
0.06456848394013637,0.06264527412275234,0.06215378882648803,0.05989291474941982,0.10086407736024672,0.13403292204642225,0.18731154512245896,0.2367792591938196,0.29149287519312317,0.35217430217353307,0.4075733692704744,0.4784279082727436,0.5362112298198434,0.602210817896264,0.6728079106991594,0.7277436826674455,0.7982545886464791,0.8708333256732788,0.9423747879716355,0.9793178839190295,0.9598323399291289,0.9011534810131883,0.842863737997634,0.7774159586903222,0.7052449251984312,0.6471205016142711,0.5813481856823421,0.508785421088088,0.4391313880529619,0.3840328005613882,0.31271334527850136,0.24021248363826864,0.17855313495240877,0.11655921651584489,0.04735978292453247,0.0,0.002833639038117397,0.025145820013907638,0.04398282427305711,0.07187651653913996,0.0947923560406485,0.13294300960783856,0.17426844306381684,0.17930068868486293,0.17330704857003099,0.1580020515922742,0.1474382085983481,0.13568259048642872,0.11805789147148271,0.09393865829684556,0.09263599212572604,0.09287862172745465,0.10721842279189042,0.10221664688617338,0.11122932649355732,0.10311462924573878,0.09271942919647547,0.09462749336027976,0.11225596162469254,0.1143023309547524,0.11060652178738506,0.09377985769029129,0.10439245160485422,0.11424034406028571,0.11430781655491984,0.1142385972379758,0.1042966115330306,0.10275020331950513,0.11410292724559312,0.10390978540519002,0.09824484229347608,0.13353468944327762,0.1560147610246605,0.1801204438536943,0.22535796304288436,0.2628932137961737,0.3082061607791493,0.3459437686745055,0.3910513935532953,0.42772785215282605,0.43930399858765457,0.4338118140770315,0.408151097180228,0.3625821050568443,0.3259424788460361,0.28708327786293975,0.24554152122556427,0.2108425654311601,0.18341269621091927,0.14752754625365228,0.12223940156707824,0.13455689977973817,0.11453427286048745,0.09341905126094696,0.0926357482228104,0.09236719388690728,0.08053170989461034,0.09177760981722338,0.13148005485847314,0.17981634458548568,0.23507754296543526,0.2921182847300958,0.3477919452336855,0.4138286047965116,0.46888755302587004,0.5393414171071473,0.5981335037716398,0.663077372279699,0.7356160217607064,0.8055428418114685,0.8607982527202314,0.9314558273152054,0.9861670324910428,1.0,0.9640810598153546,0.9049068114810073,0.8329604262967791,0.7755082411327887,0.7090029664671684,0.6364928419028697,0.5728755351662036,0.5127912380353847,0.4403663907850164,0.36778616860529434,0.2952059464255732,0.22263002029236967,0.15394341409379386,0.09821520066619582,0.039358182317966506,0.060874633497928876,0.07093275132027665,0.07664940402459086,0.10062686716831104,0.14169198554322415,0.1760645572875954,0.1939922307448665,0.2009112687114989,0.19234427774194174,0.16824864339364876,0.14430009690606038,0.12711270382666973,0.1144655445306535,0.11188794365378385,0.09420347161817721,0.09624862250852306,0.11313407765017303,0.11657824019531526,0.1337251646408384,0.12182641480164103,0.12836173893190628,0.13594968436453891,0.14149130062013393,0.14694355968289496,0.13609640580077453,0.13597989694816226,0.13597989694816226,0.13597989694816226,0.13597989694816226,0.13598011538868526,0.13719003818984543,0.15394459452654363,0.14048504930896488,0.14086654329379966,0.16365190389867834,0.19143425274480652,0.22651668071259046,0.26473615921811655,0.30763382997144584,0.36061520928557433,0.4029193002811584,0.43816996748574466,0.457201373486142,0.45665470724715407,0.4254284459847404,0.3798960927387758,0.3316464083577877,0.28981707138408996,0.2565492417828885,0.21314947742329782,0.1857151715472991,0.15009514988955797,0.11407536980726718,0.09332394038044356,0.08932767591440172,0.072049107964125,0.06376711859953543,0.04950696757048112,0.04389722278249897,0.039964885656169624,0.0658000141663444,0.11141340858092175,0.16621184819728985,0.21543481099715622,0.2637919141221845,0.3228122549496848,0.37759054772056766,0.44766655223498697,0.5144298581315616,0.5716542216165634,0.6437436254197806,0.714668451882174,0.7695012474149312,0.8398015451057024,0.9060601009085572,0.9507315132707381,0.949949428507538,0.9044417209537583,0.8377133741797111,0.772457279742456,0.7139782672453778,0.6416192785152042,0.5690390563354817,0.49645883415575964,0.4238787000893187,0.3518716924462506,0.2952092891027456,0.22780156247412853,0.15582997693802403,0.09935138780305053,0.03433338897799887,0.006524276160390308,0.021398432470247197,0.045486188810662576,0.06964867186221158,0.09978002347778192,0.1358517076644774,0.16352336658779354,0.17859384513446352,0.16550029196279326,0.15405494563372457,0.13668495045572282,0.12129975989262398,0.09812900675968494,0.0926454965037955,0.09263573616167742,0.09269908959705697,0.1025215631581724,0.11416668332792446,0.11428459689213133,0.10812889907472156,0.11145170573645657,0.13077323305581157,0.1150781423023779,0.11455341801610652,0.12922011146750112,0.135951145681394,0.13597989694816226,0.13597775930902767,0.1335694604052553,0.11591617963963996,0.12340539189835242,0.13325015350508718,0.11581131721509275,0.11443640273995559,0.12559483167492314,No
0.18814803450079687,0.22435570400864036,0.2639849963668808,0.30606416155525906,0.3471693840461221,0.37730939188098667,0.370384484883048,0.3469871920797689,0.3178743568743583,0.2823163753278046,0.2438183111924963,0.20571808229459387,0.17426704250585878,0.14552453542709065,0.12485149447802035,0.107642903177533,0.09511474857726299,0.07416585613663074,0.05148407896058371,0.04931527634160693,0.05746539990819377,0.07824272016601475,0.11275225710437509,0.15854112818610444,0.21404552635949692,0.2654763259278341,0.3156547352776937,0.37331442387798397,0.4310150562866566,0.48137348409199854,0.5325943467720142,0.590320015343222,0.6481118495868872,0.7036056578091374,0.7503875674062566,0.8073258705551707,0.8651196695802521,0.9225157797959449,0.9586319210997458,0.943109866432017,0.8928544955268034,0.8359376077180594,0.7890796385422028,0.7336909159109646,0.6758996852168373,0.6181139735793781,0.5636390936446314,0.5162071375097628,0.4588940937515993,0.4011000309798076,0.34330874644330667,0.2875253665791271,0.24077763527237117,0.1840939915064581,0.1263370446822667,0.07403217169005805,0.025981250238907183,0.0011080685588473749,0.011628974819988702,0.01257786463128907,0.016158579685421337,0.044757370546800956,0.07334831315894208,0.09655015734813066,0.1210549176713056,0.12014400933818292,0.08952247221522969,0.05889175413080672,0.04170637660857279,0.04091527837824804,0.04093513335364385,0.045950296521028555,0.05486901660565602,0.055085865740804874,0.055085865740804874,0.055085865740804874,0.055085865740804874,0.055475526025389854,0.0645670815916457,0.059337554543353654,0.06790318285600794,0.06936535725630977,0.07708996822223346,0.07438786321406665,0.08045696050033513,0.07326218945669938,0.06228092975797006,0.05463898914644805,0.04424242215726659,0.03440410855491072,0.03929462827179098,0.047957271430632886,0.05508519021396907,0.06451920956972446,0.09246234629154548,0.12867089282469646,0.16720661050929264,0.20575520918306367,0.24493004946877006,0.28835352374891077,0.33776806215685307,0.36783524603998163,0.37822832051309874,0.35744701371658927,0.32857758530829884,0.2960384299711438,0.2583992057493987,0.22699179751669174,0.19223989542944464,0.16292225576023478,0.13846312421229712,0.11548864267988668,0.08722953828771152,0.07107951986090733,0.056394676401129384,0.05508733983200864,0.056630914123189324,0.07693516656134136,0.11305371230282812,0.1561466146740753,0.207490372436137,0.2646021888704104,0.31152105422932586,0.36665050214606376,0.4244399409453381,0.48222724856746924,0.5369329148571271,0.5842852712947777,0.6414456877682264,0.6992395951823678,0.7570336579541603,0.814827720725952,0.8726204683771597,0.9284958091324498,0.9727539930965761,1.0,0.9765289146732608,0.9267123287367465,0.8690298043776559,0.8154589630321865,0.7672478879850644,0.7097981258810626,0.6520040631092696,0.5942102785360626,0.5373015904970875,0.49059574047870536,0.43499684666544214,0.37720440887223994,0.31948698779739626,0.2683964317836507,0.21790353332280565,0.1601989583127783,0.10300892672939099,0.055611126829834934,0.008865407074903242,0.0,0.011156733424172671,0.016937419670479237,0.036360002846138606,0.06238127606925126,0.08003476762834438,0.10557656369489798,0.11920023958667825,0.10875912627376216,0.07943443738109712,0.05852550538499379,0.05441588376559814,0.0442699805305935,0.0529051131278746,0.06700622523088429,0.061697890527572685,0.06896569219571402,0.06925652536273441,0.06942764945912527,0.07802375322827526,0.08339209020101723,0.0834271849846644,0.08374414198328406,0.09302043676127347,0.08993807260071573,0.09371234775496706,0.09758162769305079,0.09759784460659393,0.09759784460659393,0.09759784460659393,0.09754182165055703,0.09115337069008866,0.0800160391854825,0.06971020070719458,0.06954613869218695,0.07914355040696597,0.09321696359461784,0.10163567872781742,0.1328362444338631,0.16998884821263793,0.207506446121553,0.24872193782566576,0.28929515679432605,0.32617908974418564,0.3558033813905199,0.37690209574838507,0.363964806104482,0.3333468042982628,0.3019181000491078,0.26848751206779387,0.23023681301677135,0.19603432127958298,0.15822952763121556,0.12929647098867392,0.10570023474911094,0.07946859723081001,0.06622530901251533,0.05551346297846971,0.04823680150135745,0.04208315783478378,0.05935345038208961,0.08363456368633981,0.12453680287524671,0.1747683966550575,0.23087280987149184,0.2774589145734314,0.33385989683241535,0.3916529245651863,0.44942706010221034,0.5022059597066164,0.5510813023937811,0.6086585160304252,0.6664525788022155,0.7242386793252718,0.778734174432905,0.8262386500280305,0.8830309967704699,0.9285744710895374,0.9408200722729991,0.9032544995217289,0.8473327011990377,0.8093432706861421,0.7687968462791677,0.71534155133208,0.6575611845296341,0.5997671217578433,0.5419732215696396,0.4848276126511579,0.4375132860028774,0.38275507691771216,0.3249674675208136,0.2671734047490215,0.20961680985328934,0.16106723383179844,0.1079544187971786,0.053508036475685916,0.011606446519730973,0.0012838714978129495,0.011830823775622612,0.009487826714055014,No
0.42762010838387354,0.42762420172487836,0.43050375187520373,0.44393528655091385,0.45189511685842154,0.4754058416454239,0.4922827361758637,0.5202816283408493,0.5424560584353908,0.5662150438838478,0.5904363459358448,0.5972279980207844,0.5756076544093411,0.546294016890049,0.512457512831372,0.4734425258678092,0.44116226915888923,0.4118059014130817,0.3839023542773705,0.3734488919823309,0.3542729960113129,0.3199313442280527,0.30868768600904595,0.28117321984125887,0.24327165252255023,0.2042805578506437,0.1706801084416667,0.1902735453826141,0.24787223558780447,0.2987160365711814,0.31337177058782606,0.31467534292365595,0.31096793878009743,0.28444617934946326,0.22777567050181258,0.16907806877018716,0.110379499838694,0.05186884156300353,0.009386887536987132,0.00035403269790990066,0.0,0.006409840779270315,0.02113441165586849,0.04717655297025569,0.09032097007208151,0.13052642656532054,0.1613173239543917,0.21205541800746586,0.24667522324390312,0.28248570296625664,0.30607423856621585,0.3208100534797178,0.33032021840528225,0.34474942079020554,0.3599426635391678,0.37519535700250284,0.3897641474573921,0.3955622665459688,0.40934541593702223,0.41051271531741174,0.4087173502728034,0.3940310471735988,0.3795790970015087,0.38983424450574944,0.3921681883362562,0.3814428070402771,0.3795876124441122,0.37935952104671644,0.39247847101286526,0.38327363141739124,0.3763501987151572,0.3762999846269208,0.37391468771639946,0.36595178478855894,0.3760910271948896,0.37634889370496083,0.38375987872115314,0.4127675326555047,0.4410773526108094,0.4230777661824252,0.40560993000004464,0.37283568065134,0.3457489965238709,0.3272297557747339,0.3127973114069018,0.3076756104112399,0.2962736335551601,0.2865535165706614,0.26317547085972315,0.26220477323520486,0.29618889432821716,0.3442005909489576,0.39519407457745137,0.4536023600211436,0.5016330464008982,0.5541579196522917,0.6128392498922768,0.6714285176636721,0.7207702762199473,0.7692533924685545,0.8026824090210365,0.8550350212570308,0.9137112918293555,0.9717693886000927,0.9913234580037549,0.9510715892605397,0.8939209512678707,0.8352229710441632,0.7765244021126705,0.7183514463667251,0.6722476982672019,0.6175295233913967,0.5588365664753034,0.5001584139355426,0.4485677757998596,0.4102403430141708,0.38197196349897533,0.3592738680166856,0.34075297475246735,0.32649598355723386,0.331766133999047,0.3419380000895389,0.3421562456837326,0.3515314053202965,0.37379251620578646,0.3847490987418736,0.409140048278799,0.428789639617821,0.45441487913121925,0.4837450121294582,0.5102452531087946,0.5335218930296359,0.5480457195538335,0.5579090931367805,0.5323010034147391,0.4982089389474984,0.465403569051829,0.4309751514797955,0.4015883448010089,0.37649145696185826,0.35697298417371215,0.3426519245908701,0.3420880340702621,0.34208790794084054,0.3420879873556615,0.3425528942570679,0.35493316869669256,0.35918584801355724,0.35919220341400715,0.3560287041364667,0.3428252526009006,0.34208772575389723,0.3408958541317548,0.3271029821383986,0.32498380887662925,0.3249814678522336,0.3249814678522336,0.3249814678522336,0.32487874891358626,0.3158469296955837,0.31605155629533854,0.32487287051207536,0.3191578302851772,0.29601477477646654,0.3052042368165271,0.32826833840845904,0.3500047702319531,0.38429808406892274,0.41229856716574176,0.4069968571156184,0.3849475511432967,0.35679908751737255,0.32754858993397606,0.30438580513901314,0.2912074725955702,0.2868498332390974,0.27419281411747987,0.27850773179653965,0.27510537525564294,0.24516692889939584,0.2537645079066859,0.29823721617046184,0.34322577372217555,0.39949496288541964,0.4531220796561821,0.5000382830242245,0.5585011460814076,0.6171286971777152,0.6673691152229724,0.7175673923190273,0.7761889817187746,0.8348875506502691,0.8935861195817614,0.9522403182851358,1.0,0.9722551118993121,0.9140467075517904,0.855348194677819,0.79666328952508,0.7432082071446939,0.6960223835176524,0.6376603403546119,0.5796302119995502,0.5338924379241017,0.47916819852477355,0.43403422058501384,0.39515601921059584,0.3690150095710063,0.3545431679370643,0.33556898025146653,0.32732013170182084,0.3419645934929014,0.35657631302671167,0.35996930565443463,0.3735534322019385,0.3907196409489928,0.40980239923906714,0.4239438245166465,0.4474210314174978,0.4721421539126087,0.49468509649923487,0.5238356589693494,0.5526016399482621,0.5642094695226225,0.5535943892472157,0.5183996714563097,0.4844451984930447,0.4455037418974279,0.41167298577181377,0.38230577070835636,0.3608254385413323,0.3494743821453241,0.3308645356033435,0.33571582888087903,0.34206987482427564,0.3420880480846429,0.3427099051320588,0.3557034126982601,0.3496472204202634,0.3506663812937556,0.35506160205990556,0.3425780067961366,0.33851153168714676,0.3255154649816294,0.31754561422105176,0.30800408921017697,0.30786732217279367,0.30375079036084474,0.29125333427769995,0.2906101887791599,0.28024278390437596,0.2662078037487432,0.2618461445528433,0.25827708859676557,0.2613015168314101,No
0.40248633814397117,0.425169384770101,0.42556742080843746,0.4016592314192331,0.3729642303231606,0.33443754784044977,0.3019766256618972,0.25866432112345894,0.23238118714840406,0.20803710626438443,0.19039478886515493,0.17549188067053656,0.16027671696860057,0.14213725061020854,0.12043681610400991,0.12711898975023184,0.19867210967430715,0.28063464431761176,0.362660725997336,0.4424344119410213,0.5067336069803603,0.5866571007306476,0.6686735206041341,0.744904423815437,0.8113114599485778,0.8925094023536486,0.961670258042604,0.9996752848883217,0.978069864974028,0.9090668709681182,0.8303098201663666,0.7656597310320059,0.6851408431104256,0.6031356754788724,0.5282020144285249,0.46076191536494315,0.37912196283513167,0.30028333857837897,0.23574771173585285,0.16746982785350495,0.14243558491287178,0.1468814271970853,0.17302470057801322,0.2067708126337391,0.23980554255172892,0.251908129477298,0.24150585323871887,0.21528718891612675,0.1880007172603113,0.15865827489347994,0.14223042697689303,0.1474366012177053,0.1631118814404715,0.16341875968237574,0.14913664069750387,0.14098362389770003,0.12498679972368976,0.12023298534228077,0.13656777381230611,0.14643968100122962,0.1776919131281618,0.21042647702943906,0.2579657938043449,0.30316089234360843,0.34427314859880287,0.39245152308547304,0.42613620268840435,0.428831422981085,0.4251167907325297,0.3916943453815338,0.3417714611594036,0.30230524192584163,0.26986449111154176,0.23992184631394098,0.21250555725430598,0.18780445159572245,0.16794191089046162,0.15822374021541608,0.1327328675571633,0.10211911723318146,0.05524480366107465,0.07320091883990498,0.13609967926702105,0.21666424938951634,0.2900148886484577,0.35887751291228076,0.4406481656814538,0.5131358704504456,0.5828463106878212,0.6646938513233165,0.7417133935010778,0.8074856555101055,0.8861145530397581,0.9365687761033641,0.9433310738310574,0.8842366238233659,0.8026815094405855,0.7206690450118511,0.6440516307829629,0.5781521583077787,0.4966610767785853,0.41694187098573954,0.35257731332085607,0.27284598233301427,0.20336382779450712,0.13851559850481632,0.11977156730755656,0.13137570812243293,0.16667954536862872,0.20030225787042788,0.22762329975996654,0.2498662606558275,0.24485208519031598,0.20977806098439,0.18643520382962597,0.16310134799577014,0.14689357295858851,0.1623176931546042,0.1637863030605895,0.16378692222521174,0.16376206274142246,0.1561585149288267,0.13593478704400574,0.12008716558823762,0.12175674384571478,0.14104740147332384,0.1644275543572533,0.19213449895330248,0.2320828266385444,0.2906384847277943,0.33431537451156723,0.3753302620652619,0.41503570243917753,0.4430855657033619,0.4416224130351707,0.4147095449323541,0.3830068321544231,0.3456550684770443,0.31298958346090666,0.28123641551763257,0.24326360951768677,0.22904157703603722,0.21083115380569728,0.1884947226505136,0.1557084040015857,0.12655275543816646,0.09855060340051214,0.05327506142343896,0.0,0.042928232090391205,0.12013900120950982,0.1852938270427691,0.2663379683490672,0.34351230506784436,0.4091625107999568,0.4903369172019696,0.5723641684148713,0.6543914425597928,0.7364179828799795,0.8163326545818546,0.8754706779975319,0.9057973340234264,0.873010223850712,0.8064635928120163,0.7306201434333595,0.6642133914717503,0.5826729350817881,0.503244033228464,0.4387865918325473,0.3586773515032724,0.27746823309793234,0.21169104924397208,0.13949203893688633,0.10130982462718174,0.11371510762666581,0.1349735867007671,0.16221244294750958,0.20078992016494457,0.24973100626019296,0.29172899368377436,0.2871787134166972,0.2561538239065966,0.23055516033300716,0.20482045874798205,0.18701369897764497,0.18992950800616537,0.1971914143453466,0.18509491045445747,0.1682306133842113,0.16378414526393348,0.16004700934220262,0.14284183124096472,0.1417016178488959,0.1445866017199009,0.16866987710584924,0.2029163152301363,0.24485026562654122,0.2881526753277135,0.33307847486321407,0.38214327258888225,0.4345505887125656,0.4710400876441665,0.4723240846442769,0.4514793363907672,0.4195215059736035,0.3783067544264176,0.3289147206411025,0.2942499702673551,0.2716289990294758,0.2411005166894089,0.21911580084112092,0.1930675453488364,0.18296439813243737,0.15955522387616483,0.13087686487587424,0.08399761413025653,0.07714221204492988,0.14264188804615152,0.22398754466631177,0.2900561103036381,0.36648872235439267,0.44838351003251153,0.518748385489852,0.5905783656611079,0.672493257781932,0.7522158811017228,0.8164909951737584,0.8962407979539346,0.9642393916875003,1.0,0.9700069647188059,0.9048878076860802,0.8232979764353496,0.7441593785215481,0.6796090533945964,0.5993023756578166,0.5172751015128916,0.4352478273679701,0.3532270873034098,0.2748578878457688,0.21007705792984055,0.13770362573784833,0.1197977737134921,0.1317681027829023,0.16339912035737392,0.2119964061386752,0.23629652569089332,0.2516182521827117,0.24996495670152852,0.22248909499727265,0.19090903915418167,0.16282835067129975,0.14370530716532892,0.14169973742300446,0.1416993246465892,No
0.04739721905650729,0.025871964642875778,0.05074668572316865,0.04112814392063413,0.04864878699570108,0.09206824051141238,0.14260387989043055,0.1995388126204971,0.2605417794592024,0.33576963318293007,0.40139681289687923,0.46578222056512963,0.5237934590776727,0.5751577211003376,0.6392426734666938,0.7046975127880395,0.7803528941778857,0.8561065576901856,0.9297007748618378,0.9575126546546859,0.9224982810565145,0.8601821954583415,0.7880288110149691,0.7291875850625424,0.6545719901608611,0.5788175820596972,0.503289204691697,0.4402636332988079,0.37296207854237995,0.29724028600000363,0.22300924499147223,0.16429146149193663,0.09185502267938528,0.04758278098414914,0.060443602739985725,0.07992686091874601,0.12106133916548867,0.16969487002301076,0.21474934427663017,0.25635896209637643,0.27338857547046036,0.25749345350316544,0.22733981213655063,0.1830804664438399,0.14837762270005994,0.12437698746831494,0.09555134223873152,0.11641616878111094,0.10927960529634717,0.08622728382492051,0.09373570194792746,0.1027085217960444,0.0945329267763464,0.09710832145116388,0.09378182716445105,0.09177479368585217,0.10273628586513306,0.10224371658147335,0.08690736629046647,0.08822429850383706,0.12894108620121036,0.13701167441886675,0.09719722942453801,0.0818340941965432,0.09621983334847029,0.09369472601543993,0.0685755079303747,0.08696201921210012,0.11207566705824279,0.11734861855280299,0.12395938586605659,0.14276610610509222,0.15634209177185454,0.16776690546483053,0.18370855033543831,0.17663606980082536,0.140967939952791,0.10857087478752359,0.07892534463361933,0.048214621246487344,0.01865586855496071,0.0,0.0023838426467666096,0.02992586068580172,0.009866480024189439,0.0004437570793895951,0.016432715238214435,0.0326149281982282,0.062158197299995166,0.09773126679008337,0.15444792598062262,0.22126678405625766,0.27976986646612234,0.35265471151689054,0.4138698396769591,0.4830725043220152,0.5588059412689428,0.6325506619548915,0.6909080555610179,0.7646260709323447,0.8357662318873653,0.8927676553564781,0.9327194738099052,0.9069563253910791,0.8332378608560105,0.7590074155185706,0.7002896320190346,0.6274176389480846,0.5550403968469544,0.5108624650528713,0.4462297640614614,0.38746909479992064,0.31296248947825633,0.237283378693963,0.17057390941525474,0.10705599499458618,0.04646768702024451,0.04003988556536431,0.0654377749432058,0.10478222933448933,0.16051081790013333,0.21000320543733375,0.24538902596502643,0.25214126924922375,0.2287347455430444,0.1913890734071484,0.18064245433298431,0.13590491288135986,0.09208611283172452,0.08372888092108921,0.09441682058258305,0.08233572232822262,0.09760341340500744,0.09286910336928011,0.08182645552802459,0.09417760887157911,0.0956156709703122,0.09195178438987783,0.08760189254983919,0.11529693976813116,0.10513156909976429,0.10285239797381518,0.10272054072772185,0.09201849753786062,0.10644936429221019,0.12093796798983902,0.08780193174558892,0.06835225828593083,0.08082687528754873,0.09764892544565074,0.12321553871420488,0.11048580104686723,0.10633788465585647,0.1249337484863502,0.15246212881779586,0.18572959072246764,0.22422097899625681,0.21626230611606934,0.1956905849126107,0.1587946510886904,0.11323139809775862,0.07369466169666428,0.06158964096564512,0.07821944219403543,0.05803750055029688,0.01899443999816075,0.02257741224022425,0.0362306908784098,0.0200124131046282,0.03197831414315466,0.044453851401269784,0.0491376879365113,0.07614140910922318,0.13325121996368372,0.19409319524522184,0.2615414298603951,0.3300542242632081,0.3919446324659326,0.4673295158367412,0.5415095991716719,0.6001089089509479,0.6731561106121196,0.748907668173628,0.824627372550855,0.891505354851629,0.9545165540425891,0.9999999999999996,0.9785590451155124,0.92214588402789,0.8477096798691552,0.7843057207462096,0.7174277384454348,0.6417084063626421,0.5674148704697148,0.5195204635449673,0.46202692594541306,0.4023073272473998,0.3272557740256472,0.2516162122320975,0.18699754468603924,0.12137088618429637,0.049387061729417425,0.03593943360940388,0.05845100589007224,0.0878721911788043,0.12324696582466332,0.16623123426575015,0.20938004809429556,0.23148092903613726,0.24746307332644513,0.23003001953802826,0.17838583991421775,0.16034538677120969,0.12442544755826868,0.10234662538798922,0.08374895856868747,0.09076938841151616,0.10906323045229671,0.11709664220770621,0.08782982631978342,0.08089340504359743,0.07354549220818507,0.09479958619652384,0.08309504091012032,0.08660818978679208,0.1021960341668482,0.10315974367518832,0.11738043451039015,0.1300383224226831,0.14289155500682815,0.11113614177068065,0.08979421825708522,0.09861960680207371,0.08247572642924217,0.07459137209862465,0.0797227398643705,0.08141802497243322,0.0863176232334939,0.10052077736455312,0.07280543545832519,0.0900906273476978,0.13581157326404814,0.16453965411981164,0.16896165126748874,0.18581789115361502,0.17060870325397293,0.13329223883828556,0.1049010771316028,0.10056862992644922,0.07051321506099839,0.04992565716978481,0.059854420174866085,0.05743076463312713,0.040215187267953034,0.03853202183947246,No
0.08970428536801389,0.08833025692438135,0.07522141903822144,0.07264368687664957,0.06004969171850538,0.057087965510337124,0.05014737597024688,0.05282689864135959,0.051349019261643924,0.042842665521722,0.06367169872459844,0.08782397548444898,0.1149255301869303,0.14216657999663695,0.1780428255600741,0.2089841237036123,0.24485266362798397,0.2810797037217432,0.31729343966565837,0.3463194041262678,0.3635770958882163,0.3664317492839664,0.3560718958317035,0.32960690087311306,0.29746992867886446,0.26722597398327785,0.23971115282243982,0.20582844279996104,0.18349754305245636,0.15864151860450804,0.13150900798143228,0.10463078716423047,0.08965794542215422,0.0766733826842092,0.06002609952382265,0.051515428219993886,0.05073701084453397,0.04373360922899572,0.04100248134055162,0.05356401980680214,0.09485946073008611,0.14872476673640334,0.1926488576950871,0.24119267662215327,0.29544811118525427,0.34937676847258325,0.39210649358233907,0.4420323010293967,0.4963055058734507,0.5505912882216113,0.6048770705697728,0.6591627766589179,0.7127362414495009,0.7544214765140751,0.8057375612924162,0.8600134920157516,0.91027557155657,0.9508670165581057,0.9804516289593326,0.9683499339204364,0.9295237207913027,0.8763057535335306,0.8220683180284314,0.7750776933816668,0.7296380978157377,0.6754485876223826,0.6211628052742206,0.5668770801203222,0.5129978778780533,0.4705611158315448,0.420298654995646,0.36601962823786316,0.31173384588970166,0.2574499669176187,0.20513580371635687,0.16409457097731117,0.11087627961871904,0.05699740147726873,0.015517530354531406,0.0,0.009228085650862194,0.02840641125822918,0.05612760168149933,0.09012547838909901,0.11609430656533837,0.12197737347653037,0.10942720849508492,0.08342774060303881,0.06887452286915074,0.04470046708536923,0.03097186239019889,0.031592063152565686,0.0335452902762543,0.040799673906363854,0.04084779197237731,0.04084779197237731,0.04084779197237731,0.04084779197237731,0.04084779197237731,0.04084779197237731,0.04084779197237731,0.04084779197237731,0.04084779197237731,0.04084779197237731,0.04084779197237731,0.04084779197237731,0.04084779197237731,0.04084779197237731,0.04084779197237731,0.04084779197237731,0.040847696648607545,0.04007183617267218,0.027478222309607947,0.02456461416745359,0.02456205726792904,0.024568812858308142,0.02859213437056951,0.04079827973305461,0.05285741800920629,0.06714202496334476,0.09353946824652626,0.12564440941456034,0.16175707179087206,0.19301479718297054,0.23389594426909044,0.2692682307154022,0.297399342320098,0.3312259860801059,0.359497628844768,0.3808264657882785,0.38257763035094916,0.3699988684424884,0.34322354007450606,0.3160766512832929,0.288568261612014,0.2539215578999996,0.22198299074690153,0.19266076815658462,0.16474244289924567,0.14559214888944227,0.12736864430064054,0.10925509565662983,0.09125317755643891,0.07522407126151531,0.07341964267635515,0.0734192613812743,0.07358234813115727,0.09155281437356111,0.13624959256527092,0.18157451698425753,0.23393149762155963,0.2751085374073301,0.3280202913118595,0.38226456980627077,0.4293908566750022,0.4747181229594095,0.5288769752823481,0.5831560020401301,0.6334184628760289,0.6758552249225382,0.7297344271648054,0.7840201523187047,0.8379488096060355,0.8806785347157899,0.9306039608677668,0.9826740319530622,1.0,0.9790188582928279,0.930580810377506,0.8763059823105781,0.8220232959968636,0.770707211218522,0.7290219761539496,0.6754485113633657,0.6211628052742197,0.5668770229260605,0.5125912405778981,0.4583180357338432,0.4083922282867878,0.3656625031770311,0.31173384588970077,0.2574480635415415,0.203210399259393,0.15621977461262837,0.11078213961703964,0.059022138100706556,0.0413680800421079,0.05348035245563576,0.07554258422912863,0.10942527518685408,0.13684382419288532,0.15808936431381948,0.16993840368022628,0.15336114256066136,0.13314647491882203,0.1193277823209895,0.09624293935644612,0.07526238375704963,0.07341964267635515,0.0734192613812743,0.0734192613812743,0.0734192613812743,0.0734192613812743,0.0734192613812743,0.0734192613812743,0.07341949015832272,0.07448692395362988,0.08773147356274569,0.08979936486445039,0.09864745502276007,0.10594261272415828,0.10596038300511079,0.100218419584015,0.09021385325537024,0.10135139472227106,0.09516149115675221,0.09517406866085976,0.10572394712748245,0.10599071172541707,0.10599073079017085,0.10599073079017085,0.10599073079017085,0.10599002007246261,0.10461599162883006,0.09150724906643948,0.08970537738080342,0.08970499608572258,0.08985674725929194,0.10025928897907388,0.11387329421422354,0.13654147471824718,0.16013432077925627,0.18941152133800454,0.22135046978618433,0.25779904518383656,0.29842270423083317,0.3300406873700523,0.3621783702820105,0.38864336524060006,0.3990032186928638,0.3960335211230426,0.3730700243527454,0.34593782919191396,0.318787057172091,0.29164810642088224,0.26450915566967215,0.2373583645850954,0.2099811508391971,0.1764582917202202,0.15295342873020923,0.137898180255291,0.12210527221137557,0.10693184463238481,0.09690551347824217,0.08974578922176457,No
0.09256345787240683,0.08941565354078129,0.08357398856440224,0.08534777425661177,0.093210884400587,0.0829207292569083,0.11245245319959851,0.08281850649312572,0.07669470023128744,0.14453136252122256,0.16647577352174503,0.13136584892035685,0.1158639268185877,0.13208039926378357,0.16746014020244893,0.2269894059544435,0.23434188976039438,0.2365593086235882,0.2607792158037934,0.24450538978545078,0.2148456679486288,0.16538816098450937,0.14250225372665826,0.11771356921353116,0.11925785092561014,0.09352004324734331,0.05447276618027441,0.04804993241512445,0.027111985139852468,0.0019168473163038158,0.0,0.06712722474729516,0.09157696821761752,0.061838576705873116,0.08993564276785371,0.150021472519839,0.23467654386824632,0.3063815580553899,0.38884210067425284,0.47759549907886667,0.5642761640271261,0.6340019086039868,0.7199816127462939,0.8064006821808021,0.8738072381318749,0.908983487096275,0.8753479435665894,0.7945560149228128,0.7064395417587437,0.6342457402772506,0.552179934703259,0.4635593380235359,0.3862813953663031,0.3097191539066988,0.22191672248256422,0.15070888266044413,0.06895944746945792,0.015405444198481888,0.04643444410526243,0.06779241417056081,0.03186461841129429,0.024343462143675332,0.06973921274220363,0.13492739517307095,0.16857763080764965,0.1809623677535077,0.18117140694385725,0.14465638156661864,0.10993045311409633,0.11512339590241583,0.08109878370030943,0.04825121379468911,0.048656628487261155,0.06576046308600292,0.06439380521585303,0.02459913742322639,0.03397089205638615,0.10699864593038777,0.10339713876499568,0.04513061172524013,0.021974494843201686,0.006605075479174438,0.04148236908045799,0.038620747151895785,0.01315832712028353,0.042615412244194406,0.06765856381256086,0.0773348938750602,0.13546840982173602,0.1669914728982853,0.15647773487884953,0.1768430273353938,0.23108976249255386,0.29583430168346014,0.3123718242488267,0.2891958240210939,0.2537736583174559,0.2633623250528285,0.2439013929699878,0.20474036025557085,0.1481792687349004,0.1231235630663523,0.12159272786143527,0.0988207732894355,0.11400454917255098,0.1436448544680844,0.11246901924811503,0.0849921148700079,0.11905425962241711,0.13413395273450313,0.08138333104079543,0.06313320372756381,0.11878903896575554,0.18574856054043964,0.2667515295260787,0.33695790718867835,0.42148915331190073,0.5102516335447169,0.5982138527671084,0.6690318279893401,0.7526501833203185,0.8412072920263358,0.915764975070879,0.9492371933199828,0.9150701033703279,0.8440983508869633,0.7686869342332447,0.6827638328200307,0.6130791444403001,0.5266891294256522,0.4517882315985422,0.37281668370854826,0.28436662339839947,0.21044370776893073,0.14356595508084435,0.08412681438111047,0.08784448198726169,0.08509218467963375,0.10146540989242192,0.15963913851792766,0.21656319244681166,0.2428907483127385,0.260747757465293,0.2364453040132184,0.2177936445550528,0.19266836285105304,0.1495527494895077,0.12789420151674458,0.09803415239222923,0.15285622854624803,0.20513724213983542,0.20805569743988483,0.15978425377449534,0.14176202446727704,0.16799633602378172,0.15804925182531804,0.14526450106731215,0.1457031377628346,0.18641365677567157,0.17543209769086632,0.11012697596579057,0.0850149384402954,0.1004584701174478,0.12098641151898404,0.10282435808984713,0.1157628283650669,0.14719679785296425,0.18973951625739005,0.2118933165563388,0.22795312162919013,0.2588891901018724,0.2844845393820381,0.2524289224444991,0.20976886656040827,0.19054406202369334,0.15001603509716688,0.10653195631479662,0.13212832023149668,0.12354262900328505,0.08406076492101366,0.056372739612420286,0.07351063043555328,0.0889403175783583,0.06654810731624039,0.08419346606036848,0.08955047245356873,0.04464458929675086,0.053383370255601026,0.13687381490485961,0.22559488259693294,0.3055813822307383,0.3795417517029702,0.46802020892890583,0.5525398856430574,0.6227629896622902,0.7104053894816968,0.7943086209155816,0.8650232405305691,0.9503259722688502,0.9999999999999996,0.9816800675639148,0.9234184591504051,0.841946055208044,0.7533122940683499,0.6753188325678399,0.5994380486958897,0.5115855467364097,0.4399590672516278,0.357412205385907,0.28300299261582795,0.20354921926936376,0.12160198601944128,0.09515744610766452,0.07625405349747716,0.08778045366014497,0.13737200562690388,0.1759769870513388,0.22437949416137526,0.2419942899658598,0.2384581409208386,0.2037326667286936,0.16079384164067223,0.11972722325522023,0.07273995551096712,0.10436653966583398,0.11208896346104069,0.09882327589689899,0.0985081473762155,0.08575800228088859,0.05698402420821891,0.10363123633140958,0.16843446884867852,0.18250911445156648,0.12736581435028915,0.09652297829369383,0.07715771597078902,0.09461578580282204,0.11360717126950304,0.08509853925229427,0.09338597310006902,0.09000035433276299,0.11712972201223115,0.1132596109064603,0.16989179270969323,0.19087556190943156,0.17653438854615455,0.20953148536059585,0.2518615598302021,0.2589417605634208,0.213757945782596,0.17411709094610117,0.16049531036032372,0.11748551321421719,0.11994983110721602,0.08325822435085817,No
0.5936816742160897,0.6307695297688896,0.6700740340554776,0.7146670853452703,0.7711448403727421,0.8110365614534505,0.8346616772389268,0.8102283995380133,0.758443374441998,0.7000993728075153,0.6540424187299201,0.6017264131939579,0.5572758100276554,0.5200218971737174,0.494415242080263,0.4878973617707727,0.472539884518024,0.46472319584958566,0.4459023550122052,0.42674093074176334,0.41174236969283573,0.34907861338697455,0.27057827814504076,0.1919943209217836,0.11341271593114044,0.03794842053189029,0.004681555982203545,0.0,0.0005878038511095696,0.017862117593220983,0.039260902829739486,0.08099309199876625,0.14311574195119414,0.1906264229434158,0.24051060520646894,0.3034978271232327,0.3499692379192614,0.3944678127465533,0.41901470490650583,0.4271818124598692,0.42158638189685194,0.3866415943824384,0.3366511414149631,0.2844509782541449,0.23578582789262903,0.2475903543253959,0.3228131411918982,0.3966877951280039,0.4251642961990174,0.45508325439481245,0.46487678816466493,0.46489580113967266,0.4648960236979369,0.4665467968800292,0.4849913989634569,0.4881419807477254,0.48813094623093756,0.4821169672637624,0.465467467293589,0.46489588521723935,0.46489580113967266,0.4649367341646098,0.472842797686873,0.48903368941654346,0.5077414240897586,0.528063203275984,0.5526437266493982,0.5565147281464471,0.535690049713526,0.5096335604603905,0.48358987271748033,0.4655025994390183,0.4636908771462456,0.4452474891123148,0.44898237403068997,0.5070113077061458,0.5665569564424278,0.6372420428947922,0.6992880487957849,0.7773626987174946,0.8554504139428403,0.9115083733268383,0.878361231365214,0.8007442352407561,0.7367457673899098,0.666562111326245,0.5941888555882451,0.5322237915504373,0.46579686700187795,0.41538029409952903,0.39783485062528223,0.4342518518935794,0.48525321102130414,0.5108599205287501,0.5276226026335116,0.5399129887518193,0.5572004789048415,0.5678305900122949,0.5871001566916001,0.6068834817113693,0.6384423393529621,0.6777143463186213,0.7143368802999879,0.7448578484256623,0.7839802859914253,0.8264708863895072,0.8739865579974628,0.9024271460248681,0.8740804365812371,0.8258687741983328,0.7771713605799002,0.7257940758665105,0.6846460006673976,0.6453603071759271,0.6050677757486955,0.5607602000939202,0.5370569330057426,0.5226807831044642,0.48982521376985133,0.45541022486112226,0.44160113287528624,0.42639520618086824,0.4184435650866516,0.4191215261058363,0.43672422196491434,0.44142280961207714,0.4280235657499789,0.43744585389201873,0.43996187122700015,0.42132819129803467,0.43238917936211907,0.44162615627488266,0.4416488068334887,0.4416488068334887,0.4416488068334887,0.4416488068334887,0.44165495872485616,0.4468012132719563,0.4646386738466619,0.48285603590010684,0.5194104300001867,0.5345617559589142,0.5317785394709782,0.5083621563959553,0.4734269953566339,0.4441441196785889,0.4363155660227389,0.4190145504304219,0.4082405848240742,0.4045701144007925,0.44875749474757853,0.5082388338134276,0.5766503914965839,0.6415300432637192,0.7193422815568269,0.7811798036347666,0.8538612500906293,0.9324267589508315,1.0,0.9648850332960652,0.8867624674468031,0.8121117494614869,0.751619008207919,0.6743299972012533,0.6065143991946988,0.540234199369968,0.47084870220119246,0.4116481504904712,0.3760954518853703,0.3973725653469624,0.4365023831458754,0.47440561431489847,0.48850662650840393,0.504749604198329,0.5169698624164205,0.5340388530777611,0.5460403603851556,0.5772504318332881,0.6001806286405253,0.6389884548302747,0.6730429739490749,0.7059962571290925,0.7452738881007148,0.7851042036915996,0.8341223062350389,0.874716372288562,0.9023496919033764,0.866430695805982,0.8211485764753848,0.7689397420765713,0.7165538624847669,0.671055999803889,0.6197403096698348,0.578302566047606,0.5447701052886766,0.5253790376208913,0.5116277756200658,0.50382317665151,0.4874576920093676,0.46721129722881294,0.44429908718868605,0.44163595345188567,0.4349132795648387,0.43116228223912234,0.44157000377602396,0.4416488068334887,0.4416488068334887,0.4416488068334887,0.4416488068334887,0.4416488068334887,0.4416488068334887,0.4416519408451549,0.44431624500226574,0.44813126851644824,0.4421641954799389,0.4580765456901652,0.46520379833026304,0.4822309549226813,0.5137309075435952,0.5398308140381589,0.55133438285984,0.5259887824152951,0.4890637782961491,0.4636677256585737,0.44395601649728533,0.4414205849582742,0.4267458007115579,0.4210340839662292,0.45933098839141673,0.5217045982033328,0.5817442931363956,0.6569344493913927,0.7336278268756362,0.7883828364598311,0.7812819790564118,0.711685069789715,0.6366692290737537,0.5933050800123203,0.5406930172550228,0.46717409006567845,0.39873889249548267,0.33929059637081815,0.3063535133049129,0.32938219362546706,0.3778244379545965,0.430800195164601,0.4619004237479083,0.47525978395959,0.49010646129710667,0.509084375905839,0.5164800448467655,0.5411457109312141,0.5612576454295586,0.5858793184288351,0.6103717023694784,No
0.1169078889276407,0.08974044579212448,0.10078191699132111,0.1187167038363035,0.1057236432556814,0.1542574271417192,0.20820317060487392,0.2519068908489248,0.3182527725691666,0.40216993419171176,0.49153897760825194,0.5795789538788072,0.6491960349597732,0.7345828085078803,0.8208775713225891,0.8901850357729448,0.9727895955292714,0.9999999999999996,0.9598369623712322,0.8725006972131815,0.7901981813037557,0.7183858765875946,0.6294477629421569,0.5400679077792838,0.45069986037928667,0.3671890303881953,0.2962930705907003,0.20765671994290136,0.12226097911247757,0.06341570273150188,0.050533011794477556,0.07061113338674119,0.07356257728928295,0.09921837354430219,0.1503491786147051,0.19332758953885554,0.20910138200709172,0.22290199426858548,0.20577273838572152,0.16359517535828472,0.13174173812912082,0.0916644018997137,0.07263965262031613,0.06395500538302512,0.07881004160941041,0.09716340350401032,0.09775265302438951,0.10339189290555462,0.12032372834357252,0.09266783500090314,0.07297955454933369,0.0717204480692164,0.052711061488230904,0.03779691285626141,0.04107758403215733,0.05603493506380364,0.0865662543989747,0.12325144674253918,0.16668008343620722,0.21587505435107923,0.2609195834208484,0.31895002863314525,0.36561826790341323,0.39834091419096884,0.42050341860051654,0.41537553931189963,0.3810436167189768,0.3394243565279269,0.3018909122955189,0.2647876562888558,0.21146346236674107,0.17532256202837315,0.16932086650200118,0.13117082292869808,0.11319189669616003,0.08286387547461027,0.09269824755858602,0.07359807972050048,0.05498553323066391,0.0647680730133473,0.1059915544406782,0.14388804610790773,0.19694266607108224,0.26560479363410794,0.3534120750613181,0.4355947722214224,0.5076807661417377,0.5964715054148404,0.6841603232890638,0.7535875375971286,0.8394752625804887,0.9180009630628532,0.9627589003271617,0.9467236189139672,0.874966088869161,0.8053986933536712,0.7173510786474941,0.6279820938201621,0.5440846665750247,0.47345402648893975,0.3849328287741218,0.29555297361124877,0.20675186169009807,0.13461636875363725,0.053291098615376065,0.0,0.010190355857855327,0.022490642047890752,0.03834672963007968,0.08172335904329264,0.1403872542434157,0.1726536418531066,0.18849129131763886,0.19807196497430768,0.19116584840069573,0.14909785081369398,0.12455198524710598,0.1133119383595349,0.10273497955523991,0.12183132257404283,0.12284850512162082,0.12594662904317167,0.14588948363634957,0.1340418087902724,0.10121044713589677,0.0955783596539388,0.07156909282105461,0.06017623265130867,0.07256649880211397,0.08477058643467439,0.10740655325901782,0.16148445324642724,0.2150878111736243,0.24564791494507388,0.28285610973281505,0.33659939759149315,0.38445341490939056,0.4203042854418393,0.4364861299345235,0.4432215256861247,0.4053443882364305,0.36234468100226236,0.3279715412143074,0.28579868547083054,0.25569993255220913,0.2405745253500453,0.2120032810857544,0.18280075772345628,0.16694932997713474,0.1327202086598933,0.14023423109624167,0.14693733591763047,0.13301520054802785,0.16529219189498212,0.20996550242919243,0.25808991193319963,0.32469413913301315,0.4019912669563017,0.4774008590202974,0.555815723472008,0.6426561553605601,0.7117055150493292,0.798758287102808,0.8881011755391541,0.9670598302945188,0.9954081090328786,0.9494658118884902,0.87250482717586,0.7832933061714766,0.7044214377876963,0.6293349527289416,0.5401663437431208,0.450787050122218,0.36332257379415056,0.293988599405377,0.20774663386062242,0.11955689429633454,0.07942536535111921,0.09680468050448221,0.09807253442207875,0.11756235404290338,0.1529799730780108,0.1937011206976469,0.24351589183879918,0.2899344563627104,0.28077698689588226,0.2657256780059494,0.23716951722059898,0.20404761158896045,0.15416692070835536,0.12614005938065587,0.12726375376211285,0.15385536645204434,0.15846714331077605,0.14799610164495247,0.14794824583952115,0.14794824583952115,0.14793562720338693,0.13999575898691985,0.10149165353243683,0.09908876355679874,0.12628410684699842,0.14897982844891589,0.1778548832725364,0.21206239463111354,0.2587812105199272,0.3233129473759111,0.36942466570774757,0.39994277477846074,0.4266078123196535,0.4621854413586246,0.4533948839751889,0.43615429818775153,0.3910655911091756,0.33819953956423143,0.3037004132744525,0.27457556238848424,0.25111609059937523,0.20433651693442156,0.1935561659818652,0.17346239687564546,0.15268198347614925,0.12641822617930343,0.12286835694770337,0.13023180702185533,0.1711216676824443,0.22125519862617837,0.2717860845443556,0.3472660134390302,0.42393776978136133,0.5010155389237751,0.5898788272233815,0.6623916609794249,0.7439500302672424,0.8283386947270652,0.8978831582723106,0.9477549922998043,0.9254892375038861,0.8519530833050131,0.762791338065647,0.6827430687975808,0.6087839815398506,0.5196916632652839,0.4303118081024091,0.3409319529395378,0.251552097776663,0.16217667056476115,0.07706559775109634,0.03622063649013718,0.04308393675449418,0.052279396563896796,0.06171168350477085,0.0720998120230174,0.11671359124168612,0.1652296250522558,No
0.26647671942225726,0.23821617569170206,0.21319972948325328,0.17224417206875398,0.13131003140227993,0.10327458696320191,0.07134894317519525,0.0494398322187104,0.036647449590353265,0.024950832120155475,0.03886550434159863,0.0747055853488563,0.1255339017812469,0.18194627136351116,0.24014112405267607,0.2950014931349161,0.35903652801003005,0.4165493254096311,0.47747767926768425,0.5441304729367049,0.6073513723849309,0.6629824294479323,0.7290416614102231,0.7956062024264456,0.8540579485159636,0.9088566157140283,0.9231507374543919,0.8776450540877434,0.8112016863951164,0.744495164658403,0.6784209875809077,0.6227614789592479,0.5595835754638183,0.49288334131274514,0.4261897022973944,0.36332170988245505,0.307447318500905,0.24127171060232788,0.17526857152197284,0.11975607192362281,0.06011001059675758,0.0203895919869157,0.00610040639683973,0.011837109714209593,0.019010754050968526,0.04082075822868214,0.07261728919819666,0.08864925259201328,0.06730342110621734,0.0520124864161855,0.0379219306127796,0.02650550323101175,0.02992417771182332,0.029964338440847005,0.029987198283751404,0.03468965967572091,0.04012973175061019,0.01940331873349388,0.02649561815917867,0.025885555189448795,0.030691929019359243,0.04517235618217175,0.06435619339079635,0.10261445216840759,0.1354323562482196,0.18127155718657972,0.21966294295724653,0.22744615103832455,0.21521305550633407,0.18612259935367703,0.14960716323427015,0.12222060886179209,0.09021389060020857,0.05631605816317631,0.04156907435530943,0.030503104502948464,0.03098494827041609,0.05699863072952693,0.11271741919537881,0.16790337485735307,0.22464761254540333,0.28300857929648116,0.34655115264925573,0.4018692425670056,0.46776412285936475,0.5344680555487895,0.5991373451196695,0.6539218951351535,0.7193764216821901,0.7852802790654159,0.8403111160431216,0.8939243446085552,0.9032223420335139,0.8573562142200926,0.8027033910867587,0.7389411814205809,0.6722394697696537,0.6055328325059062,0.5388261952421591,0.4721195579784112,0.4054132918681783,0.3396116470177222,0.28447137934159317,0.2205093562572027,0.15651672624325563,0.10147267519282677,0.038974517489175575,0.01399384519481739,0.0028496541794957864,0.014946021413588362,0.045568528885548076,0.07174907609344805,0.10432220215814203,0.11532337532012171,0.08472973015771057,0.07211223631937047,0.05033058878040908,0.04488830970516444,0.03506942268410551,0.03361402538277103,0.04476978929785336,0.053863253978148506,0.04876780058086183,0.05027901838815474,0.05559586483143608,0.04557958906136861,0.04525479053814285,0.05609421458912367,0.08573415386280292,0.12222127410787209,0.16497686779654552,0.19617047339187765,0.218226371750315,0.2245715573618252,0.20752476855462954,0.18057064106147047,0.14502887797785036,0.10589288799079366,0.07811096451477484,0.06106319254498027,0.0444548879879334,0.02806826506941551,0.026356878284365504,0.056843490678865294,0.10685521222220018,0.16972400539425125,0.2257245083709769,0.28807385826122234,0.3446465102141998,0.4066263515438564,0.47320639007737375,0.5322959147631048,0.5915994950378818,0.6582179494145732,0.7249192312197628,0.7884649771866616,0.8438826475597185,0.909780504348972,0.9692491741055949,1.0,0.9769841092440021,0.9159628251677123,0.8525731402305556,0.7971228975981188,0.7310700344594045,0.664363551953183,0.5976579742508106,0.5322031652442347,0.4774186152287512,0.4127493256578716,0.34604520687081,0.27933856960706294,0.2126319323433159,0.14608006273574103,0.08770515634467957,0.029517507627433215,0.0037560433959829,0.014748318903625268,0.029355324969732255,0.03660999295147649,0.048721930244514766,0.08398773639079993,0.10042493592815349,0.09311208243587155,0.0804110918304417,0.04651222529683485,0.026324649532400102,0.022415708224484465,0.03242220318121136,0.05361454551853839,0.04853058554739187,0.029303807483106237,0.023319899507807218,0.032056352723881965,0.04413192923251552,0.05228670154438264,0.05119647508121883,0.06848694514565024,0.10350238530756517,0.13539988236409117,0.1677038622734428,0.20884487751108738,0.22732600193090446,0.22212723454648575,0.2085282529944661,0.18053843701479666,0.1405824205503987,0.09750517073848375,0.07536029529755739,0.04049337241512818,0.020272022158472236,0.029526008654016334,0.040314086253602444,0.0644924812985117,0.11233333867975004,0.16893255855758715,0.22776888154600616,0.28700586715283016,0.35309184221000134,0.40896623359155004,0.47183422600648983,0.5385278650218401,0.6052345022855872,0.6719411395493347,0.7384601685479533,0.7961619215939466,0.8568955458052501,0.9211687361254,0.9638018281397591,0.9517342644756623,0.9030800374011654,0.8413665831544024,0.7747004266306967,0.7121254062316402,0.656016915329019,0.5897809968729648,0.5231222029767761,0.4621938491187221,0.4046767295554141,0.3381693639981047,0.2718605480712841,0.21562199066401533,0.15324814785430707,0.0880953866540537,0.03452913324559903,0.0010498481060712272,0.0,0.018159258722702187,0.04799227896228464,0.08756423958112913,0.11871979885746109,0.11686647778865167,0.10181749784064786,0.08859430946854374,0.06257524515562718,No
0.0620430479416032,0.04443848157515262,0.05201929905679448,0.07474550835282967,0.0977749405857895,0.12179516102666588,0.149582934770073,0.15907552913340828,0.16597353246747382,0.17242045033748976,0.15985844125907622,0.13329459825301582,0.13064640774064396,0.13016063707062653,0.11309622973691491,0.09141915412569146,0.08699970981219662,0.08699627530244003,0.0869950744684127,0.08454640895681997,0.06642217314873422,0.06136065604647856,0.052718355520893656,0.06492254269803466,0.06607898544801127,0.08426282964534959,0.11270938582782675,0.15819221178495768,0.21857133359057945,0.2720470097154246,0.33461828311842723,0.4023668164036418,0.45379697964340115,0.5189546835522223,0.5876780832576878,0.6537829541393498,0.7049981793686757,0.7720298385423221,0.8361292823028612,0.8871791178449429,0.9293402096473762,0.927262281078518,0.8819377329757985,0.814141617602615,0.7454154276465128,0.6766892376904114,0.6079630477343092,0.5392415213462605,0.47449220120151603,0.4227341476835833,0.3548829185933471,0.28647963194361115,0.23211598723417737,0.17052052161244324,0.10517414205471232,0.0593422706899247,0.038333526100700954,0.022146789721170013,0.014685620424358614,0.0,0.0056256631939071156,0.021133283969061,0.02476178289689468,0.06121089802265889,0.09694518977687228,0.1243232512220036,0.11053985413254974,0.10881701166130009,0.10495358178440783,0.08768871707547898,0.06910052284622736,0.04394583761963489,0.04334701393555118,0.04334701393555118,0.04266455787152301,0.02863971706894075,0.03664621020107717,0.03186846191447135,0.0304026969763469,0.039826182371499375,0.04334527349267603,0.043657638300791834,0.05823958697795861,0.053328454079271115,0.04340765514557354,0.04334701393555118,0.04453652301487798,0.06260112127434736,0.0650508171890305,0.053967693130198224,0.03127701820667195,0.021270778740878793,0.007132366773503485,0.000953365940933093,0.019063971591791518,0.029075419164238614,0.0461313171726645,0.07355331195567816,0.09868520362433175,0.13190568000619818,0.1532481963401242,0.17193693102646312,0.18217315143681168,0.19905850239827894,0.21626446171158653,0.20198148892282708,0.1758136472262377,0.15818949619562606,0.14883627016722611,0.13041872204754412,0.10716009429483853,0.08729320407311159,0.0727539748610524,0.06518947644122486,0.06517164461899538,0.06520618254377819,0.07369935749922973,0.08749450415503635,0.10845457296942929,0.13084745532077502,0.1509640083460062,0.18790935056211344,0.24131771126112245,0.30656017196022534,0.3580361729012589,0.4253213171566115,0.4929037822563149,0.5436053004334673,0.6096761336347254,0.6783990819611483,0.7438005234331118,0.7953754392992747,0.862750588368264,0.926021474239207,0.9634547401107034,0.970485565038604,0.9266339448892977,0.8758359261577717,0.8107158564496868,0.7419919561667574,0.6732657662106551,0.6045395762545538,0.5358133862984515,0.4670871963423502,0.3986248685842906,0.34325670951522946,0.2827044619554595,0.21404711596896053,0.15474384168196664,0.10256834035728168,0.05809011690299215,0.06011343681029313,0.06515928861626419,0.06517164461899538,0.06517164461899538,0.06517273968007764,0.06798594119662704,0.09823297840727152,0.1437290975827059,0.17318934218541981,0.17425708018704444,0.16530688072477728,0.14773488349710107,0.11368835296160817,0.09647245690208317,0.08704751932977617,0.08699627530244003,0.08699627530244003,0.08699038094483891,0.08283200723833639,0.06600959981268906,0.06517164461899538,0.06517164461899538,0.06529180131936396,0.07853600170516017,0.08341391888718519,0.0666301466823711,0.08091515194486387,0.07799096466279165,0.08567136927859265,0.07174934403760114,0.06670804875055936,0.08477173062832088,0.08984887471501235,0.10171533386244302,0.08755612175848748,0.08699627530244003,0.08712791744831305,0.1008832471023231,0.11640286434751479,0.13346938534541408,0.1616245278390105,0.1924118289385337,0.2143199471537729,0.21794185741415184,0.21784748034531543,0.20733557347721598,0.19618296467310792,0.19008213013744957,0.17472324263896288,0.16652012623530998,0.14979938709645513,0.13888708104030956,0.14759468477732973,0.13140485480965625,0.13061948813287083,0.12349389103048347,0.11573693338484681,0.14946874699200396,0.14273164741696576,0.14622632386312784,0.15245294255252917,0.1568823306580871,0.19158920615409825,0.2551836872320492,0.30576644738327285,0.3720853650240832,0.4376439083888912,0.48913789386176587,0.5563394221181004,0.6128510122365074,0.6622133499235985,0.699574047407578,0.7631791134955894,0.8144292065055789,0.8814952146687616,0.9455195619277252,0.991094217839581,0.9999999999999996,0.952032287557373,0.9001076987452028,0.8356207155058448,0.7668977111819824,0.698545265486636,0.6450466192535473,0.5825380229264412,0.5138175820410193,0.445091392084918,0.3763652021288171,0.3076390121727157,0.23894733243121635,0.17859948174374107,0.12326230901248225,0.06629834984339489,0.032395501986191455,0.021587776868566166,0.0261334351815683,0.04023128115850172,0.024264320427749286,0.0410867514455453,0.04334804055531505,0.04758838689756262,0.09142847520904462,0.10831035149299728,0.09349688792238631,No
0.11162063485497331,0.17795345205556945,0.21784350958691157,0.25722857119265274,0.349334971398255,0.45296790896314665,0.5530959798556365,0.6543419879326295,0.7441895913454415,0.8508778831731991,0.9135677470770496,0.9119403587382733,0.8463832733019476,0.7308191112302609,0.6308642424680855,0.5278903911295139,0.40612307710659046,0.2920409974549809,0.20218508627180665,0.0818941483945892,0.0,0.04417835964435568,0.05841663921797302,0.05844795344957365,0.060608258512675484,0.0973245370044804,0.16284447683986158,0.22912719371202872,0.30815074701819345,0.36858610133764547,0.3961389578642587,0.4274280600142264,0.4256326071026457,0.39214728467964566,0.37612690416535166,0.33623281335870825,0.31285566120658004,0.3442527696454496,0.3524941960896788,0.3907171660578017,0.417235770921077,0.38890675482821724,0.38769796252578903,0.38014179911857227,0.3479849643280222,0.3600771836670704,0.3797673486782305,0.31605587124362255,0.3053975105057889,0.30539174636946687,0.3009318784746977,0.26619841979901526,0.24934796054069341,0.2228499681216629,0.194246598858685,0.17835475846995053,0.15280829634296378,0.17710378070804023,0.1450601491734167,0.14203044671787612,0.18063814134914402,0.2413768438321151,0.30227701882141034,0.3632846537516565,0.43676283812620476,0.5178627078066009,0.5879115016233181,0.6668033007114254,0.747512843978253,0.811062014026648,0.8720651217666182,0.9190693077907115,0.9035204111789819,0.832323462216296,0.7825705006474273,0.7413725965406099,0.6813379508057684,0.602354307130045,0.5396419507114887,0.48186495606149204,0.43782287559509925,0.37784871924983854,0.33418968859130427,0.3059647032013739,0.29336511354128714,0.2534047317013721,0.22385352801924885,0.21240484195221754,0.18285097633015646,0.18192273197768039,0.18753305152973887,0.2203466039817803,0.22389226589866063,0.27316494195378116,0.3909552405146881,0.48495527634582647,0.5905329389670184,0.6784155316446343,0.7843804190339156,0.8776361378370856,0.9704312753461632,1.0,0.9463787333128222,0.8646636916559967,0.7539185360330833,0.6321050157688548,0.523773199211786,0.4290180275910771,0.30765482674700095,0.1889837483091048,0.11704160040047551,0.152227363926551,0.18277810230893898,0.21373585850630406,0.22312826855285284,0.24146629060625813,0.29988174365095066,0.3608239827752939,0.43329495941310636,0.4994095814223103,0.5398669749124769,0.552151560300528,0.5324662186757214,0.4728977424264107,0.41313231929602345,0.3826227462876579,0.3321592623386227,0.30494541902464345,0.275057285544853,0.2738062785064814,0.30435518839775,0.2916146350129498,0.26469896028654993,0.26423614115732796,0.2610039387877894,0.23512456019541794,0.2623675739707032,0.26387176008609803,0.2399314137688604,0.22314098649410674,0.223080544946054,0.2286904976965749,0.25941857735435914,0.2309323847550635,0.2524556433722678,0.2642117532043873,0.2642375924155722,0.2678764022121456,0.3017933586591601,0.2996001602133278,0.26591728701550466,0.2776913032653052,0.3524939466129755,0.4141626063710051,0.4748971248881402,0.5438484800932306,0.624974932125764,0.698881441506475,0.7611674989293551,0.8331981770007335,0.8739994103497537,0.8694118493742904,0.8156007219265131,0.7634854426684292,0.6913168220104451,0.6303416537387072,0.5694157858376663,0.5065766956208,0.4349321557627297,0.38673358595458573,0.3461249694528963,0.3117244770862788,0.2724808656768696,0.26423184396530175,0.25822108527674903,0.22370192363860308,0.19147760203841102,0.18192426297538855,0.18192113718840286,0.18204440578324288,0.20631743452469564,0.22309640833382183,0.2568430858681019,0.37141355866980064,0.48502627237457574,0.5755501219678258,0.6882449537052739,0.7783987144711659,0.8913822847531181,0.9541694984738012,0.9376645611831949,0.8752970287837565,0.7724239357905063,0.6527218350592952,0.5628432806257893,0.4480728254704527,0.3262264826099939,0.21148111838546946,0.12374841976292927,0.0730104017969131,0.09330934343252917,0.06276622381184715,0.09790494083569712,0.13659356315484672,0.1426890633192821,0.21143670118676372,0.2742675908134773,0.34885281873868657,0.40947301934280667,0.45099918163154573,0.4666418277443114,0.4538236714219366,0.4405801555891422,0.36462734713318135,0.3080014598068912,0.2695169100748931,0.23839325868747263,0.18825986082275126,0.18192298714396582,0.18192113718840286,0.18192113718840286,0.18196357920333384,0.19636046709074062,0.22643320536852762,0.2607142422422326,0.2641159294721538,0.24720032596214736,0.24968797527256825,0.264146659706471,0.24868226088893763,0.22339719192424656,0.2474752474930657,0.2641378792478557,0.26423676312514743,0.26423676312514743,0.26378951084997926,0.24543028911517517,0.2626415143967016,0.28564079776477946,0.34463301957731307,0.4056003693749384,0.467471367386735,0.5467750192229826,0.6281639877691481,0.7207046397429044,0.793269092843568,0.8714030975997566,0.9195619407629341,0.9154631259377899,0.864186073526902,0.8329534086751149,0.7453258058110741,0.672160079459136,0.6191360022280596,0.5626783394180848,No
0.12002469589962406,0.1674570370531252,0.1987701892295468,0.2301130550708308,0.2291823417593637,0.18813538144832576,0.17341026861381437,0.14588989997267898,0.09397692075736064,0.06657570081147002,0.044463978545518756,0.04363293741267782,0.03437007188359065,0.014968335739383498,0.023261453216200767,0.06195960012227708,0.12175616453639382,0.17140841214002966,0.22580398312191674,0.28744276860707174,0.3497996618099317,0.40993920017337926,0.4782060352555071,0.5464292103396247,0.6063935541540659,0.6690540670232963,0.7374351460327735,0.805858725989173,0.8714799824762163,0.9286535860206167,0.9730643936641177,0.9533960920687621,0.8885650224759529,0.8230397961428291,0.7653956928250363,0.6977636004676486,0.6293381856764779,0.563590842179726,0.506082493084214,0.4385344896903831,0.3701039153918022,0.30167334109322086,0.2332427667946395,0.16481265913997722,0.09758951331979926,0.041632057413002244,0.009448815780731312,0.03357651676985318,0.07043208923192879,0.09090987392638938,0.10973801118710114,0.13226886272290228,0.12883221582471327,0.0877958595204511,0.07043573458982078,0.060349934729223786,0.05847370845063882,0.0734766307871686,0.07215955180903233,0.06717765137906628,0.07583529946498535,0.07314486689285316,0.06291874556680854,0.06831467400568636,0.06424009582784151,0.0622717347868198,0.05480370314289873,0.06442703121738846,0.069763949102716,0.08389390983859313,0.1126662499717046,0.15329014156639698,0.19584893087940225,0.22529662469886658,0.24831655050302537,0.23573054856066555,0.1973881502291568,0.1732979140930797,0.13244768152541875,0.09935072920542565,0.0717812002175986,0.055423658275721266,0.04505884867661747,0.04731675474033725,0.05176880134189643,0.09107924812686541,0.14171472487915482,0.18872551666155646,0.24370323747529188,0.30643944875840345,0.364011638434103,0.4316575809643499,0.5000542215767712,0.563446851585649,0.6227510942152246,0.6908864414226925,0.7593170157212739,0.8274358424735637,0.8864061528877074,0.9499336860057976,1.0,0.976336128911349,0.9105159243332355,0.851523428314557,0.7877687131132274,0.7193612900303248,0.6509473768101328,0.5862316853539147,0.5280571331731743,0.4601321792530584,0.39170172753864074,0.3238338533707692,0.26587015312842377,0.2008925926036782,0.13317692621257704,0.07625718524699998,0.045983911631012564,0.06504709337901993,0.0871852833597111,0.11199389830407158,0.1360735486203879,0.14585022347865273,0.12196414112881948,0.09423772149413834,0.06533849746090681,0.05169578392792262,0.06672701395687675,0.07195001301155868,0.06895268834436497,0.0644630224615006,0.07693620911127219,0.08436860102754906,0.07110074295332458,0.058272996803174326,0.05389169449308717,0.03828364126609207,0.05705227127559276,0.07904206114466605,0.08648982192068111,0.10619280096920969,0.14560642898479248,0.1800592118133082,0.2158531276490021,0.23764485672892155,0.2434429735415411,0.22787369041810068,0.194249052147891,0.14900735641741036,0.1146584277105882,0.07695089064743943,0.06091727108529188,0.04744211169123247,0.03658354014879572,0.049937508121792984,0.09404367565894756,0.13304619818902363,0.18438241574681058,0.24104704718221992,0.30623029612423913,0.37465079740499707,0.44308137170357886,0.5115119460021589,0.5798728058887019,0.641777348506614,0.7024504630044421,0.7707391242761323,0.8370785372342486,0.8936760332414471,0.9401224321336659,0.9288802266704956,0.8657263932237429,0.8015152775183174,0.7429738547653777,0.6749155183513453,0.6064849440527653,0.5381084145802171,0.47554122777394836,0.4154883067258175,0.34725583327549714,0.2789997417012118,0.21895618352024382,0.156406200925145,0.08999503471517478,0.033606985602832484,0.0,0.028874789565966008,0.06352864645281953,0.09020411112218385,0.09248305914796973,0.10817360392963948,0.11686153229908491,0.09210661475992632,0.06947211147571375,0.051226236724872365,0.05255799168519548,0.06358890846627174,0.06046696172157473,0.0613400051777222,0.07130150898799226,0.05232198317717751,0.04938502696559732,0.03691501829305155,0.016739975727036782,0.02346399151443812,0.03339069161161179,0.028202476340843052,0.05603746758386974,0.0938498660718321,0.13266449427077154,0.17922315814122447,0.20409470855264056,0.21459755124750757,0.21995305701535894,0.18996122644683222,0.15317332724659538,0.11988056407680059,0.0785502591577476,0.04988120949992503,0.04379787515519462,0.0323950206421082,0.010689306680763178,0.005825377129973219,0.03332788863114855,0.08538015679366229,0.13986646070923436,0.18387604033788607,0.23646263323108796,0.30231732535484435,0.35989814873045756,0.4255245467247075,0.4939496142261932,0.5616281004945081,0.6193471026935597,0.6847546302351217,0.7531787250034614,0.8209413002353316,0.8787960566566642,0.9436539244129714,0.9947641550157362,0.9812390696795172,0.9179762380472498,0.8608934851361245,0.79392906312055,0.7254995807481373,0.6570690064495555,0.5890723520958656,0.5304629027767445,0.4662553673954526,0.39783989567229083,0.3295144221141775,0.268057972440344,0.20694760667717071,0.13906591668813917,0.08058460346927054,0.023654869751684515,No
0.04051097628320588,0.06057158644045124,0.08305635165568859,0.10907445276689365,0.1338824826465379,0.15538479621312762,0.15927780008018333,0.14536273623141982,0.12711415814938354,0.11172809033763165,0.09451914431522801,0.07296700843034709,0.06624582414840252,0.06366328611347338,0.0653788706518621,0.06619306003550496,0.06619385053039606,0.06619385053039606,0.06628854224499436,0.07168406797455495,0.07045051315615014,0.07487145194086109,0.07565426670942244,0.0756548648693085,0.0756548648693085,0.07577981651792087,0.08155267665715371,0.08507651812980388,0.08133981201661022,0.07672436774925884,0.08096654298585126,0.08019702358195002,0.0847335594414993,0.07785605206754753,0.0665492985812921,0.04847976637004736,0.031394872745973634,0.01698660040231892,0.014500155955536442,0.02989363894447772,0.037722276139557476,0.03781080751365917,0.03780649366807487,0.036013632580816024,0.034011422895879884,0.03428523797209371,0.0284834681303765,0.027996334342846874,0.0230504764776569,0.028591775705272715,0.04366103209724437,0.06333582969632601,0.08671073927867301,0.11647526636683492,0.14651050571947266,0.1827147956977202,0.21314558580721354,0.2467638445534841,0.2833950929892173,0.31697549593591545,0.34742118899318597,0.3839169920243528,0.4205737660524398,0.4572013015434264,0.48986215061347904,0.5211749095632405,0.5577399229581605,0.5943967157693189,0.6310535085804772,0.6677103013916355,0.7043670942027938,0.7410237049366113,0.7770369687962615,0.8063100806054584,0.8415346806519712,0.8781900439196735,0.9148468367308318,0.9514993855090375,0.9855528187132212,1.0000000000000002,0.979056782160068,0.9501356447502116,0.9144013180893122,0.8777448197154898,0.8410880269043306,0.8044451337483307,0.7709453862940856,0.7404088321733215,0.7039218699986101,0.6672650771874518,0.6306082843762935,0.5939516057853307,0.5578055670431368,0.5285111321204088,0.4934399759745274,0.4567853346594142,0.42012854184825565,0.38347174903709735,0.346846859440781,0.3141354355943744,0.28343871042438207,0.25909364161862314,0.22851369311732506,0.19192382663793928,0.1578653830927157,0.12782726418163448,0.09158455631657847,0.06136725587203684,0.03919712591878621,0.03510920640535686,0.04719204482753603,0.0658709179592114,0.08940553000149043,0.1137605713229608,0.13443578729372252,0.14887684416035762,0.1394634995650077,0.12512563472025962,0.10720997353466988,0.08888173306017966,0.07055404967860057,0.05313325031583194,0.04731671175930363,0.047271821852571394,0.047271821852571394,0.047271821852571394,0.04747775080532013,0.053877402678170316,0.05672056080394339,0.0558750488303581,0.04970713265723292,0.056172787635252464,0.05671703021075558,0.05334018039650168,0.047416286104590144,0.047271821852571394,0.047271949780517186,0.047781051166363,0.055109383735769235,0.056730988619136724,0.05623218293119914,0.04844388265545918,0.03617428757861285,0.021166440316610302,0.020748450946278307,0.031508494936463904,0.0377028874449894,0.03895882412789109,0.046550062598018416,0.04727132296236558,0.047271821852571394,0.047271821852571394,0.04721685820881327,0.04273296256618875,0.038251059542877996,0.04581950478063179,0.060912314623051245,0.08237034138114674,0.10813129812146371,0.13629106346689035,0.1699489575576607,0.1994194067519246,0.23561940014709393,0.2711357106675527,0.3002040332762954,0.3361300866244361,0.37278636813667876,0.40944316094783706,0.44609983124598895,0.482260965427868,0.5115949605128758,0.5466113286150243,0.5832661106647168,0.6199229034758751,0.6565796962870334,0.6932364890981917,0.72989328190935,0.7665500747205083,0.8032068675316666,0.8398636603428244,0.8765204531539836,0.9131391039654029,0.9442780945558169,0.9536332254542998,0.9312333913042254,0.8992741637638504,0.8675328685704435,0.830922074242127,0.7942652814309688,0.757608550722398,0.7213322241998543,0.6916171411897063,0.6570954727197218,0.6204423317140895,0.5837855389029307,0.5471287460917724,0.5104720258746467,0.4742488538190355,0.4447053509498089,0.40995954934886614,0.37330579637489314,0.33664900356373484,0.29999243665116215,0.26387876567616164,0.23651221060934802,0.21555680857564052,0.18939608012911568,0.1636922680826125,0.13214180283441435,0.10015906264703989,0.06784557320702644,0.04889536360487057,0.05342918988672141,0.07096571871038648,0.09091973061078584,0.11512766231796245,0.13909560635063767,0.15678620802155518,0.15596157100123342,0.13878347610940245,0.12045562392358655,0.10204987985571279,0.08142836504692852,0.06532541869469233,0.0516541395950989,0.05547950788916567,0.051557041815924354,0.0549305217113536,0.05280028428195149,0.056671669975440375,0.05390862902042359,0.05395393926622738,0.05672043042872699,0.05673283619148384,0.05673001623830087,0.05502870592303344,0.04772389643746311,0.047275775981692636,0.04947237128459392,0.053635992798959364,0.04923863559285935,0.0562596978727854,0.05670793996253298,0.05237907178660661,0.03783648356697267,0.024156833260680077,0.004889821414047146,0.0,0.0018356391687961437,0.014847669707718003,0.014766895404451974,0.00949163046152357,0.008137749054866639,0.007535672322068532,0.0072089905207255445,No
0.20308401267151277,0.23270493460277075,0.25094226938082986,0.2850296972818773,0.3178764967547987,0.3049565072457301,0.2837850220885172,0.2682937407574384,0.24454608478398354,0.22095347652852793,0.19883151462680848,0.1737462472430451,0.14309121378377787,0.13001906136835784,0.12987974318604056,0.12754747958606538,0.10944096241234158,0.10795504164453718,0.11170345304678841,0.12990223242223076,0.15628825842118177,0.20314283397522281,0.25131330524655615,0.30537783987418887,0.3658453654524618,0.43688535920105487,0.5080036985982619,0.5780308211936829,0.631588348379128,0.6994320785437047,0.7705481849098383,0.8406114398296474,0.894290777141963,0.9597797820001013,1.0,0.9913651075070522,0.939261043011701,0.8684971432815658,0.7976136150234812,0.7392865825140902,0.6770331136047592,0.6059526569699898,0.5348343175727823,0.46375003603335285,0.40018405364069487,0.3432313749981959,0.27249759898221626,0.21379744665204914,0.15238385000064358,0.10008928148716612,0.07175316106566587,0.08436845559574868,0.08603103858668737,0.09229476313259699,0.12548485250320862,0.17666444022268157,0.2178404202678852,0.23892656818096292,0.24202331545769473,0.25408302124370197,0.23273323846718696,0.201747417935358,0.17387462362863282,0.13327839869749747,0.11102465498050851,0.12071456455351326,0.1296930779859382,0.11833933864739521,0.11881344355544776,0.1297222898514292,0.12022784773463879,0.10807213141439354,0.1079522900422667,0.10811727810617189,0.12179805617509087,0.11861809343901086,0.10815099348167578,0.1201135153806705,0.1298296885916428,0.13287152723616558,0.15027441246101292,0.15714909175542324,0.18862485554261488,0.2108423358600091,0.20644213105113796,0.21738966129963044,0.2081167635695369,0.17418778680735647,0.1464755218102849,0.11389901827240045,0.08697438061409546,0.06787264768524182,0.04598071282899818,0.046938704180734536,0.05446323429516431,0.025410873816745116,0.020214733109527483,0.013440539438658305,0.010981596343329958,0.010828702889382757,0.02346830868159211,0.057483623105166526,0.11087553632154856,0.1587209111553034,0.21320082048401412,0.2705281351160198,0.3240132592007692,0.39165401574721326,0.46277002686557633,0.5328797376310304,0.5867156879636042,0.6541985761403897,0.7252412076257819,0.7859479501161708,0.8243263732123625,0.7977523599387331,0.744729177939564,0.711728382914961,0.6557642357608833,0.5847978940186627,0.5149208384321633,0.4609157048890986,0.39336927066224936,0.32225325954388806,0.251325302813191,0.19238528774109476,0.13120316496791373,0.07568157913245521,0.026468752185858868,0.014573808230237795,0.0,0.018859230018285267,0.054341323094280636,0.06773219423926546,0.10072811691619954,0.1479704999216267,0.18663610198534109,0.17777490887573144,0.17335307250155374,0.15791455365998797,0.131372995515739,0.10224931780977542,0.06784353828608003,0.0640957327933549,0.0641289574277546,0.07353782300785916,0.10228451123101001,0.09047739133337895,0.06745085682822705,0.08396185757682373,0.08409823005048134,0.06634180927206224,0.06409454748776122,0.06409454748776122,0.06420535952153328,0.07724975641096465,0.10514558857899825,0.10801327217088597,0.1179957840915824,0.14645326625994182,0.17933236267856012,0.1953074802361483,0.20536900668086933,0.2103591645897498,0.2090799274725601,0.20606405894187318,0.17200609189039584,0.14531537203926348,0.1273098621931581,0.10492718731736472,0.07499376207172581,0.06881232743743215,0.08533721375220926,0.08587553289839489,0.0742835397202164,0.0652342554114771,0.08266618710785201,0.09322059887453049,0.1206358709233557,0.17906673339926593,0.22795674036410496,0.28196302173512366,0.3375056257583062,0.4021601060750024,0.4678825719357347,0.522950405271239,0.5935692943663655,0.6637254609774645,0.7177180243302974,0.7849979388889503,0.8555077693751052,0.9097689385632135,0.9515105454436341,0.9431926597029756,0.8972451693465384,0.8373592932773191,0.76633440180166,0.6952160624044534,0.6242842423283106,0.5652909244246764,0.5037346686154236,0.43267157609287654,0.36155387168080866,0.2920950250135279,0.23848507168377653,0.17012931222928707,0.10428086996496333,0.08454583414244077,0.07174829911424441,0.09817600845057539,0.10794775058135508,0.11788631146396522,0.15886943107778162,0.20620156090618558,0.2369966136930466,0.24842664116090418,0.26118210674303777,0.2530152391923539,0.22236155022408033,0.19479599883620713,0.1593957389313263,0.13743536680488289,0.1478738659070058,0.13093624579691587,0.13083817234500073,0.14794654694267928,0.1518075244054704,0.15181003259677173,0.1518085297986076,0.1494035342126816,0.1315732276635151,0.1448328243321555,0.1514638615205337,0.13755484176467636,0.12990535974284523,0.13778350647261295,0.15160731191431687,0.1632647238679752,0.17982461905178448,0.21036030072819223,0.23441254052281035,0.2569391385384625,0.25866987330065516,0.23973828178312973,0.22156728629484013,0.20860465893297864,0.17310101246904397,0.14919586215909275,0.13056922435441543,0.11642629696520057,0.1079277769533431,0.09824181028040213,0.0861418710081634,0.08602341876501374,0.08602341876501374,No
