0,1,2,3,4,5,6,7,8,9,10,11,12,13,14,15,16,17,18,19,20,21,22,23,24,25,26,27,28,29,30,31,32,33,34,35,36,37,38,39,40,41,42,43,44,45,46,47,48,49,50,51,52,53,54,55,56,57,58,59,60,61,62,63,64,65,66,67,68,69,70,71,72,73,74,75,76,77,78,79,80,81,82,83,84,85,86,87,88,89,90,91,92,93,94,95,96,97,98,99,100,101,102,103,104,105,106,107,108,109,110,111,112,113,114,115,116,117,118,119,120,121,122,123,124,125,126,127,128,129,130,131,132,133,134,135,136,137,138,139,140,141,142,143,144,145,146,147,148,149,150,151,152,153,154,155,156,157,158,159,160,161,162,163,164,165,166,167,168,169,170,171,172,173,174,175,176,177,178,179,180,181,182,183,184,185,186,187,188,189,190,191,192,193,194,195,196,197,198,199,200,201,202,203,204,205,206,207,208,209,210,211,212,213,214,215,216,217,218,219,220,221,222,223,224,225,226,227,228,229,230,231,232,233,234,235,236,237,238,239,240,241,242,243,244,245,246,247,248,249,250,251,252,253,254,Target
0.4236141955871081,0.41678068647589905,0.41914445414473056,0.41913692252256485,0.4135389362384144,0.39639871175685093,0.37518394761848894,0.34922255281549497,0.3217141495811321,0.2917003764067466,0.26225214618110393,0.22932770506648603,0.19753037855719302,0.1669134639519526,0.13644818159879846,0.104839422701962,0.0757116553596604,0.04824983614018541,0.03217890298221748,0.051943894495792065,0.08044388188467055,0.110837840967286,0.1395770301755913,0.1667210134343231,0.19519475593256075,0.2220964381516658,0.2483103843310005,0.27463299132601693,0.2982745900419602,0.3185653441555417,0.33705595722114146,0.34988705375334017,0.3632059424464037,0.3838035877890068,0.41116671244921565,0.44146682602012277,0.4752007900521503,0.5077250247772837,0.5450194334379522,0.5826729312837725,0.6154875556075429,0.6520376327408873,0.6900820649689271,0.7281120561175586,0.7636928236825477,0.797252497646394,0.8351411403922467,0.87176691955726,0.9030012467852954,0.9128181853126968,0.8826482823857335,0.8446579739244585,0.8069310013981,0.7739493853653753,0.7376374772680457,0.6995944208173434,0.6615449974236786,0.6234965339338147,0.5863374535023017,0.5603627996971944,0.530834944213976,0.5010369047255768,0.46934996359228565,0.44101133239444146,0.4161418896006511,0.38955223180878995,0.3652656600599048,0.38532486643696606,0.41283474410033605,0.4253407328220905,0.42634990410103046,0.42593211273406395,0.42064441528914764,0.4194373542518349,0.424185161490214,0.42633942944176695,0.42634321867386415,0.4245271425313132,0.41676656568995807,0.4045001088621164,0.39187595560117094,0.38516190579335874,0.39227709428529034,0.40573985984022587,0.41802068028320327,0.4137683002653906,0.3982125095977668,0.37621656722463437,0.3488920254107123,0.3166427939373141,0.28987537325088464,0.2673613796462423,0.23784537783136483,0.2072682202296784,0.17549081156935953,0.14371931993822662,0.11313989774593425,0.08144653670401159,0.05098353774769726,0.022858758909277133,0.0,0.013020991923597403,0.03997048500663014,0.06732234125180836,0.09704609510174933,0.12564629341389666,0.15418080959735414,0.18271168498555523,0.2112908074604195,0.2411343718640454,0.2688700204756179,0.2929447859923401,0.3154972105875432,0.3384724152546522,0.3567003309907836,0.3743458836747452,0.38974285126868724,0.40919880769681993,0.43438426487848314,0.4667404522707347,0.50170251202821,0.5356179683624821,0.5721290619472948,0.6048907486707035,0.6425205708423319,0.6804723844147903,0.7144566697971236,0.749569275020563,0.7875837124151929,0.8256331358088583,0.8636825592025233,0.9017319825961879,0.9397810179908038,0.9771879311500168,0.9999999999999999,0.9854908723129266,0.9507936303231673,0.9179834749404457,0.880329025035892,0.842279782078791,0.8043867645327069,0.77082709056886,0.7352463230038707,0.6972163318552399,0.659188213291832,0.6236868059432258,0.5900569199039701,0.552152905166892,0.5141034817732267,0.47605409760490225,0.4382314089224121,0.4069990486865639,0.40690989728243376,0.43274541489930207,0.44482188453902693,0.4467023775043272,0.4475268638444899,0.442737305434599,0.44132755016403824,0.4468074771554068,0.447752989875453,0.44775476050518337,0.4475285794371652,0.4419716425971375,0.4321651512318322,0.41950760460666336,0.40686001086325174,0.39952278391487595,0.4091121270402619,0.42174278320679315,0.42606755150719267,0.41687376971203094,0.39679208100054775,0.3717287457383526,0.3438917323669487,0.3163835027762688,0.28630352713056906,0.2558796305653056,0.22546019133636686,0.19488433056971222,0.15981644794427075,0.12565147387692777,0.09516369119553447,0.06570902118945354,0.03722929007367448,0.01872407848426838,0.034244602420939296,0.06144338316731812,0.0906407352362203,0.12355384333736052,0.1536387622772062,0.18098942863324763,0.20947229313891313,0.23731735676444943,0.2633085678399917,0.2893449575143988,0.31315120866326385,0.335184907168271,0.3520782104382224,0.36715569532548653,0.38138890037031425,0.4025462464694468,0.42956912987471696,0.4605817880103319,0.49457087356796514,0.5284880762764018,0.5663241220788636,0.6003083996161281,0.6354210048395682,0.6734352853328381,0.7110897352373907,0.743904359561162,0.780454436694506,0.8184988375422731,0.8563330450498831,0.8896290995362176,0.9244132923760243,0.9427425284779042,0.923559601642096,0.8874570897256705,0.8495300861604497,0.8156102158006068,0.7804219671300455,0.7424000221352164,0.704350598741552,0.6663768674262046,0.6320683385393376,0.5972919293251348,0.559287172053205,0.5212377486595389,0.4831883252658745,0.4451389097172783,0.4073427333450731,0.3869080436694755,0.40796929692789796,0.4352588407475705,0.4471087329583915,0.4477493569076253,0.4461387763742587,0.43819670119391196,0.4403686992978467,0.4436808563137754,0.4409817887746058,0.4384537257454314,0.43337710254787887,0.4269894538565081,0.4138464525452711,0.3988762131556133,0.38713356507679764,0.39103785212924447,0.4042777969123196,0.41146493952893215,0.40803308948920247,0.3915430410905446,0.3683472112317513,No
0.1972664786229017,0.20744613752339602,0.2145942757635455,0.2090488853973942,0.19515527479113803,0.1745842707895684,0.14868775200931417,0.12137987996283028,0.09304804641951825,0.06270751939475439,0.03281397503464745,0.004385410189046923,0.0037844394249264557,0.02476700599391124,0.05129502205239023,0.07860071043800021,0.10528677813372789,0.1280973003431134,0.14386436929809543,0.15653138529817467,0.17132483142224952,0.19141858958947067,0.21798546152168363,0.2505183886449529,0.2852942531759135,0.32235809747790345,0.35916778749066003,0.39547366840928144,0.43394369725675097,0.4721322605648397,0.5088039866247964,0.549622671436405,0.5888444046588426,0.62468336488484,0.6653096375391798,0.7062738463617864,0.7472381444216605,0.7882024424815337,0.8291667405414076,0.8699882779850618,0.9057652398541616,0.9257838069203632,0.9066645654287726,0.8679042243759849,0.8292429549877882,0.7929838887383713,0.7522172303736891,0.7112556643391041,0.6714166218545408,0.6359163396248164,0.5955736105876703,0.5546097566525441,0.5136455513640863,0.47302718698768853,0.43720546977042374,0.3979588615995475,0.357002282931399,0.3160660438406844,0.2779547958272435,0.24127596593543021,0.20977789618154463,0.20903670700174426,0.20937247130695247,0.2119231967884796,0.20877181225683716,0.19465304610793366,0.19657375779711805,0.19668403215110852,0.1922880532002771,0.18737588218431767,0.18650077602394166,0.19106533215974686,0.1948330232059734,0.19372043594506727,0.18165934730460287,0.15838684940349568,0.13196451083562577,0.10576872782705626,0.07620210228129265,0.047591316103862136,0.02030389977625846,0.0,0.01262702389303283,0.0379666859944261,0.06386228169180752,0.08826758049598737,0.11175664965324761,0.13004019666741762,0.14387201512221215,0.15465912118491154,0.17240183225638095,0.19762754047077702,0.22748596212942185,0.25226668419473297,0.287147030531296,0.32251551428133607,0.36149653926422554,0.3970560097698477,0.4366667951849028,0.4721203245380692,0.5122037677505378,0.5527846337829523,0.5885213581065916,0.6278874036019517,0.668845830938297,0.709500291324273,0.7454243385852803,0.7845332029985839,0.8251556478154094,0.856061825917662,0.8488058179937812,0.8158367988187387,0.7755188487890459,0.7377477947536895,0.7006673089618705,0.6597929473891533,0.618836505163882,0.5796998076140527,0.5437962888941268,0.5031497717278821,0.4621854736680089,0.4212212401063573,0.3805396095064226,0.3445799482192988,0.3055323396359302,0.2645880326378407,0.22592102746612208,0.20762280646332232,0.21027640071491915,0.21296084462483433,0.2140161895555952,0.21348859411175103,0.20492417421342668,0.20894761292353925,0.20792921346572824,0.20258033019659027,0.20213828336427841,0.20421560671095018,0.21341459854476774,0.22043513395987935,0.21525425320105374,0.20169644609364767,0.17682862073307914,0.15140349508683237,0.12806727784371308,0.10388501238652603,0.0764119997710524,0.047419949883150014,0.02970591869127981,0.04269177483522024,0.06706745219788202,0.09431057435223922,0.12071309238944106,0.14306476696086556,0.16615418312931918,0.1841878066144036,0.19906819062556758,0.21380889416072035,0.235685503391583,0.2646160312616328,0.29833046861266976,0.333426335898499,0.36833772730281056,0.4033808440342528,0.44277646402004445,0.4786788442279337,0.5178120626356968,0.5586437351220972,0.5953953276251109,0.6335108214029079,0.6744473026343298,0.7153182317701405,0.7523661203559899,0.7901716733357294,0.8310887223484154,0.8710965041523302,0.9065422783208426,0.945985943550399,0.9678469432945236,0.9447003175599014,0.906978250818572,0.8704623979614221,0.8296476749799562,0.7886876119839643,0.7490598383607296,0.7134773222386497,0.6730042154087004,0.6320402012588107,0.5911010018892733,0.5528491011926358,0.5162233330535662,0.47539702559753927,0.4344336616919857,0.39421792434041913,0.3587753870303496,0.31875322817363716,0.2793849486636273,0.2684255192496037,0.2776192465929932,0.27784915048740655,0.2782960347000236,0.2775297149517093,0.268500537711565,0.2728517925052869,0.26902630510579395,0.26622926017924,0.2607041539129098,0.26114942869061664,0.26169196990588994,0.25981758891131723,0.25657779608213116,0.2440508151702503,0.2233709432478732,0.19885715183349806,0.17023306080024692,0.14023046314658738,0.11060385513937132,0.08066715889897891,0.05007094255245592,0.03648047654501041,0.05534431851178767,0.08172978572857104,0.10900505981359299,0.13229449191785836,0.1570713612302812,0.17681800800724323,0.1931716049886123,0.2081726276374971,0.22262522468900103,0.24556121971392542,0.2759760412911507,0.3100125297603751,0.3444397948198361,0.3807568648272024,0.4178341484950272,0.4562120832080936,0.4926601954740124,0.5334435341069597,0.5728683424412482,0.6085830909323566,0.6491276447146281,0.6900431192610248,0.7276607329185669,0.7648833679510201,0.8057706946190912,0.8467349926789633,0.8876992907388379,0.9286630410055883,0.9689079875256754,1.0,0.9974388798100275,0.9659411650996199,0.9270957536065965,0.8861455020729689,0.8481732136926012,No
0.9347904668131721,0.9568166612220357,0.9114526446368925,0.873906041524307,0.8501483191310331,0.841518180678309,0.8265792644773708,0.8235656631503678,0.7972729508927601,0.7818874023088367,0.7541863197781011,0.7296560986675051,0.6959143976208035,0.6614327254731127,0.6214255908455786,0.586676505546794,0.5544203106225254,0.5364147329610951,0.5280437030860496,0.5375326238853839,0.5681902187721599,0.6065994195651352,0.6475868151610258,0.6854401314434901,0.7273820892480418,0.7643670716255522,0.8014711351100261,0.8202670592043364,0.8374003446956073,0.8436043061902776,0.8360335342784966,0.8252611715459546,0.8246938117860969,0.8117966350560017,0.8157482046908919,0.8260513122442075,0.8407065522568344,0.8354420617497378,0.8341084022889715,0.8435316337196128,0.8326817044153798,0.8008966984208281,0.7884490943498568,0.8083413411184401,0.8400237664576107,0.8441317241997299,0.8580487769788241,0.8781473647769125,0.8830444837866089,0.8893739860202015,0.8480140993600758,0.7945099177243566,0.7266314946998729,0.6572739466221846,0.5899164652527005,0.535496292068681,0.4677719309377486,0.3984288005944423,0.33443215949890837,0.27781434013342876,0.20996574634050003,0.15510664535157703,0.09102597944728741,0.066980886149556,0.10982272760822065,0.1662338170638349,0.22998843914639178,0.2993282507996544,0.36868772710736897,0.43804720341508485,0.5074066797227985,0.5762570188301828,0.6326795200109467,0.6969181801194568,0.7662661537998057,0.8356256301075207,0.9049849718875591,0.9728935839393289,0.9828720309968899,0.9323588061547445,0.8829373554228712,0.8588521896483097,0.8402990678854447,0.8189073060562362,0.8062658805271288,0.7921662658069581,0.7714414136701819,0.7448731587960506,0.721625804572902,0.6952804668343142,0.6609882570896168,0.626308278592373,0.5912764693772474,0.5481026058317302,0.509368724465638,0.48568292602987295,0.47246579748216133,0.47421912666997024,0.4948311295506316,0.5360103253921986,0.5784349604587247,0.6223793100189701,0.6658527955619058,0.7080205795982466,0.7444814891982761,0.7727165508756615,0.7886824350003421,0.8037917089621067,0.7978406053743772,0.788072836965612,0.7879409901459669,0.7879409901459669,0.788501581826484,0.803114614523468,0.8229126127657156,0.8276589084813195,0.842306848660058,0.8436606999666134,0.837861985541922,0.8074123274046001,0.7810538425589844,0.7791702074115223,0.8234253802036693,0.858322689209754,0.862319850260806,0.8702936383856312,0.8922969035320323,0.8991038348823088,0.8835269606204199,0.8292315069046041,0.7647134621887202,0.7086815973773852,0.6399328219536105,0.5705733456458955,0.5026889402160482,0.4480246193011346,0.38107213712751653,0.31171835582476515,0.246502313981666,0.1908610855397641,0.12273822130384815,0.06715149037747503,0.007636239850127957,0.0,0.048432097672498564,0.11654736092435547,0.17218858936625958,0.2374046312093565,0.3067596232611951,0.3761190995689101,0.4454785758766251,0.5148380521843401,0.5841975284920551,0.6535562424762711,0.7212806036072026,0.7757007767912221,0.8430582581607067,0.9114722396000179,0.9373035086763819,0.8962279605063865,0.8596659004412324,0.8440456794389313,0.8312903508761713,0.8098240224237432,0.792822516800876,0.7866876238785059,0.7603904545759579,0.7310614771099955,0.7040605769473833,0.670896112440504,0.6362173769535313,0.6001801530452955,0.5578057610500355,0.5178985972455648,0.48843055892423815,0.4631570432659351,0.45415939488002177,0.47127814801903334,0.5064138072154543,0.55595101481715,0.601650992099954,0.6428915897933138,0.6836030843380874,0.7251932876733349,0.7633546453230138,0.8005767610015377,0.818124594992431,0.8250618637450478,0.8250978524536712,0.8250978524536712,0.8251134417424866,0.830264200905301,0.8432722429399497,0.843839602699807,0.8546128174409655,0.8639730803209904,0.8726595924038376,0.8573666308845289,0.831361017974976,0.8077789596401215,0.8238959282837226,0.858477407602424,0.8643628177089582,0.8834906784770453,0.9064024244274571,0.917451882373689,0.9037307119951885,0.8619062181499735,0.7935143849644462,0.7256301140622741,0.6709657931473609,0.6040133109737429,0.5346550454151147,0.46559162758061134,0.4081740661943196,0.3462321417451486,0.3012191155626027,0.25182448864235685,0.19576899417129612,0.16010848969315195,0.17661395035850225,0.22792693212181225,0.29313992467091365,0.3624949167227509,0.43185439303046635,0.5012138693381818,0.5703181176545873,0.6278060927548128,0.6760059901948567,0.7218530236451537,0.7646377198702332,0.8245382385236759,0.893838047722924,0.9627549934141086,1.0,0.9551931572947145,0.9043556343611883,0.8743217637536,0.8475693786749883,0.834660619625486,0.821781763193298,0.8011080924808649,0.7830585115889668,0.7611921627860636,0.747562765432527,0.7193471440717767,0.6770286150105131,0.6411720566689159,0.6064914055332906,0.5718114871218933,0.5387571610940047,0.5243090259511449,0.5141181074096295,0.5346178291940982,0.5613911033631966,No
0.2399386094240461,0.23806887712334257,0.24838223815481242,0.25961680804927334,0.26830246522018975,0.27164133925154466,0.27152439262849937,0.2683756289268915,0.26571283190307393,0.2628105638370486,0.26279651879860855,0.2636628845354789,0.27058525941772804,0.2668739581673041,0.2678452286850892,0.2632752500125439,0.2561992657930281,0.253938398159371,0.2539332215242256,0.2532405246020146,0.24614999995657927,0.24507174007471244,0.24507119913874176,0.2450765191663251,0.2475185669954436,0.25372035754308264,0.25844097057341675,0.26781977399064205,0.2636828971142473,0.26872895753372106,0.2671346551450846,0.26196846724656786,0.25409433945655113,0.24392895328979347,0.22838333732992688,0.21097648258883406,0.19304495036870262,0.16826825929955458,0.14474564266547363,0.12015466779305473,0.09002340913838425,0.06622810992473482,0.04300479401572144,0.018274512154050182,0.0,0.006186867414832653,0.023730541739393374,0.04865107139666591,0.0695355745138142,0.09008767643472937,0.10874239491916837,0.12615744457632294,0.14353012202859805,0.15817047231858306,0.17607344710755557,0.19007222900134924,0.2016406946951974,0.20928382031232062,0.21346919298099887,0.22580846028299084,0.23962169291316981,0.25702567540640664,0.28076731887446216,0.30716843771225766,0.3392410235565706,0.36697199809880066,0.4010985719851685,0.4335409296740851,0.4621576088567474,0.49671392523608926,0.5315069982613878,0.5624728732242035,0.592409057015149,0.6271489313626291,0.6619733173805793,0.6967012403586157,0.7262654318227717,0.7576027337390907,0.7924083680046978,0.8272327540226478,0.8620571400405983,0.896881198453185,0.9308488545895104,0.9584259633647818,0.9788074212185047,0.9697216091505809,0.939908190208036,0.9060401263976825,0.8782416355898874,0.8443317945850333,0.8095077671272848,0.7746833811093345,0.7398589950913843,0.7050346090734341,0.6702102230554838,0.6354009276540171,0.6036411260965895,0.5744504393787755,0.5397751724313653,0.5049507864134151,0.4701264003954648,0.4353020143775148,0.4004776283595646,0.3656930101764029,0.3348217234177504,0.304815448870025,0.27004257773544604,0.23533377549607826,0.20604696876603956,0.1744365379122732,0.1471939929845265,0.16132145207433868,0.19431659335242402,0.22214518539904238,0.25124976088772777,0.2660225232907343,0.2713131613696065,0.2631340086579881,0.25000543051776125,0.2389871809137114,0.2345335049946804,0.23047234925294569,0.24088326003096006,0.2496808042937928,0.2538839816770391,0.25393369258642373,0.25393369258642373,0.25393369258642373,0.25393369258642373,0.25393369258642373,0.25393369258642373,0.25393369258642373,0.25389889628893303,0.25004969735938043,0.2451249636208126,0.2450693480692494,0.24357871625005512,0.24135913612844884,0.24458891758812884,0.23792640362939843,0.23499413282669002,0.2280490135002109,0.22751020304822145,0.23324999772574628,0.2378327281735333,0.24461716490320917,0.24507110691912182,0.24507119913874176,0.24507105664970918,0.24453991891559124,0.23587622451444146,0.22065918882093727,0.20326096716716813,0.1855160746687592,0.16357459480378833,0.14036214865945285,0.11712830848433886,0.09392051228612264,0.0707123669167451,0.04608521356920203,0.020230629808861256,0.007806505908243944,0.02455336453356316,0.04346336985661603,0.06613036823814089,0.08348272364340392,0.10651816134533654,0.12971176549528263,0.151356582640352,0.16842736917971024,0.1822790078689982,0.19925132959005176,0.2110068430242955,0.22421407374013436,0.23472117736599607,0.23930848787309178,0.2461525280725183,0.25729616524772014,0.27874595802397506,0.30202728668444667,0.3290901393255168,0.35665608689396144,0.38976445774909574,0.41760394606300766,0.45135985161091075,0.4861575087317649,0.5173899393654384,0.5470663723320219,0.5817938178362563,0.6166182038542072,0.6513753801825917,0.6811523878356651,0.7122574503362435,0.747053254478325,0.7816319853695877,0.8101379133857747,0.8426722976185683,0.8774553494083461,0.908341257669905,0.9383551835587043,0.9725092558571626,0.9981124576579878,1.0,0.9750715554011435,0.9428563611482166,0.9080378413397479,0.8732134553217978,0.8384984386608085,0.8090817565185877,0.7775827702140563,0.7427784046976793,0.7079540186797295,0.6731296326617788,0.6383052466438293,0.6034808606258784,0.5686634293669464,0.5359647397181666,0.5076040635477783,0.4730458100017605,0.4382214239838098,0.40339703796586,0.36857274674709917,0.334212349900592,0.3061887408299149,0.2729595347691256,0.23813760132379147,0.20332403459715476,0.171085087358273,0.14862188446331603,0.1663461153956256,0.19950268811653848,0.2274516353782734,0.25868277447763655,0.28122234957468506,0.29426598818236993,0.2981002390825369,0.2910974055939852,0.27565140863801396,0.27127228618995525,0.26481814339352905,0.2691960685091086,0.2796152849887348,0.2889823055605236,0.2893835909247351,0.2893836663771514,0.2893787455825001,0.28748777123616853,0.28081639435783967,0.2799867588701275,0.2729730669025894,0.2716601762360804,0.2716586794817877,0.2716586794817877,0.27164649871466917,0.2696281525025195,No
0.9161202087264712,0.9057134427845347,0.8898745075209843,0.87396923369648,0.8562365867746217,0.8291622042889363,0.8149642975412689,0.801925552723575,0.7832627226875014,0.7651823919925927,0.7595969196641773,0.7621784274102462,0.7844063124802348,0.8101555723045607,0.8352621584005832,0.8636885125135189,0.8856940127134157,0.8979685960763549,0.9058964304618465,0.9062320531053453,0.9062473529750609,0.9095032401001567,0.9189401225872048,0.9324027032600596,0.9380135630063647,0.9456022175993891,0.9481432415358365,0.9482189842013292,0.9529276418088591,0.9470039689031781,0.926822844950944,0.9123855458986897,0.9213188306477512,0.9454929178938069,0.9500685284645448,0.9628561430207262,0.9723497507017017,0.970650497550508,0.9504667153961474,0.909191385580003,0.8674012805547257,0.8198080837266642,0.7722990341581949,0.731478645865603,0.6871354093769305,0.6394396569063928,0.5917278775023757,0.5445931343012677,0.5049654452153315,0.4690101584850249,0.43204696533869213,0.38460606488730364,0.33689412073623115,0.2894253993331518,0.24873577420969661,0.20422270151152533,0.15652569391595983,0.10881374505782904,0.06128050087601178,0.020709178681038276,0.0,0.03175277447654434,0.07125866390390156,0.1183071308195075,0.16601876901176316,0.21373071786989406,0.26144266672802463,0.30915445083910076,0.35624892649444073,0.39603486833780777,0.44181524619293466,0.48952304240642663,0.5372349912645572,0.5849469401226878,0.6326588889808186,0.6803708378389491,0.7280064438464723,0.7704548002162231,0.813086908534764,0.860739172871576,0.9079273713057127,0.9309850152712998,0.9272607728330841,0.9241359627685101,0.9147707713609515,0.9034597470778208,0.891238773956167,0.8757575208105329,0.8570252705896825,0.8406054011943646,0.8242524373193979,0.8027781893280875,0.78856310050344,0.7807813028213918,0.781436533907223,0.7964231424950882,0.822774710331598,0.8496395995312654,0.8777224645887077,0.9021322802424215,0.9255625137755218,0.9372612343093741,0.937670158942098,0.937670158942098,0.9376710279612791,0.9386099528067567,0.9469694246811929,0.9549187380209317,0.9642651294097163,0.9690653223192921,0.969108264778851,0.9691081423953246,0.9685724581834786,0.9626477818470408,0.9525474859515425,0.9391975954811652,0.9532206648780112,0.9735790994175516,0.9741330935969995,0.9860846521054741,0.9988456524744157,0.9998204562380909,0.9801873288597412,0.9414824566993062,0.8942731124207796,0.8467474445330206,0.8057238317844003,0.7615989561365114,0.7139048173981525,0.6661928685400212,0.6184814468724663,0.5716970666524167,0.5321533892772595,0.4876814396686925,0.4555097315367941,0.41134746474518147,0.36364811374160466,0.3172167254221382,0.277705186544687,0.23098979027252586,0.18327890554958937,0.13557255698265436,0.09020573647522134,0.05020785025671859,0.012542818309226544,0.024189982773280327,0.06492366323250753,0.11251234574450542,0.16022429460263665,0.2079362434607669,0.25557787489646355,0.2982083356164015,0.34066534202530774,0.38830459496809955,0.43563976975988405,0.47125175930465135,0.5105772212756384,0.5581937284890585,0.6059056773471897,0.6536157816060756,0.6996034140592021,0.7309544214505511,0.7667404895244653,0.813028725536462,0.8607392646592199,0.9083541723654948,0.9474321752683695,0.9584373874648856,0.9585965213947544,0.9544413448681289,0.9450165384135433,0.9331587842325643,0.9188585396101577,0.9029939950018891,0.8833161914790627,0.8557279582223615,0.8244734679017268,0.7923756141604387,0.7671450162916872,0.7393153477412434,0.7175466458086993,0.7078997335225697,0.7165479556014979,0.7376082339891291,0.7661067662654143,0.7963457069458831,0.8276050877336588,0.856705679702895,0.8889349657999405,0.9061521498169475,0.9158490916245926,0.9199736328444518,0.926959085207765,0.9274114865295763,0.9344826042093942,0.9456416798628341,0.9530268526785376,0.959386593699027,0.9675914254806074,0.9691062455080862,0.969108264778851,0.9690659089790986,0.9630330441936524,0.9414376922627999,0.9300581211461295,0.9501654738336195,0.9680175986428604,0.9755699999035096,0.9912202132187066,1.0,0.9962066522403362,0.9657068163467287,0.9188078955900313,0.8724028548687507,0.8328816704310177,0.7861498090901445,0.7384388686197757,0.6907275316792759,0.6440608154260871,0.6045456856194943,0.5580688759374207,0.5103584929413737,0.46264654408324246,0.414992326834683,0.3723352039576219,0.3299128624950395,0.2822781172629706,0.23456616840484068,0.18685421954671055,0.13914227068858032,0.09148099857934633,0.053207020584435494,0.05585451538887809,0.0973735152126104,0.14506003178726012,0.19277183708010226,0.2399406352263268,0.2798488147101107,0.3254332969794874,0.3731404074656647,0.4208523563237946,0.4685643051819247,0.5162762540400548,0.5639882028981847,0.6117001517563173,0.6594113152164146,0.7062090368321353,0.7457688035109958,0.792069988311959,0.8397805274347193,0.887489725319882,0.933046940149067,0.9567115696537146,0.9555762781710612,0.9484449238811196,No
0.4180720741712609,0.42253756590007163,0.42402920343113926,0.4228645634094965,0.4260928592317421,0.43181981017237714,0.43265642831931395,0.4326554969848231,0.43132885303034074,0.42046526702276954,0.4085370763559759,0.40597626917899987,0.4157311041902165,0.42785100628778605,0.44166674906615033,0.4556386811662385,0.45594770087711267,0.43075182633674824,0.4010851727401141,0.3733925136642753,0.34199501208906713,0.3086111466462995,0.2737056986153834,0.2463863579928398,0.23917532859388735,0.2642904154105006,0.29504302788996384,0.3298308030658894,0.36336378040039596,0.39548376406884467,0.43180707213655967,0.4682423771935247,0.5046735572685692,0.5396551818411515,0.5706325122669194,0.6066332978996509,0.6430684255879018,0.6795037306448666,0.7159390357018316,0.7523743407587966,0.7887973145566833,0.8230732534555789,0.8545347287554637,0.8907650840962087,0.9272003891531737,0.9635729881442401,0.9884571914321636,0.9636576146939095,0.9278952727913405,0.8971521995388161,0.8617648108236544,0.8253314270714376,0.7888961220144726,0.7524608169575078,0.7160255119005425,0.6795902068435777,0.6431549017866129,0.606721152323368,0.5713145342780959,0.5405209851092758,0.5047636559473647,0.46870510548168487,0.43764895955837746,0.40291390069477906,0.3708114664651496,0.34049789853689005,0.31561104741517654,0.29640089887477505,0.28588809779158186,0.27856475251561874,0.27024705495284906,0.2554153028745627,0.2367930289624316,0.21390556793153093,0.18826018404356182,0.16395559022910378,0.136788001809782,0.10980546491773246,0.08393720897581203,0.05677330687172322,0.03281818392816249,0.010412916369518022,0.0,0.01097665506054002,0.03361825403420937,0.06084956333911329,0.08998337123577105,0.11913040751441939,0.14936869794773855,0.1841795257522011,0.21390595529884004,0.24203277382700228,0.2693547682681525,0.2959967867667712,0.3171607363809976,0.32885635879622566,0.32565996384625606,0.3170661055108688,0.31023903857493185,0.31334640974563155,0.3195176655532781,0.32853210316457426,0.33903343526939334,0.3496412760211751,0.35319046897566864,0.3593053871495324,0.36559578424568273,0.3716835088154673,0.3775353544555293,0.38115397378245963,0.3823492404213569,0.38798673924139426,0.38855427537496,0.3885545600811988,0.3885540833601073,0.38787731684379767,0.3788542654240512,0.3653832527204992,0.36592358542571746,0.3751496797642395,0.3885646218013956,0.403157456779355,0.41941605125732595,0.4331781487741282,0.43569329910524046,0.4125858708679311,0.3786740910607629,0.34430908514707004,0.313062431396697,0.2850088110632061,0.2864710696681141,0.3138624691328813,0.34750105169962797,0.37835407451281267,0.4135339883242741,0.4499670609395834,0.4862573372619652,0.5180766222568136,0.5519373808829007,0.5883578172033137,0.6247931222602789,0.6612284273172433,0.6976637323742085,0.7340989698543481,0.7702272199249303,0.8014086775446296,0.8360611567076786,0.8724897807685854,0.9089028022334504,0.9416412683054944,0.9678746203939947,1.0,0.9949491980817369,0.9605759014341797,0.9241448967987127,0.8877095917417475,0.8512742866847829,0.8148389816278174,0.7784036765708524,0.7419683715138881,0.7056125624926868,0.6732623311429224,0.6399817462342619,0.6035921537143245,0.5696982091974669,0.5379056594818161,0.5018245243189121,0.4703998222954324,0.4398738307520875,0.4111576529242156,0.3867480333851774,0.366914451519613,0.3512490901087799,0.34215545570477657,0.32893287659831594,0.3130418278525109,0.29723010060416977,0.27314330687039545,0.24840608017070265,0.22411539097968491,0.19960075289724322,0.1728055063512589,0.1454991477728318,0.11943637577311583,0.09309293303009103,0.06656355177644968,0.046968233474801724,0.04724102181068324,0.0656954758414462,0.09050562208838897,0.1193732981239507,0.14832085813283757,0.17648077302626552,0.21098201589601873,0.2433012447118026,0.2723079212397428,0.2989591892507433,0.3264002714405714,0.35225268469696336,0.37229052727842515,0.38832142166037786,0.39028527812713754,0.38199384473012565,0.3794827021551781,0.374639856419702,0.3809532410805887,0.39144776757997435,0.4005776698955561,0.4036085253851682,0.4091086659279868,0.4106023004880428,0.41060606389259346,0.41092961256927873,0.4162483885417396,0.417950620129498,0.41790493446863297,0.41432729648759037,0.4106678211112591,0.40932469280450956,0.3964943801350711,0.3828866462637255,0.3825760372445999,0.3905693661975822,0.4001092853211017,0.4142703514133528,0.42468298040805363,0.42010360830600635,0.3951587938351133,0.3598615974832686,0.32869303117691384,0.294835289859279,0.2738715130701219,0.2878008867517128,0.31876533725202516,0.3524430823982918,0.38875367082910484,0.42090746234833,0.4544052026278116,0.4908126650571354,0.5272479701141006,0.5636832751710659,0.6001185316316195,0.6363030542926478,0.6677022777004005,0.7003047844349748,0.7257773971576946,0.7602481965820198,0.7966789798984759,0.8331012921933243,0.8673375897276023,0.8957836569198427,0.8880000177444811,0.8523119266202706,0.8158808448375985,0.7824547262628903,No
0.5790660654126272,0.5686113979137504,0.5533483386975084,0.5349424216032528,0.5127766187290363,0.48754345993094894,0.4630157792894505,0.435507497115289,0.40524484881337397,0.379039223168687,0.3658152982893683,0.3439315644706382,0.3174470585896907,0.2891676442608002,0.26662386232700785,0.25405989177803323,0.26285434711503286,0.2904108732583903,0.3201170947518406,0.35223078176977474,0.3854371836728241,0.4195576078615342,0.45344910182632825,0.4862076108453679,0.5192582950863733,0.5479486560881055,0.5759544608272078,0.5893854902309636,0.5908226646201651,0.5983843695340507,0.5993953848026845,0.5983527238424611,0.5907822426447253,0.5897505533148675,0.5897494628843667,0.5898686904453143,0.5954136888135622,0.6037751404330305,0.60895546440801,0.6090432636713763,0.6090433150417203,0.6093062687948461,0.6159416569645566,0.6186793492135134,0.6186794565915323,0.6159495766043515,0.610342416357089,0.6151105065644749,0.6093345976483173,0.6090433285602321,0.609054274068809,0.6118542698940024,0.6155130078127831,0.60903814768031,0.6018411509462875,0.5921823091926768,0.5988009529832461,0.6169506886989451,0.6319763436345684,0.6294274771742565,0.6331619291576485,0.6372870445063625,0.6176308275893281,0.5770904008980866,0.5417944463613913,0.49978656611866823,0.4569248853094834,0.414062382776774,0.37134041788074157,0.3345616404961762,0.3037311639398561,0.27127930032842285,0.22869052848512195,0.18582807687213965,0.1431651735694055,0.10961242587356668,0.08050800444452832,0.04324394289176836,0.005772305816723611,0.0,0.025733253193214845,0.06704080181035255,0.10957787919944728,0.1455722436219482,0.18598559028532802,0.22884189522148368,0.2716451778256903,0.309819487077734,0.34785040041652593,0.39064500495881593,0.43350750749152533,0.4763700100242345,0.5192324562298123,0.5618225959591134,0.5979841315389762,0.6381827534547266,0.6810356222942766,0.723898124826986,0.7667606273596954,0.8096231298924046,0.8524856324251138,0.895348134957823,0.938128476913483,0.9675644322653487,0.9406717491186836,0.8980223904471891,0.8599275010238947,0.8218193780045615,0.7790178655067359,0.7363242357559856,0.6997919266331771,0.6655060908955708,0.6333077560847518,0.6022187335717442,0.5800152202645885,0.5636642166178902,0.5513504110011545,0.5371139756908276,0.5226901912783277,0.5043490670759561,0.4867132894465276,0.46325842303837517,0.434858232170207,0.4064769656767806,0.3805493544766356,0.3503967107154531,0.3213283210408415,0.2955905142575179,0.27198328753174716,0.2543845782703631,0.2639754829048917,0.2868386504489495,0.3143150654651352,0.3463854913465536,0.37992833035924156,0.41306990068821126,0.44527528858058685,0.4803129117760814,0.516053239080069,0.5448159895390652,0.5702644042358325,0.5954686175479267,0.6161490662914961,0.6230340214286609,0.6282264847573913,0.6250499727738561,0.6185495911778487,0.6115069201308547,0.6090523005054886,0.6090432636713763,0.6091539330440785,0.6145721747801074,0.618662680218953,0.6202686404936779,0.6277206418594314,0.6283367922856862,0.6283370644583857,0.6283370644583857,0.6283370644583857,0.6283595546794862,0.6317527740768318,0.6378269568481298,0.6355152220776517,0.6307874637135225,0.6375701265431153,0.6374814911084632,0.6329159040056835,0.6377137535749204,0.6379827911400637,0.636794277995467,0.6318350891523108,0.6463470058533773,0.6566313849077501,0.6578025303787403,0.6650308233201756,0.6637204814253148,0.6377371923918518,0.599804597332825,0.5615776633744174,0.5236680990532192,0.48087189687453646,0.4380093943418266,0.3954630071968692,0.35937551327907347,0.3190592464145843,0.27620628460449437,0.23334378207178563,0.1904812795390758,0.14761936948830523,0.10581573675486244,0.07059653684922029,0.03615605587463211,0.017057394746796795,0.02424629667846223,0.05840223249762322,0.10097317628012603,0.14379084099867745,0.18250291339150393,0.22001402104370826,0.2627762860174596,0.30563878855016835,0.348501291082878,0.3913637936155867,0.43422629614829655,0.4770887986810053,0.5199436500729981,0.5606035362416764,0.5964199697819268,0.6388919570849805,0.6817544109510476,0.7246169134837572,0.7674794160164664,0.8103419185491758,0.8532044210818845,0.8960591442979868,0.936160400555363,0.9645130104222659,1.0,0.9876740624678488,0.9507272845933414,0.9087781125383616,0.8734169779680645,0.8319486338047806,0.7935433194117623,0.75591227224165,0.7193123740092944,0.6828613058069406,0.6503964908582847,0.6195371416623272,0.5946768175175581,0.5743008700986518,0.5593474392771938,0.5464634516084417,0.5303101605006546,0.5091221135221,0.4876905450147295,0.4656014481647839,0.43997655175134165,0.412958854809099,0.3843881919749581,0.3558180443659906,0.32714098986616724,0.2932587596244407,0.26073634494709697,0.2349467493288362,0.2156232713905728,0.21565991503105453,0.2353779032502603,0.2644798474567229,0.3005874490315308,0.3349009972499284,0.3690656118856419,0.4031875635903246,0.4368102902698032,0.4671727444304281,No
0.7630573906632054,0.7785016469417001,0.786055729791916,0.7560605631522384,0.701710904036946,0.6519507469457124,0.5969574283037489,0.5435654078717824,0.5184107928927975,0.5493911630644337,0.5413766693201321,0.49745502250404083,0.47863734961001536,0.45380687414097065,0.39956459976717706,0.34271341354986373,0.29376627219801876,0.23719989647967665,0.17921547859382936,0.12237348002515791,0.0735631431496131,0.028072297497700127,0.03432055907288789,0.08842169111385134,0.14640367056631054,0.20415366751361663,0.25399150157233064,0.2926832972501858,0.34363893205774576,0.40155777974918117,0.4553376992511855,0.48530344249943713,0.5163844109248794,0.5541991790778054,0.5920315794046387,0.6281468357644682,0.668097953500334,0.6726175305593709,0.6922109022613505,0.7272668816100696,0.7844885828653219,0.8422136014297434,0.892787539908219,0.9468788891624345,0.9999999999999998,0.9879639598797161,0.9338520071019565,0.8842700335181546,0.8295244580194125,0.7850723378858568,0.746926396766074,0.7225507618838733,0.7065842457077343,0.6945016399301056,0.6794880216163619,0.6595556291360745,0.6342560370605239,0.6091259219193317,0.5798533862258175,0.544548607136482,0.5109556013004717,0.4873752484678002,0.48702517120448174,0.5148473070522384,0.5523682919098649,0.5996844170334377,0.6449505664261428,0.6857388708616168,0.7267943086886088,0.7673775182169571,0.8010877348665351,0.8150714458192199,0.8229952052597678,0.8269239032364071,0.8295150557467845,0.8195169362185539,0.8080203947687019,0.8033507622530791,0.7966957562652281,0.7993424152380555,0.7980989233936948,0.8051851405897918,0.8142613263740892,0.8148925259820188,0.8078574625794208,0.7968653972921305,0.7706770554795992,0.7417040621262365,0.746809222624456,0.7762982112535088,0.7978890446651683,0.8183957446061689,0.8422290032687134,0.847347440876369,0.8140003422115154,0.7655705765934946,0.7093675767328451,0.6599099402402826,0.6043416563466375,0.5479048516910194,0.4988291085790739,0.4419728972579229,0.3839869974889769,0.32599994587101366,0.2680128942530504,0.21002584263508695,0.1520387910171237,0.09405415951273488,0.03773504922805615,0.0,0.013207874596758762,0.05941863808882064,0.1156408314563957,0.17362480993036877,0.23123512922013845,0.28137682327137536,0.33601439133449773,0.39398476500931556,0.4519708915293388,0.5089478676849934,0.5580771948636476,0.6143474282324006,0.6719423100465358,0.722036634845473,0.7767334797446155,0.8347045350649649,0.892683813158105,0.9457803010164147,0.9371174897289387,0.8827514300010881,0.8338831607156374,0.7845070029710306,0.7421337826277383,0.7173871554279334,0.6997406593429027,0.6812120772057499,0.6545480783539765,0.6342238033647223,0.6074680289052812,0.5815137394657499,0.5491099548655243,0.5098408479779741,0.47985549525241367,0.45207263322754043,0.429574921423878,0.43054832937457266,0.46388196866320586,0.5023215079491723,0.5452308292026917,0.5887298112280792,0.6321971895868941,0.6756788549484531,0.7190818946026312,0.7577643532671869,0.787453848526158,0.8070862663176541,0.8159974344142487,0.8216291888764014,0.8119325629372913,0.8029724910277003,0.7875478758685133,0.7752342612193059,0.7825787669236772,0.7924586588539322,0.8020442062502049,0.8079094948921071,0.8192627280804361,0.826515203986965,0.8315368920553414,0.8463157264698951,0.8353054717598738,0.8094618310006807,0.7871963562491,0.7887312672698987,0.8207376744911405,0.8424326677057328,0.8628229580662554,0.8823426459367794,0.8916554335316185,0.8609874414703322,0.8092038678493121,0.7570601192381392,0.704734856561078,0.6488013968359161,0.5995970519638698,0.5424510050399098,0.48446456106837865,0.4264775094504152,0.3685812599496099,0.31641109875351425,0.2640159480062092,0.20611762442259063,0.1481518518551097,0.09401123769177122,0.05296930286406676,0.055082441615801336,0.10787848229497232,0.16584490170827504,0.2211710542164056,0.2707690291889009,0.3282268559117094,0.38621377298214266,0.44419165666244487,0.4994880040986094,0.5491029491001171,0.6065737802136872,0.6643915589049492,0.7156113274552132,0.7689889323966335,0.8269334137363811,0.8843927215254179,0.933950156884672,0.9809553989591635,0.9578906956499622,0.9065009794161754,0.8548485046003305,0.8083602754293351,0.7737425847409622,0.7465809015598641,0.7238389434749082,0.7081682107526073,0.6898247268105169,0.6640861898026185,0.6298960782661149,0.6033311998123698,0.5739140679519696,0.5410308214347475,0.5073193515098822,0.4757876422154399,0.4577657768364729,0.4674494395019948,0.49974840637633156,0.534659009405211,0.5842410434580072,0.6321235924142419,0.6757172932956648,0.7212155499135129,0.7629106121282043,0.8030214504208264,0.8310575417571138,0.8577378362407184,0.8569399490029306,0.8405827417454537,0.8272005033771828,0.8124867348620357,0.8036106161810153,0.797679702637244,0.801188315934469,0.8049686921587069,0.815960458537232,0.816400233798454,0.8238918602427212,0.8386650210568338,0.8519988875084405,0.8682999293471183,No
0.3278600882379692,0.32116143573587697,0.322583861972634,0.30713406808500765,0.2929727058034177,0.29854264659129526,0.31107196844904683,0.3165732142567761,0.31384460729728714,0.30901831220514553,0.31475943506007886,0.3094354836060029,0.3068665971972151,0.30434182796280695,0.2978098531623403,0.28852179483486506,0.28277003160333924,0.2781110641332645,0.28212712529429895,0.29177799013102823,0.29927687645327516,0.3039628406129249,0.3063023901995212,0.30400706987678094,0.3005343613819238,0.2854009594992837,0.2666739053341056,0.2460337993780577,0.22059147948252766,0.1895273582443131,0.15881888599820537,0.12842600936141224,0.09834349987884883,0.07087804311411317,0.04258283427937726,0.016503850357235228,0.0,0.01752941985058354,0.047947240830155335,0.07638846433706892,0.10186704583910822,0.1256438126873609,0.15023591660200974,0.17349366079698325,0.193585311673802,0.21461067092303665,0.2327278198679863,0.24816772888100802,0.2618985023179685,0.27417831503923296,0.2897641914648965,0.3129077940349003,0.3383734745733682,0.3693868533616047,0.4023009029152569,0.4352715379996255,0.47136616650067875,0.5046165520157195,0.5431578415339595,0.5766039816082555,0.612705430984096,0.6516145535155184,0.6886709282518211,0.7213733829706792,0.7599196770166863,0.7982447845451863,0.8305985860130729,0.8682223148793933,0.9066552960396157,0.939166051770044,0.9763079218634183,1.0,0.9824638263161258,0.9453160471079376,0.9121429518876942,0.8756973691178214,0.8367784420525419,0.7978500906727792,0.758923382586628,0.7211663553465897,0.6888395901592603,0.6506206521105409,0.6116927180490408,0.5727643666692781,0.5338411123482094,0.49668092210179626,0.46404142763502243,0.4255353234611834,0.3866069940455399,0.3476786426657765,0.3087502912860136,0.2699710032772151,0.23624346591000966,0.203858173090252,0.20791690245782712,0.24318706189894668,0.27551804570656513,0.31082638748546243,0.3352513793645948,0.3420572596981244,0.34055552746896933,0.33262718123161505,0.33722191885218744,0.33875119806974974,0.31916703082072884,0.3046628482459002,0.3137168900999461,0.3265447687924792,0.3329430539629521,0.32678290741422833,0.32517372329830807,0.32516969357929204,0.32448348574168184,0.3178950507695484,0.3132564427089559,0.3077637049856421,0.3008571922511125,0.29371075606348196,0.2987139767961333,0.30838475600776083,0.3160314462028757,0.3166831593676125,0.3151778337189479,0.30756438431157185,0.29355005131622347,0.27328792145902914,0.2500041865916194,0.22361202949476167,0.1911577468023815,0.1646192937808162,0.13657691489598633,0.10739469546158831,0.0786495661845299,0.05533039020585484,0.05092751907659632,0.07245981687761627,0.10067428995715177,0.1254121221163056,0.15095647754618757,0.17430464364133003,0.19554670743317137,0.21515944283835076,0.23896354025264643,0.25391215329068406,0.26820743994946117,0.27737847864213494,0.2881612661721411,0.3085516715339707,0.3319945564939333,0.35962128927134174,0.3888590061675914,0.4221771752976131,0.45761704767562894,0.4915368050525357,0.5294198913129435,0.5616925839391584,0.5996022757459416,0.6335894164848546,0.6691193564620126,0.7079983692513565,0.7440846254100963,0.7737050865701283,0.8003301023165084,0.8381472407569512,0.8719539278699768,0.9076722898417064,0.945469845486143,0.9651501066581614,0.945687614751765,0.9143378948254144,0.8767030128158046,0.837777614898306,0.7997041448980866,0.7674285516101216,0.7294752980847674,0.6905475836644586,0.6516192322846954,0.6127635923080326,0.5783549066763203,0.5432823978374945,0.5043902110407199,0.46546185966095677,0.4265335082811943,0.38760515690143116,0.34869437528311287,0.3127863173979044,0.27915945390313635,0.24037613565745564,0.20144778427769228,0.1625196141019123,0.12501372221749563,0.12294309605306442,0.1587833905444982,0.19115433578132102,0.22885552145336785,0.2612764216405494,0.2971566993936141,0.32834455063647594,0.3486017540236839,0.3503539065514998,0.34428365242793046,0.3381173751120412,0.3409318495929037,0.32937371490217116,0.31097188588615854,0.31570514411106165,0.3248383910407142,0.32516016433104955,0.3229178517010767,0.31696523879394434,0.3165366226193842,0.311336659716442,0.3067843328379132,0.30023649435858957,0.29589450567930675,0.2841262122214021,0.2819958363829993,0.27913339374133916,0.28424127928930965,0.29590378026373054,0.30332998132259403,0.3010122600661178,0.3031311361975759,0.2951979708289023,0.2774046694407899,0.2579399862091818,0.23724195642762447,0.20936370885428546,0.1776726952269454,0.1499404048191515,0.12084493669014762,0.10318330123104524,0.12345615366008711,0.14684904800528042,0.1584274540799373,0.14112459941404754,0.11331646151619434,0.08100815130606676,0.0673612492577167,0.0736777225216152,0.058251810395234305,0.05183271721025573,0.049592840393701154,0.02581507622271273,0.007094025967046669,0.023240575811177333,0.048425788370111134,0.0733021336766011,0.10139463461519105,0.12410952717125978,0.14773540553506592,0.1695129332331744,0.19350533965391858,0.21118858704932797,0.22756110885466274,No
0.6523260751796478,0.6746731583662551,0.6852865228559555,0.6945733682647659,0.6888830926443004,0.6738639936733146,0.6604297843057405,0.6598273464489153,0.6545716205383467,0.6427716361697198,0.6424136105135694,0.6424172680992242,0.6449358040971211,0.6588140741669024,0.6598420125478932,0.6598421653960842,0.6598421653960842,0.6598421653960842,0.6598421653960842,0.6598443361322208,0.6619508003260006,0.6759822809053477,0.677270312474616,0.6772707259164426,0.6772709257466589,0.6781068553341192,0.6916436220405742,0.6946980711684021,0.6946851906687432,0.6893177858075301,0.6574412480837406,0.6309464510916416,0.6063805477899038,0.5934308708392098,0.6121898153319014,0.6486277197842454,0.6846987087846763,0.7008263767702774,0.7204077198265706,0.7353746718533873,0.7462210315495854,0.7333485158201762,0.7102472272303504,0.6653502383140548,0.6094364201981772,0.561447819753953,0.5053360202902231,0.445745394014299,0.39902671070451,0.34110048471498233,0.2805500756684225,0.22309053907098297,0.1760773282994892,0.12435057739867084,0.10553008985733703,0.13299676798439952,0.18891761216678926,0.2366541392539916,0.2931319306254494,0.353680452255122,0.4142361566513477,0.474791861047573,0.5352850109637326,0.5881777722475534,0.6391522606784186,0.6994512970000168,0.7501688509648106,0.803294007737986,0.8638246707804353,0.924256659545752,0.9581274413478704,0.9230247860155139,0.865460823074403,0.8062978825730696,0.7599439160164008,0.7109260252376921,0.6704046439159428,0.6332374842674224,0.6033610341233939,0.5860563024394305,0.5614317721607365,0.5380366416574689,0.5205116551928648,0.5035315029707612,0.4800998204493787,0.44727310221349903,0.42102310709945634,0.38867552706799113,0.352119520266585,0.31465458826233217,0.2793568651683085,0.24326591102461004,0.1994398533451167,0.1638137102151802,0.1226665544500194,0.07979760651219525,0.04925699822208518,0.026413444585787982,0.017420287939126755,0.040578890215329455,0.07775603336729864,0.12273671265320285,0.16973376435748255,0.22641117065494676,0.2716643633861713,0.31716054806465666,0.3664991893517988,0.416819835557078,0.4619383037192222,0.5068342930303387,0.5509218841069932,0.5914027734309739,0.6315606815052432,0.6642052307473407,0.6858679040165367,0.6946261992824923,0.6946989281205513,0.6934659162641879,0.6793851537739779,0.6684256546828982,0.6539005329981986,0.6482057449604697,0.6591713957108225,0.6468132156547064,0.6424215627596825,0.6441643476303249,0.6583284142275643,0.659841526440534,0.6598421653960842,0.6598423088478693,0.6604340359282532,0.6735890559421178,0.6770278394808935,0.6653549292033105,0.6599410457836155,0.6684416806361901,0.6769754039591591,0.6658283198931354,0.6656771417267193,0.6770723584489473,0.682834343165764,0.6887802334658084,0.687874375844626,0.6927508084393601,0.6669610693905637,0.6308380510173306,0.6058307798284899,0.5857302057027587,0.5781187118413826,0.6049387956827927,0.6425797251378418,0.6777897583789168,0.7034575413443704,0.7143937317947757,0.7283063835699384,0.7202890754623477,0.7096285573952108,0.6812866296193847,0.6270986197161124,0.5804143535437012,0.5232407595172388,0.4766272397066338,0.41744833236043855,0.3579058459932467,0.31121957259894284,0.25320617757393027,0.19265564443820749,0.13536197941225803,0.09346501846768929,0.070672786526361,0.09256056370700128,0.14708307208448046,0.20754333302696004,0.25941198996909254,0.3113791718659775,0.3718608330332209,0.43241653742944663,0.4929702720012963,0.5514749834081427,0.5979785827333495,0.65721124301573,0.7177485329835731,0.773049195516069,0.8217012202800835,0.882005051558536,0.9425602441642593,1.0,0.9938302533785914,0.9344272504330817,0.8741216842841308,0.8254373208070529,0.7704077854203586,0.7216412599211144,0.6761407796904964,0.6357280366802045,0.6044032545623517,0.5767751975806035,0.5553101264805806,0.5340092745432128,0.5167843543779314,0.5014429540145389,0.4775690675545148,0.451359344984422,0.4257115194721113,0.3954446452916578,0.3599631624698123,0.32492913864275197,0.2874217069962963,0.25051046658856313,0.21561474516250545,0.1755590959710185,0.13300674823033365,0.08905457788743432,0.05331920523398859,0.02300095291904558,0.0,0.010654175701166668,0.04048631814203274,0.07766385267556641,0.12263618107263508,0.16960714077552286,0.2263098312000622,0.27295520444888544,0.3205731497737001,0.3712789777121377,0.4169613434712418,0.46307778845632797,0.5108831951244759,0.5565759704555475,0.5950797541753601,0.6314524774690837,0.6601265450288167,0.6848818121925677,0.6946242840010153,0.6957931462226146,0.7006067536788865,0.6885015875533376,0.677525828743788,0.6751192917996893,0.6611952501781087,0.6598424466618114,0.6598994741616302,0.6672347038846937,0.6771337552794625,0.6779398389856377,0.691351486104129,0.6946971924074674,0.6946992864368009,0.6946995789782147,0.6961239496538885,0.7100791649778153,0.7052332820444889,0.6948915044528166,0.6949467755454766,0.7055634670302791,No
0.43078491444998424,0.45338474467359235,0.48824715348901404,0.5066265904859115,0.511644779480056,0.5159172562531027,0.5004560381756507,0.4622495543097942,0.4166041969274805,0.3685223264646844,0.3253831255678008,0.3063163413176626,0.30232144076141965,0.2878085187196868,0.28964057204083815,0.26674332497849607,0.2192771557069575,0.19865636759900318,0.22668593330654607,0.24703115690789024,0.22613660928036272,0.18687129325986196,0.1471818962249125,0.1415683833945971,0.1360995378161467,0.11416383937688912,0.12332809154741065,0.13846850728286464,0.11527498589476215,0.12381194490376024,0.1713331230158628,0.22471825436016357,0.2781368680456504,0.33155548173113747,0.38497409541662475,0.4383927091021118,0.4918112401443808,0.54481220623535,0.5910384596386247,0.6418045531772572,0.695212967205415,0.7486315808909025,0.8020486136567446,0.8542859448622924,0.8997652796555888,0.9520276608553533,1.0,0.9859666215695215,0.9335690019633214,0.8837714534306511,0.8367731403539382,0.783562131315656,0.7317442843302611,0.68619169936844,0.6400374007925869,0.6040083622879668,0.5587637863817996,0.5150832526608786,0.4777194297813503,0.4483983370938638,0.42915889299919985,0.41272958755969236,0.3990642161047384,0.37855173771285444,0.3521011178377145,0.3252669507481154,0.2950753189747424,0.26376898415019934,0.22471586839207935,0.1849040623724596,0.14718595876022422,0.11495695258889183,0.09902351671577847,0.11086559082792258,0.14303729679525845,0.18045392148601147,0.21615753383376313,0.25180093465542197,0.2890334066142861,0.32271945453987483,0.3480256192447637,0.36238207571364756,0.3583613478941281,0.3459411087456008,0.33554826015704675,0.33285670003594214,0.339875820706532,0.3511366320776075,0.36205821773656566,0.3677861946369103,0.3764953010427645,0.38361903398008024,0.3839468143842115,0.3838364254219364,0.3749942415736436,0.34497317710148634,0.3269554990454089,0.331124935638315,0.35988859826260056,0.38686926725154147,0.40812903043491877,0.41464127797366057,0.40914771900867386,0.37354256207377,0.3273683195379882,0.28183152644992226,0.23508436743110517,0.18564567858041658,0.1340932704609905,0.08842076346433747,0.0362291183587784,0.0,0.012775812976852485,0.05557014390272563,0.10760994971234195,0.16102683035054444,0.21433404269597678,0.2623582441777681,0.3110746326870133,0.36442847476836016,0.4178470884538481,0.4712657021393354,0.5246827349051768,0.5769200661107254,0.6223994009040208,0.6746683382757692,0.7280859602426388,0.781504573928125,0.8348259475948274,0.871907521134331,0.8368604947914422,0.7835621313156556,0.7317442843302611,0.68613616806806,0.6335765604133963,0.5813081596074923,0.5358318201369008,0.48519951322957033,0.4414459471881642,0.4006424818638934,0.3646071856015942,0.3409375408043056,0.3192494455623567,0.29737901253269805,0.27334819141816613,0.2525106278576865,0.22671926371031303,0.1971352142432563,0.16458265952235074,0.13165564216154135,0.10109691734247694,0.07270659934489876,0.049919411109947465,0.05223343275208503,0.07476297788743413,0.1068480860701182,0.1451063453765966,0.1871626307033587,0.23202082377356592,0.27032914761991544,0.30723731017487244,0.3427431292971481,0.3718996249292954,0.3888917833466772,0.38646339077010206,0.3762739871647067,0.3680348770119293,0.35979895568222986,0.36453417094040397,0.376515428299836,0.3965026038135864,0.41346501811902403,0.4238477662975544,0.4326451508779836,0.435505275672043,0.44193577593814637,0.44555675844774534,0.4455788677760917,0.44287145222675406,0.42117309979798767,0.39231009419622387,0.36553025760448876,0.34807874601274236,0.36976667949904085,0.4016470620725403,0.42169024444920256,0.43675255850488504,0.44361837296856166,0.4297058956754125,0.39670405869877334,0.35152457336599574,0.3021025422165948,0.25657479785669457,0.2060018839871709,0.16033043573326133,0.10760981197364505,0.05649786302180981,0.04057328686516937,0.07541809722508175,0.12815394750427966,0.18155201141397104,0.2316891499623015,0.2784091661522998,0.33155548173113814,0.38497409541662564,0.43839270910211314,0.4918113227875984,0.5450874658048825,0.592760776764792,0.6418394620501242,0.6952129672054166,0.7486315808909016,0.8019077239081853,0.8495808420339195,0.8972550331772804,0.9051629598445556,0.8554815133930922,0.8050413079094643,0.7585656954769626,0.7054867417004247,0.6532178318764168,0.6077384970831219,0.5555856005556568,0.5072600076234031,0.4625126802782906,0.417969084917293,0.37819712355707824,0.3526173119739817,0.33709772215707745,0.3170290376749898,0.2910080497275873,0.267667387907345,0.24438900635877614,0.2150463821475337,0.18744469671923358,0.15528380099803085,0.12418031739880764,0.09806386313160087,0.0814418661005365,0.08538371480723583,0.111208101413385,0.14435211148333216,0.1823490366682503,0.22023984738260083,0.2600238057667088,0.2978886851732321,0.3361564050261643,0.3733473886703633,0.4013939296233704,0.4115132979838305,0.4005905225518094,0.3862682012891847,0.3773421120873073,0.3742010656629846,0.38157999748635096,No
0.3793207990780423,0.41283853904920664,0.44362361425967944,0.4587920560797534,0.45608699367038863,0.45285701576615867,0.45647124317596655,0.4640508727692385,0.4568293252641873,0.4598510923755641,0.47883173660312583,0.4890167623250057,0.47599084400939073,0.43482972845891843,0.3893757299673628,0.3438032546177341,0.2984036659489474,0.25069992013705167,0.20088041434064308,0.15498459591345803,0.10791562284323652,0.0721589444418036,0.09347042539690797,0.1374499005096237,0.18628924653028545,0.23616152618781394,0.2822870389669837,0.32851470413712214,0.36865690445250987,0.4094327944808691,0.45142822697239327,0.4922212961361059,0.5315043012908447,0.5806047791836382,0.6306025762116056,0.6806018976399717,0.7306012190683375,0.7806005404967036,0.8304366117667994,0.876268007611644,0.9235548237142088,0.9586085646342368,0.9310286974740274,0.8853378774986329,0.8357600142725132,0.7903872719326082,0.7425097544762611,0.6959783037748228,0.6497748131761587,0.6051022051511643,0.5615010549873014,0.518665358212711,0.4796389570359887,0.4531258817489643,0.4341692325706603,0.4107157397117831,0.3822725382645906,0.35262264575666213,0.3194828007351833,0.2869018304735419,0.26260570949454354,0.2717611114423786,0.3007233672777906,0.33520668064817727,0.37473591078927315,0.41306310848763794,0.44772108529919197,0.4768118344066572,0.4962581619445332,0.501267515083083,0.4962460146824681,0.4935662652451811,0.492123645892649,0.4739953590446715,0.44937600297075186,0.4444310188666851,0.4485709591513174,0.43549587867355255,0.402565624659464,0.3587491447795448,0.31434186980050705,0.2668740680547531,0.2221064790702426,0.17302964338703597,0.12475933865298894,0.07961098415687251,0.03059714824781945,0.0,0.0243531546197715,0.06847051423479422,0.11783743594505414,0.16769904677331338,0.2136955250018433,0.2609137280258961,0.31087438268905865,0.36087370411742414,0.4108160456632113,0.4576873071679328,0.5040094892555207,0.5539114772958262,0.6039107987241916,0.6539101201525579,0.7039094415809235,0.7538795608824473,0.8013344040906811,0.8464540220147672,0.8659003107205574,0.8242435981824363,0.7756056769092354,0.7307010735111024,0.6818127313673188,0.6369336669931858,0.5901039477282983,0.5501614947487978,0.513865240284197,0.4732531940649587,0.4375590314612783,0.4119788005648166,0.39296224217391007,0.37143741514615347,0.3447059547458291,0.3099702159313219,0.274728112339258,0.2420725495965671,0.21992997189206553,0.23046929534510352,0.2617095822228872,0.2989205665294654,0.3364198677338921,0.3738746554181023,0.4090620120362254,0.44012496215866603,0.45671560841502234,0.45898915749077074,0.4547725471813422,0.460590082184547,0.47013445211397875,0.4645574718072172,0.4561841573380059,0.4706024286918311,0.48771182470017593,0.4854145134058574,0.4499914295236149,0.4046618890266154,0.35940066333635357,0.31446317196827933,0.26620490399646324,0.21838475206778196,0.1729104374418141,0.12315854679138849,0.07316440023514381,0.02537337190766442,0.009898058503805318,0.04594871316438609,0.092779643934359,0.13872736594316815,0.18857800751410947,0.23857409126392748,0.2874481703508951,0.33228475918520206,0.3816167423916361,0.4316151021208763,0.48161442354924255,0.5316137449776086,0.5816127442976773,0.631169258760838,0.676206814809041,0.724658899722338,0.7746508395843756,0.8246501610127419,0.874649482441108,0.9246488038694745,0.9742701048687394,0.9999999999999998,0.9657044302870754,0.9179699614136732,0.8686330911218763,0.8237799392016487,0.7749897455760975,0.7278870161245286,0.6818108505825675,0.6343239400546736,0.5898144165028727,0.5452803780120923,0.5011797459864453,0.46736270052881634,0.4401854240196199,0.41787465925280864,0.3957108309771189,0.3673088744853521,0.33454677223290274,0.29944028591538463,0.26502007001033046,0.23149806085870406,0.21936554368261874,0.2408632364392681,0.27762234917844264,0.31894206536787684,0.35626130954957813,0.39338429033873545,0.42750645850074465,0.4556458687530289,0.4824199853194815,0.4911170547823689,0.4819986687800102,0.4842247116156835,0.49444557341388995,0.4918976850138117,0.4711030082817975,0.45942493073026713,0.47211857499896115,0.4848394950937309,0.47726658099761865,0.43905756634061466,0.3949278551818254,0.35050783109341777,0.30171573561104026,0.2546163569964477,0.20862503265671273,0.164665992694776,0.12265831012022743,0.07783850542223081,0.035822423285028715,0.03675460283646148,0.08097806710282485,0.13093681416965142,0.18067013744141158,0.2259865152593996,0.2685494778090498,0.31040261514032175,0.36005498763240396,0.410054259365195,0.46005349859745803,0.5097367673987983,0.5549716342435318,0.6031047134512364,0.6530913539719634,0.7030906754003281,0.7530899968286944,0.8030893182570609,0.8530886396854271,0.9029364887793823,0.9394662292240654,0.9146041485072043,0.8702639015316675,0.8212449084050579,0.7728784147406356,0.727823970091267,0.6808967358349891,0.6354588412396742,0.5908965049195323,0.5480606275864957,0.5100714799452082,0.4784618008800978,0.45342641433308084,No
0.10493594393682937,0.11457933618745608,0.1459927353664845,0.17591397520610963,0.20781154261181478,0.22465061117795004,0.20098827440873546,0.16977060587212534,0.1351421932494774,0.10845364372200272,0.10147696314717036,0.10444347341260429,0.12454037313315558,0.15451636810202785,0.17341095829192477,0.17607235453284842,0.19787422445790126,0.20444996779448243,0.17270587713391294,0.1372529255982633,0.12472654007485162,0.1321063754931926,0.11294056451963308,0.09969502533543362,0.11299992409337123,0.13784271073532173,0.16646701354612548,0.19643846926076702,0.22849838708327352,0.25200752900453716,0.2798780716631508,0.30507331480184074,0.32770182504488665,0.34422146597125725,0.3510683083945798,0.34672284021306954,0.34988967417801486,0.34470886405135315,0.33957763942271035,0.3377901825611893,0.3370092551402899,0.33604124437432215,0.346800550968712,0.34757192108566115,0.3569838610659013,0.3546652341246521,0.34792558532854123,0.35427193902255394,0.3470399713579506,0.33990147884407107,0.34431230951173664,0.3447129826359716,0.3397036511357516,0.3444886972761705,0.3438020213915176,0.3359202924044953,0.3381274364133682,0.3442610041791616,0.3397119389368346,0.3445965846406458,0.33882618456063507,0.32838251930684215,0.332671214168462,0.34836630787286893,0.3402931797115818,0.35165633276829844,0.3607988528447552,0.3586372848549453,0.3229164763800676,0.2865157032752317,0.24548390159169453,0.20845873743549603,0.16536622916636667,0.1288241677546338,0.08591851067283307,0.04269755627908145,0.010228117365381317,0.0,0.033885519713815926,0.0781379417608552,0.12226724150018065,0.1601940562567974,0.20112694041717516,0.24543738236578339,0.28976757123882435,0.3338707192389234,0.37161059069308466,0.4127533788791937,0.4570670246880639,0.5013972450296669,0.54572746537127,0.5899326237786027,0.6285474586130395,0.6687257365980981,0.7130268873519472,0.7573571076935501,0.8016873280351533,0.846017548376756,0.8903477687183596,0.9345977903165472,0.9662107350881153,0.9430858731623084,0.9066457834627448,0.864754996045505,0.8204333520625855,0.7761032113557114,0.7321952750578615,0.6952359511653077,0.6531265974280183,0.6088077604420346,0.5666545782341632,0.5296973616818941,0.48658096454994393,0.4501267081392635,0.4129236535456089,0.3775925956272057,0.3496203248623644,0.32867461443902113,0.31500392997525895,0.30502054625061814,0.2906334257963692,0.2741679239633661,0.2579506769210165,0.23913282824092086,0.21516779069877767,0.19499369963644209,0.18134007274172625,0.17829525294555992,0.1939249869561408,0.21750659106360404,0.24272096828176148,0.27297998921799826,0.2999007518820882,0.32340559018033965,0.3401044539952065,0.3515432181855165,0.36213866397436534,0.36455631518035814,0.35707996135065345,0.3546159330073797,0.34568500834951954,0.34096378254820103,0.3496572078021296,0.35701705110008164,0.34813577046881283,0.3519058206181154,0.35939841065320177,0.35760631374622065,0.3563495341493914,0.3570481370406777,0.3625091597352419,0.3591552826107718,0.36490017604266156,0.36664223052102307,0.37114066471352114,0.37037748050892993,0.37357171107463927,0.3611114353344229,0.3433704433047515,0.32752092367723806,0.33192358262207966,0.3451904418012417,0.3592495947072323,0.3683855580309563,0.34318541039792194,0.30217583340695264,0.2657415468666877,0.2233819923087801,0.18690976414373628,0.14370136993868998,0.10228684081486228,0.06479104930932311,0.022426865561533837,0.005951022385925375,0.03093794797406413,0.07471894873874207,0.11904909458334068,0.16337931492494429,0.20769174563297033,0.2487028974835226,0.28653160742378025,0.3306787369056212,0.3750089572472246,0.4193391775888273,0.4636683652994025,0.5069835165096563,0.543435956919835,0.5866394001010959,0.6309688199111076,0.6752990402527113,0.7196288887838544,0.7632733101970965,0.7969239138805422,0.8246158878068244,0.8658936785813196,0.8961945680181189,0.9352786715915571,0.9692084174252169,0.9999999999999998,0.991298875663327,0.9539330238729906,0.9098011725390827,0.8654724977189205,0.8224526953337425,0.7859738061069022,0.7425009894289534,0.698202219074507,0.6581554175569866,0.6194205866166493,0.5752131535018099,0.533692538069384,0.49629580712556454,0.45477896031346265,0.4191718449502999,0.38722002344703754,0.3559335950196254,0.3350158759439674,0.3184174673816724,0.3089768183933994,0.29712971588107084,0.2803638007570328,0.2660466809358071,0.24460844291549466,0.22109483957814335,0.19463385991920878,0.1758681661926449,0.17631492701634133,0.19306117981050708,0.21467731198041262,0.23752700386054304,0.2684197478806982,0.29721916967144035,0.3231677450905137,0.3450536662657955,0.36093612727664004,0.3650100946968544,0.3622133006992272,0.35773738191250426,0.3621103633281093,0.3553574698404547,0.3550304009645635,0.3570111431438112,0.3669814229598305,0.36775123288701606,0.3660583691092276,0.3739256367249839,0.3733866250813369,0.35989495802206206,0.3628498279286225,0.3590883588260161,0.3594798993065229,0.35241788229210735,0.3423928563047689,0.3241437122590143,0.3070648168206531,No
0.7472358738177947,0.7515176116096789,0.760649236549938,0.7708949329316968,0.7728189438794624,0.7728683198424287,0.7786125566381419,0.7855378108729514,0.7856223462977432,0.7856223462977432,0.7856223462977432,0.7856223462977432,0.7856223462977432,0.7856223462977432,0.7856223462977432,0.7856223462977432,0.7856223225528625,0.7849371810160444,0.7752725340336,0.7831319074769494,0.7875425230437487,0.7977090804475948,0.8003111600303001,0.8138194309588525,0.8235389932519361,0.8081018827889175,0.7825828236610672,0.7449673270565007,0.7037570701337785,0.6682077669728679,0.6239081055143436,0.5792748285180445,0.534641508978835,0.4900146578113529,0.44854532522675483,0.4131771649119016,0.36891075072222335,0.32470318751167215,0.2895870749013876,0.24780871136214055,0.2033272115027176,0.16718922282793724,0.14706154063324584,0.164011707302524,0.2074016861345458,0.24642516468000086,0.28400270953924167,0.328545022242664,0.3731783417818739,0.4178116613210836,0.462444840369751,0.5065406753101658,0.541283108733212,0.5835433495855098,0.6281756757972234,0.6728089953364333,0.7171814871138713,0.7531776921150464,0.7939177819080296,0.8385396902733644,0.8831405728026451,0.9229387884463598,0.9597266849845003,0.9935776948132868,0.9740658750019866,0.931925960893117,0.8976244158621574,0.8554522913938747,0.8265768694968674,0.8042260776907384,0.786749744223995,0.7746003559257526,0.7611648738011836,0.7498575278392339,0.7384389957189426,0.7236256406892212,0.7055553953798575,0.6832902350235093,0.6609675812759013,0.6364770755207665,0.6069055075882885,0.5812477796379554,0.5589022355898792,0.5365989828243778,0.5186655651412808,0.5167707435393718,0.5167687054238899,0.518103074178575,0.5342953836890885,0.5576063010351722,0.5867084890047078,0.6165370630031146,0.6482365638211893,0.6835507548344555,0.7069801912685938,0.734678813039032,0.7556984860180391,0.75778376781265,0.7467877536953627,0.7358362956871616,0.7391675956847326,0.7470768518339346,0.7472145966380184,0.7472145966380184,0.7472720812667346,0.7535553576229426,0.7599585300771146,0.7600171798579269,0.7600171798579269,0.7601861244460941,0.7680322857514048,0.7728040730603107,0.7728197630778351,0.7728197630778351,0.7728190784337847,0.7712420743753594,0.7610122785826643,0.7600173975193301,0.7600171798579269,0.7600171798579269,0.7600171798579269,0.7600171798579269,0.760017323316579,0.760572400087087,0.7704763211908097,0.772589643573997,0.7635419659776896,0.7600230812717148,0.7600171798579269,0.7600845843356681,0.7670017105090554,0.7778485756347162,0.7923317682902817,0.7935746546579565,0.7595595914629063,0.7249383898042703,0.6809422438368957,0.6363090816075185,0.5916757620683086,0.5470424425290994,0.5024161815469483,0.46102793911670426,0.4255907720033527,0.3813116921874473,0.3371355484577099,0.30384547794088723,0.28048912146394933,0.24116268092186877,0.19655289955584432,0.1519202844480858,0.10891499939220406,0.07448975066642549,0.03117767118832071,0.0,0.004375024256070281,0.03324503698410597,0.07256146726571999,0.11717688359241385,0.16181020313162375,0.2064433811909212,0.2505333520740973,0.2852714405012904,0.3275418874385694,0.37217421760776337,0.4168075371469733,0.46144085668618273,0.5060072677401035,0.5437883247203601,0.5825695581294041,0.6271715516231124,0.6718048711623223,0.7164380907751611,0.760645926443541,0.7956949303153389,0.8375393048638256,0.8821667060007734,0.9250915707667977,0.9594827013720415,1.0000000000000002,0.9887803329446381,0.9447257643020837,0.9000927633400193,0.8563669915562031,0.82242800549221,0.7898062033189641,0.7603791690006252,0.7401464946967142,0.7217116829839625,0.7034610088545084,0.6944802014636375,0.6779889978818991,0.6659150427272487,0.6455012305724235,0.6280191032875946,0.6071496084098065,0.5845971104530874,0.5564246136091653,0.5267612582102936,0.4988032597613583,0.47150709775342126,0.44764966943452467,0.425332837813704,0.4054939254930059,0.4016201438549565,0.4096034747394526,0.4311777711280995,0.4543859667714827,0.48340283520459604,0.5131944034102971,0.543019933787277,0.5726203445915738,0.595466394021152,0.6199041457655683,0.6561964946166514,0.6866344462612275,0.7058986851845093,0.7269587926601144,0.7347260982236368,0.7423133019722934,0.7352713851516628,0.7326813699739871,0.7225165532238236,0.7216096330190551,0.7216584829552468,0.7274326663932091,0.7343762328681163,0.7397920134023976,0.7375303255003927,0.7400274101345536,0.74716527750154,0.7527181851686657,0.759918982565478,0.7600171798579269,0.7600171798579269,0.7600989938504343,0.7670803779543587,0.765153602755041,0.760058342249043,0.761950686039895,0.7721085090889523,0.7728197116305944,0.7728197630778351,0.7728197630778351,0.7728193514999087,0.771771027930882,0.7616397739368062,0.7683720856402141,0.7635064362735078,0.7501220335527414,0.7570367462096039,0.753109389150376,0.7472897136952479,0.7520792919839001,0.7704960622448682,0.783819626273796,No
0.21676217121496766,0.23059593624589358,0.24733831793680783,0.2741317195279074,0.31367000331011563,0.3582500044072743,0.40891880191699426,0.4600933121316346,0.5133986192721969,0.5652123090470178,0.6224497100837427,0.6721335387598917,0.7283904917288748,0.7865993180768969,0.8448009605316751,0.9001044118856341,0.9492608297977274,0.9762108011980606,0.945794738121412,0.8892803387870012,0.8317695328025396,0.7820580993226403,0.7259425590608501,0.6677342542105016,0.6095209648197606,0.5513076754290192,0.49309438603827815,0.43515130088133325,0.38424502691128537,0.32973616331275224,0.27154693205081926,0.21333364266007804,0.1551338538796323,0.101481455029375,0.10187585521321907,0.1565659909372885,0.2096448540338529,0.2544841396468951,0.2857912042717914,0.2992542244266321,0.2967909671463236,0.2788277527010148,0.2658991270621971,0.2403368790864997,0.22889190211814037,0.2517230288258294,0.2572748848308357,0.2522013554342004,0.24893892722891486,0.2575717194727125,0.2697303668287392,0.2770127432819445,0.26450934282476024,0.2518506173567252,0.2299944519985253,0.20280756467527272,0.16982858203890827,0.13615890955799892,0.09607712927916157,0.06005353048948803,0.02040352186967853,0.0,0.01898101659373519,0.053136086954919115,0.08518339827613164,0.12056477193737658,0.14351978583775882,0.16172650356301488,0.17680904473304349,0.17915490219069152,0.20047252193262244,0.24283895380354492,0.2885338971431479,0.3388101219369437,0.3914787033352807,0.4414701194264039,0.4954412074126624,0.5449993520563556,0.6021621822389356,0.6603744628633101,0.7185877522540507,0.7767991279942212,0.833533765388639,0.8802895333557046,0.8969183527364504,0.8569870390012493,0.8037962129906406,0.751972775298196,0.6938925487577496,0.6356792593670086,0.5774660947022128,0.5197506299522583,0.4695953931622092,0.41412279444914657,0.35591851598880875,0.29770522659806775,0.2394919372073263,0.18128022323052018,0.12431801977457124,0.0748543282559595,0.027416295578814864,0.05328725430935721,0.10437531569107561,0.15646208913306858,0.19973928208758185,0.23189566606305356,0.24243846337204622,0.23443521330245343,0.2207755853061102,0.21992194634306106,0.20298472447856053,0.18682306258583492,0.21246716180916114,0.23083850499342873,0.22223440603734512,0.21582046000037747,0.21928287762481702,0.21854601906550264,0.2381642868247955,0.2458964964734749,0.24222017423797593,0.24398977037117398,0.23579390147934465,0.21676685232662218,0.18446856681508694,0.1516744690637133,0.11978020279211177,0.08657628557345687,0.05153768998073205,0.021303125311879167,0.023235303853478717,0.05326601855706614,0.08700564940765365,0.1302660969406504,0.1590421745252928,0.18395616316306884,0.20385281325450633,0.22424311421879106,0.23557643811810247,0.25695381446309273,0.2881342060892069,0.33108049302958364,0.38231118778880613,0.439641498217225,0.48946980549484276,0.5451237514074425,0.595714489658173,0.6505924185310328,0.7082696437511504,0.7583021055743207,0.8139166128516899,0.870294473355463,0.9198991329315367,0.9727343423589836,0.9987218061531971,0.9656716325471619,0.9165430129941246,0.8602816389331316,0.802072614342981,0.7438593249522387,0.6857074932086549,0.6325750954818361,0.5804100812558961,0.5223118709647812,0.4640985815740388,0.4058852921832983,0.34772812816994203,0.2943815107731096,0.2424252582365536,0.18433783819583893,0.12613771001388163,0.07512931612172458,0.09430503375558974,0.1517065113670717,0.2099125099478385,0.26530391766925576,0.30503541378388155,0.33276152933878245,0.346714630374658,0.3414408665831179,0.31887492718977195,0.32183261967804677,0.3033422437243187,0.28999704297192364,0.3087371471943392,0.3221918651652922,0.31310545438043036,0.3020624599077333,0.2855289851732783,0.28885024239340495,0.2982122675498162,0.296034084565725,0.28894345424171,0.2985176398288003,0.28860880544274137,0.2727704538725104,0.24472378624058577,0.20629937735010961,0.16995926509026527,0.1360999924144506,0.10024688371101953,0.06681855723539765,0.048394356337820854,0.07084340968576042,0.10862013925283787,0.14381724944632257,0.17725215054618748,0.202345421718225,0.23074915036739574,0.2523907879581133,0.2546400061277232,0.27048418531730767,0.29474727305713166,0.32814200177932307,0.3750152952547563,0.4236156978704282,0.47340379634186625,0.5279836467183074,0.5784122584420681,0.6352973864046871,0.6848649295986047,0.7413275325041357,0.7969029214117531,0.8469759278536284,0.9045849626611904,0.9573145847990336,0.9999999999999998,0.9957466920171523,0.944135477005229,0.8867859627566423,0.8371269311441802,0.7808315291967081,0.7226223366672693,0.6644090472765274,0.6061957578857877,0.5482510103556086,0.4973392543623507,0.44283742532669623,0.3846483038983275,0.3264350145075876,0.26842415575577494,0.21759911693530398,0.19712115221493298,0.23811255909835172,0.28475624762873575,0.31118799257179086,0.3136846719276227,0.3039649113559406,0.28741287763612355,0.29656913808541674,0.2741266244471463,0.25067884031529575,0.2639304603597856,0.2680256282570457,0.2554421326309908,No
0.13097814521682627,0.1267922089367567,0.1515240218345577,0.18412571823333634,0.21321607869484227,0.22443716225860444,0.24925725852816027,0.2769312955255807,0.30713225817432654,0.33530606130918805,0.3419777955624197,0.34311801120129437,0.35314537775845434,0.3624508921647054,0.3913856792011472,0.41858645194356314,0.4379021762358497,0.44891440384045067,0.442364073062981,0.4377943298481697,0.4376882997348328,0.43862103085769344,0.44406993534912,0.44488709283059036,0.4432884875999701,0.44320280756943475,0.4364573539306822,0.42701551520423897,0.43013569194382706,0.44172719514127134,0.45049642635951836,0.436326479919392,0.39876076719316966,0.35892499503020825,0.3141540685254347,0.26882975155572697,0.22796524039622335,0.1847068125141066,0.13920841600266964,0.0963931367240437,0.05797275187895223,0.05118240757670589,0.0848327896667389,0.12990102030826978,0.17175667403307127,0.21392490576155143,0.25941291814842016,0.3049608986465939,0.35049045993119554,0.3937686514493486,0.4346163080008727,0.47993875587773993,0.5254866800026585,0.5710346605008325,0.6165826409990063,0.6621289347215664,0.7067563356392605,0.7468535794250417,0.7915618118277239,0.8371084223550713,0.8826564028532451,0.928204350735464,0.9732299476975426,0.9913847105586617,0.9558243714930379,0.9147415074954299,0.8693842975856743,0.8263614067154343,0.7853044327179586,0.7399527528725998,0.696874495778099,0.6558618332259194,0.610500468275091,0.5654106951713143,0.5252140288092739,0.4853368340415041,0.44808725961627793,0.41682644290725435,0.3929052074747399,0.37256401865290445,0.35417323832224157,0.3317158030139302,0.3069418854806698,0.27875960689952883,0.24545358617599233,0.21072500716029996,0.17834937781414772,0.14792913558157794,0.12099578619262874,0.12004068526589551,0.1470617791247354,0.1818241168445851,0.2182070401237528,0.2547388225591496,0.2921264000803727,0.3275377154903383,0.362190613760214,0.39212131479089085,0.41645294768563135,0.4268983096487222,0.42532634752678455,0.4186020116179534,0.41058232612274836,0.4110772411537491,0.4174554073837231,0.4228465842678182,0.4221789377338345,0.41673731175788387,0.4155090384638733,0.40602942492061067,0.39454467998960285,0.39123010145256965,0.40446778324168564,0.4146674919855302,0.41561284836160417,0.383297310916773,0.3436656541933678,0.3026903106367318,0.26101263730104485,0.21668294798948984,0.17656595392097896,0.13168024466934902,0.08670876999271704,0.046570666451913434,0.006518041055394441,0.0,0.036600050698401554,0.0809375915470909,0.12106048642638978,0.16591308468499477,0.2114602306053115,0.2570082111034857,0.3024821732932077,0.34436607938583075,0.3818731092528227,0.41806113566104774,0.46310602536751544,0.5086537306881165,0.5542017111862898,0.5996551751265449,0.6413975692556386,0.6836827462003185,0.7291795120441811,0.7747274925423551,0.8202754730405286,0.8658234535387026,0.9113402526463272,0.9486743082780642,0.9286285088444226,0.8835050984241193,0.8380535833373592,0.7963713161370733,0.7540239372637532,0.709016820424883,0.6687648591833804,0.6246622450107895,0.5815709807842819,0.5406136964598922,0.49834070603822567,0.4593919595661209,0.42431808559890594,0.39374112339278255,0.37192470617388484,0.35234952510630424,0.33279001873608327,0.31232435699204175,0.28635035359733907,0.25336692789139703,0.2214159697916399,0.18809546784610853,0.15500276735226992,0.12459295211516674,0.09668328239449187,0.08983568212974591,0.11378270353217712,0.1491681848288855,0.18547456501271709,0.22002951174522012,0.2595231250320942,0.29636582148264123,0.3334434600791303,0.36906143589317564,0.39473782913377087,0.41387260350140753,0.41920333292864886,0.4116268596798405,0.40772678576832,0.4039629137828089,0.4104334251548576,0.4189784171059432,0.4231603193637079,0.42325824489261854,0.4229812283529013,0.4158821509668553,0.4049570444685242,0.40963823678184674,0.42238617491248265,0.4283864852473618,0.41486094717813504,0.37367423102803476,0.33236936875635426,0.29132338435790905,0.25096783620337226,0.20580225587503043,0.16074361417978555,0.1204916529382819,0.07639086376552007,0.03461530060025775,0.01991936350590029,0.047961808790989435,0.08685817659307604,0.12184917118741845,0.1661126012706965,0.20794778328380992,0.25013550588165634,0.2956249771780235,0.34117295767619704,0.3867209381743719,0.43226846165858857,0.47728551438654576,0.517524752255208,0.5617027445590739,0.6072467195304365,0.6527947000286098,0.6983426805267847,0.743890661024958,0.7894386415231316,0.834965685430265,0.8780857678601295,0.9190682612754895,0.9643722681776274,1.0,0.9766831893392733,0.9315571591309861,0.8899121407947952,0.8475258974969377,0.8020279901701424,0.7564800096719688,0.7109320823257217,0.6656064139699436,0.6247427976390896,0.5822210921025746,0.5421551100938746,0.5003897742015857,0.46128961091279064,0.4252025329128015,0.39768426486109143,0.3748969162511413,0.35693405413541934,0.33967159254690604,0.3172146067238588,0.2916256894765996,0.2587705472163566,0.2272845500274996,0.19861410182017092,No
0.19237901441800043,0.16202105666299182,0.12722621034915482,0.09059406601874676,0.05479695730037659,0.02656389701585904,0.019862527567107602,0.04179886074687067,0.0712682186540432,0.10546778610245622,0.13659369955493017,0.16165945274039628,0.18925894882289263,0.21102224592690888,0.23564033505056403,0.25691314057411563,0.27537641426166237,0.29210780436053474,0.31664910171864524,0.3545382621479729,0.39394897154425434,0.4387258677102488,0.4802347466140573,0.527544365847372,0.56918798587962,0.6157544234899566,0.664167322080746,0.7101456943489266,0.7521976770210239,0.8002682833006767,0.8485315136297316,0.891381549098583,0.9362912061847259,0.9786919044577478,1.0,0.974760231548057,0.9324809287048748,0.8842522032633706,0.8358234546005847,0.7873947059377988,0.7389663976623804,0.6911634427815769,0.649666333674116,0.6028709439296129,0.5544462946484487,0.5060175459856628,0.4575887973228767,0.40916004866009104,0.3607312999973049,0.31230255133451923,0.2638738026717333,0.2154493363179779,0.17072924198693618,0.17984674603867368,0.2270062773763375,0.27074324495571944,0.3137754155950072,0.35098811658958295,0.36919605169976477,0.3711471419378354,0.37047754821206413,0.3634898932260524,0.3571279087688157,0.3360443271508726,0.3356170494307529,0.34285535148835167,0.3412262118372089,0.33767980690025334,0.32955953097417967,0.31871514283222546,0.31602476243904043,0.3195226809274878,0.3250053628684271,0.32314814967934025,0.3159152664824536,0.3068054481621909,0.2850344264912399,0.2576382245814248,0.22576644202303298,0.18815970906901636,0.15162104892132455,0.11528812309508152,0.07934686137759228,0.04647876831955999,0.016051129574220724,0.0,0.02105385226252099,0.050058969606950665,0.07957551266198659,0.10944539624177696,0.13715794647276436,0.16450170132855413,0.1915808912962662,0.2138316848890931,0.23476408734530585,0.2544647786383225,0.27387159393871974,0.2961178090231462,0.32497275898416644,0.3610785429811325,0.40350321382312493,0.4447511307014771,0.49170318237833643,0.5342873767092988,0.579602897934486,0.6280085946445919,0.6758191693312401,0.7173800632623786,0.7641040593042416,0.8125258384659126,0.8595227857413863,0.9009636946732358,0.9484789779931724,0.986189306031839,0.9793350310582007,0.9506568922840275,0.9108490444027479,0.8627963033215207,0.8143676798765656,0.7659389312137797,0.7175101825509937,0.6691170402689621,0.6242089948626679,0.5812711464463935,0.5329905199244291,0.48456177126164346,0.43613302259885756,0.3877042739360719,0.33927552527328597,0.2908467766105003,0.24247362848543408,0.19977578974846488,0.20052380975874096,0.2460059427663286,0.2896286865781419,0.3314674833615372,0.3634262103597554,0.38015352962860693,0.38870739899780715,0.3818167643681585,0.3640135407465803,0.35910513139848366,0.35213117249070436,0.3269930513154162,0.3235815867251315,0.32516732581888297,0.32354900704122413,0.3101672887901725,0.3001673259434432,0.297957343155417,0.30460504988739356,0.31313692340449584,0.32353388660395077,0.3299675545883938,0.3263978969707366,0.3056624344271279,0.276494002169285,0.24425695604699182,0.21176014183708602,0.17700964638362282,0.1424998530594539,0.10822576510583604,0.07583253969888548,0.04572609329615629,0.039192418386530425,0.06473201578073762,0.09112775450342658,0.12260218853949922,0.15261683488854105,0.18021049984746407,0.2044843139821566,0.22457832578836534,0.24263444166358705,0.2579120609455028,0.27258279825091414,0.29359007092648226,0.32335564454646004,0.3623421265258735,0.4032877525688492,0.4508464652933395,0.49927430250097093,0.547629112301957,0.5915795256931311,0.6354397079410044,0.683793965127536,0.732142452749124,0.775986935280776,0.8199495343863461,0.8681136546199499,0.9107641324414057,0.9515102934914936,0.9632531895696355,0.9270304511458418,0.8788881849746613,0.835847337588361,0.7910405573990373,0.7426440900848439,0.694215341422058,0.6457865927592723,0.5973578440964868,0.5489290954337007,0.5005029354215937,0.45338234702328317,0.41202928734861133,0.36440865567227476,0.3159806841443513,0.2675519354815654,0.21912555524750443,0.1734056957198915,0.17184048685815312,0.21426608942588765,0.26008640463568344,0.3005439140125037,0.3350363826697904,0.3434950908445362,0.3431452484522233,0.33307330980449845,0.32524689083195657,0.31870685913599295,0.3016766188248732,0.3060939757403107,0.31332456776827833,0.3067319456932891,0.29880542671651655,0.29305450525654586,0.30173540644830843,0.3081240417375253,0.3181038704621397,0.32472100839349927,0.31619870268508343,0.29990898585086634,0.2749754944076388,0.24128678591908703,0.20901916577817414,0.18955578992361288,0.1960763943699948,0.19527896957612834,0.18275107607302266,0.18201594635993334,0.17114219972376454,0.1393386145319524,0.13577218063680863,0.14064809844044834,0.11435587639644651,0.0807486468274412,0.052365669009655225,0.051834985482128504,0.03337297195279465,0.0386077337283961,0.06672546455926631,0.09733308285094999,0.13122312491074362,0.16555770037179296,0.18170485423326488,0.19050562177548036,No
0.15743907429895287,0.17449742509709987,0.2302381480859812,0.28333367093141604,0.34032377844941397,0.38892780775004265,0.41366848813978496,0.4545719835784401,0.4283072485177768,0.42180051229490667,0.4763072186778876,0.5353438340531458,0.5962251556964389,0.6366212234936017,0.6679193006411501,0.6744365150123333,0.6883164386123828,0.6815170043300602,0.681150659803881,0.6559328701556955,0.6420797508269782,0.6543413045810498,0.6549906494786475,0.654990694285476,0.6547571672106658,0.6427060602530141,0.6251233886973693,0.63673869601317,0.6534516954422802,0.6914073732600778,0.7244345427800982,0.7435109513896077,0.7573929969864883,0.7336251428742253,0.6790588400765558,0.6152929854244045,0.5503504975702493,0.47636604229898216,0.3979274452146675,0.32947830267894895,0.25812907219072967,0.17954096492806082,0.10088440082826011,0.025806187641073564,0.0,0.0407639553019461,0.10728061898190289,0.18009425780241495,0.24694200945859412,0.32520502616836167,0.40386501515629547,0.4824927296123662,0.5552403148709097,0.6223688463569803,0.7007070144159968,0.7793670034039311,0.8580262779780643,0.9353179664061253,0.9749341689616373,0.9190057168229027,0.8546921035463173,0.7894627227394655,0.7304046915742854,0.6738508451863496,0.6318028567289993,0.6121359410004121,0.5732119749749964,0.5343058257482154,0.49159999642148744,0.43596612501921195,0.38347956577007736,0.32836422261972986,0.2726966310755472,0.22266539630795723,0.1730460109359191,0.11570182609374813,0.06507515990414792,0.02998032220528346,0.01767007817201094,0.05061420731827804,0.09920944353346162,0.15833560585037398,0.22141323018283465,0.2883995606729721,0.351612926073547,0.41656945020311387,0.48246639563794114,0.538186854376757,0.5968507544740991,0.6425373744591525,0.6738279055900338,0.6972220962537552,0.6993338200947541,0.7133454424837153,0.7118378212856662,0.6916137234218835,0.6844894565999664,0.67314146199561,0.6732370775316068,0.685272724401472,0.6918365155801403,0.7055718056258531,0.7002072148624028,0.6912226409038236,0.7036533219831074,0.7230067874352999,0.7555114135725041,0.7749401898286581,0.795977418349965,0.7785689114570391,0.7150848031912598,0.6506149477119707,0.5874945315424647,0.5142931366102688,0.4473969601515191,0.37438631805499334,0.2957546921996146,0.21963119254143448,0.15483577781119795,0.07838850979711065,0.024066940459070985,0.03116034017313085,0.08803992505653246,0.1532208068929073,0.22681319287092272,0.3054154115481844,0.37798301054916106,0.4452575475467744,0.5236347943074007,0.6022947832953345,0.6809547722832678,0.75961286047677,0.8363952880741459,0.9010804156490386,0.9768403712703422,1.0,0.9294941672530492,0.8543729610123791,0.7897861920510421,0.7285117204142271,0.6839373264380542,0.6472167761635643,0.625929032808493,0.6043776576117543,0.5619221180228693,0.5156931581334652,0.46750610469246556,0.4103475090443194,0.36085609402149554,0.3138549827626358,0.25796284034341843,0.20171755931291457,0.1590503825420604,0.12971813856306902,0.12452039800393422,0.16211890158130338,0.21718833611421395,0.27623528821841203,0.33768346457320275,0.39566156258768004,0.4532486729583942,0.5121822034624057,0.5701813536673672,0.6223600572158383,0.6557635139486817,0.6732200505320121,0.6866077392240757,0.6695105905335401,0.6518673549419018,0.638147925048441,0.641375692520818,0.6568813796365558,0.6623203766496952,0.6700926239507718,0.6890871507198786,0.6954341144696783,0.68669923362937,0.6672665187117377,0.6563269605533977,0.6744619347838303,0.7180926812816049,0.7308499171111924,0.7341709127864147,0.7429406868188404,0.7110359198913394,0.6461412632816868,0.5791821942138942,0.5129985222798839,0.44667462063453334,0.373482792092513,0.2948477138639456,0.2188183806388877,0.15398595863066245,0.07691599372546731,0.017037796522345605,0.011441373933839039,0.05920418279391093,0.12590507806540785,0.19254629156309644,0.2707641771371687,0.34905450158380535,0.41624474190230654,0.4889795978793261,0.5676062167230165,0.6462662057109503,0.7249261946988836,0.8035861836868188,0.8821128842585346,0.9377030199774139,0.8972751665111112,0.8243812884610091,0.7611014281229656,0.7035286892610002,0.6636509508880697,0.6378466051318479,0.6003684853579299,0.5709469352805616,0.5349756571361635,0.4901620920877976,0.43824214139821027,0.3841908194005246,0.3322058517969593,0.28208910576715507,0.21593835387965798,0.15724870623158305,0.10547411505497184,0.07167691519529562,0.05567471370050159,0.07986285425199391,0.1319425345871057,0.18679862319640783,0.24562634209710454,0.30465011590911617,0.36373638015946286,0.4250684438365888,0.48589076317191315,0.5366412970556977,0.5880312898099311,0.6381948567516589,0.6713398975561353,0.6959259155494655,0.6869368166423868,0.6732051697624803,0.6727887129602896,0.6727761493496898,0.668243610414319,0.6594453040379729,0.6729808084576772,0.6935468827074738,0.697196856904934,0.6820634763319289,0.6729101069063979,0.6758732007841548,0.7091355387364682,0.7413333705961986,No
0.4887487588531838,0.4883917641552449,0.48167960674294075,0.4847757662741452,0.48274840666869623,0.48861266844912277,0.4887487588531838,0.4887447979816235,0.48683327117030784,0.4822617378760763,0.4864934978121218,0.4779036465652906,0.46916398826562244,0.4667045125786424,0.4602863524858405,0.46259078393246966,0.4739714129585333,0.4929067810790366,0.4967849745885653,0.5121602741549651,0.5211050472473504,0.524110081849535,0.5357151067852819,0.5411139082552086,0.5207871261394414,0.48286598891899857,0.440027357124112,0.3908829114201571,0.34870747654983303,0.3022741370429256,0.25283129432503326,0.2099061127530395,0.16432857913569543,0.11473315897961522,0.06534603468603706,0.03292884235838911,0.05123395328799951,0.09183941962493325,0.1410054742878073,0.19063095875883684,0.24023132151041238,0.2859491972703918,0.32873985422251883,0.37818609859787466,0.4278115830689042,0.477437067539934,0.5270625520109635,0.5766085462120849,0.620702155626579,0.6650530861737354,0.7146176918500016,0.7642431763210309,0.8138686607920607,0.86349414526309,0.9131196297341193,0.9627031228925917,0.9999999999999998,0.9706306121832402,0.9211478213019964,0.8725041492129864,0.8314123437620504,0.7832184960220856,0.7352698178499135,0.6941120314995424,0.648909882117088,0.6075824858749677,0.568631587912042,0.5318541700621431,0.5035420408540714,0.4829323539310635,0.4679454021066687,0.4637218803374501,0.45109002476636184,0.4319224638207553,0.4136318747387382,0.3970180784112698,0.36589339279481714,0.3377952287814654,0.3051023939203463,0.27401951761313526,0.2425594856895239,0.2094807805218084,0.17640168500063869,0.14337206810834147,0.1190765858149403,0.12208899444292642,0.1451288358120204,0.18081741071891866,0.2156589969953897,0.25283812736580136,0.2922515647317945,0.33534343873105565,0.37290684312560973,0.4120708859434703,0.443581901525977,0.4771211652066536,0.5000312297191154,0.5101807013436919,0.5117303706042409,0.5151951289640555,0.5086498464556282,0.4974832631890356,0.4966567785596554,0.5061577660208951,0.5158977290432407,0.5209071653644657,0.5104741455020696,0.5069139486772762,0.510611520597648,0.5104523547294055,0.5036915542538971,0.5067229101181925,0.5058233661272946,0.504994612659637,0.4951734337264586,0.48927138080175014,0.4991396058542392,0.5130610910271369,0.5276086849546628,0.5286558916493616,0.5312847595772638,0.540895630414832,0.5347962192485125,0.5356891553130616,0.5042695405285715,0.46352732431655186,0.4153702434264064,0.3741757951641491,0.3263688470069259,0.2772385349029809,0.23566087452129914,0.18843351631777727,0.13882953010553534,0.09242374057877645,0.05129750946456535,0.023133629294823654,0.04617388610407969,0.09502905099088865,0.14446380990695062,0.1873891532614036,0.23298702842472152,0.28258406233750955,0.33220954680853865,0.3818350248549476,0.4312160548859183,0.4737608440482184,0.5197856196400696,0.5693901711186062,0.6190156555896351,0.6686411400606656,0.7182666245316949,0.7678921090027238,0.8175175934737544,0.8667701475349177,0.8892591595017232,0.8501350898995603,0.8083747160530026,0.7591605189003403,0.7134053243549994,0.6706503985646648,0.6252719846360988,0.585469568436904,0.5480397490089046,0.5148541143957956,0.49093765194176475,0.47111239720381337,0.45649112525141966,0.447833321500966,0.43729912357952294,0.4134994546464563,0.39435096735963815,0.37742955122357347,0.35109631712528033,0.3208536080889459,0.28554175381351365,0.2522953409737849,0.2192161082436379,0.18675462649860464,0.15656510417236524,0.12534967456866752,0.1039173284163839,0.10210656954577746,0.12568519169879222,0.1582266428738237,0.19533944215872534,0.23365369256731539,0.2725063924897515,0.30978024355987666,0.347045123496897,0.38430030424137596,0.4233120260383125,0.45223808793550613,0.47669571645143494,0.4947831910338838,0.49933524665508755,0.49121585442289506,0.47992868588868154,0.47780700416830557,0.47780196080810367,0.4778863936735074,0.48377826385510625,0.4939171074617501,0.48945818729702184,0.4913741193791361,0.4995146939573145,0.5070207130716726,0.5106335574120175,0.5135579637145149,0.5206658274882314,0.5102023158300422,0.49074664558339043,0.4792728998403901,0.48917923444842715,0.5071998173674319,0.5185548371307878,0.5346357335273497,0.5432518266814903,0.5406940268369589,0.5374768704435009,0.535284443836753,0.5143554331362765,0.4728671262873443,0.42433795767827287,0.3832258662376342,0.3351267232901809,0.2855088706435225,0.23833215237708028,0.19673232313471,0.1520621737040706,0.11901063248742938,0.07924298415281461,0.031786592510814726,0.0,0.02154032630397751,0.06997205347856084,0.11251650856057638,0.15854128415242696,0.20814583563096578,0.2577713201019949,0.3073968045730242,0.3570222890440533,0.4066078240091411,0.4519046733412153,0.495098904152941,0.54457742888309,0.594202913354122,0.6438283978251509,0.6934538822961802,0.74307936676721,0.7927048512382384,0.8421695657369985,0.8733341697513344,0.839307509621521,0.7897916165164569,0.7446198407429792,No
0.5154334095685376,0.5101694644662529,0.5126631849142094,0.5015236139190817,0.4825682601137786,0.4761663562366478,0.47743142872216526,0.48423849151939935,0.4791489778736575,0.4736401247655613,0.47904196169930113,0.4784894317249342,0.4697406770672088,0.45785557232081264,0.4525195703279856,0.45248223166710866,0.4567474960827145,0.46159467406776256,0.46765757144279196,0.47373731175502476,0.4778500398541392,0.474247972046705,0.4755314506342361,0.45408909933346986,0.4270877030569409,0.3998308623993403,0.3698659343112569,0.3392228234851915,0.3047780956450754,0.2710143827993958,0.23914260027913326,0.20673069780088071,0.17149104578370777,0.13599041311404614,0.10271284318185736,0.06888977241154892,0.03641323453272416,0.007498686629275442,0.00866731838964574,0.03581680139595855,0.0648421770339922,0.08836266444184715,0.11144135086222717,0.1416731026807212,0.17211241303452618,0.20254058065221958,0.23272899985440798,0.26145903494882683,0.2936508185676796,0.32170333338130375,0.34734118399098635,0.37122468658251173,0.38986735952151186,0.40843201436169685,0.4218533935021076,0.43438437852894296,0.4439625027055547,0.4562529355963796,0.47612789180096327,0.5031150226459993,0.5369516312742175,0.5738132118098311,0.6090675627545086,0.6460079782016368,0.6848267117063607,0.7185745583683742,0.7586161120753405,0.7987741285186856,0.8326851922953606,0.8712616884365509,0.9117712213664413,0.9481335908007396,0.9821578663672181,1.0000000000000002,0.9816664522326108,0.9428449880001655,0.9061451875354662,0.8706258499911115,0.8301665991911018,0.7896094778756002,0.7490523565600993,0.7084952352445981,0.6679381139290963,0.6273876445437758,0.5888111484025855,0.5549000846259105,0.5147419487250842,0.474246198115998,0.44543939741549043,0.4718160751008338,0.5014399325416865,0.5134654048151517,0.5097660601239971,0.514988618255489,0.5154053068233198,0.5069070321449765,0.5071990095261538,0.5096816542012559,0.4931040417353607,0.48094315300406487,0.48870056595791445,0.4964380876765886,0.4904945373601457,0.48844943275976815,0.4832164195924986,0.47956082298676894,0.4793124585962649,0.47320545262109803,0.4651919754475724,0.45730293297074454,0.45698013617254074,0.4614608070184125,0.465897654168425,0.4704387458008652,0.47050108841590377,0.47040544404084783,0.46469512666703583,0.4484412862434777,0.42314684758738164,0.39366162937633575,0.36477786470457807,0.3343257564013298,0.30234719515549413,0.2694006817738004,0.2399813495677494,0.2185234240103222,0.18548027029580405,0.1520652405454661,0.11692353785140508,0.08430487181325286,0.04889463746117384,0.012618639492907535,0.0,0.023472853413220918,0.05296205252930686,0.08137030902725484,0.11175182569911812,0.1421849692239192,0.17081115054608276,0.20074385340022283,0.23143939392180557,0.2657096803931327,0.2943810493342942,0.32176153394711027,0.34478760992960544,0.3670540433157443,0.38407488109566734,0.40032544553921023,0.416350405538255,0.42542984324899336,0.43637382094574684,0.44939451022363275,0.47108132633176836,0.5016859474747757,0.5347822955377679,0.5741493186371125,0.607949958290039,0.646686792344648,0.6854083927240502,0.7192366214289885,0.759323231664889,0.7986811744616313,0.8321885317182167,0.8719641723352207,0.9123049913273324,0.9467999439028969,0.9826380194709066,1.0000000000000002,0.9810452639593732,0.9420947418134007,0.9015400484930542,0.8609829271775524,0.8204258058620508,0.7798686845465503,0.739311563231049,0.6987544419155476,0.6581973206000458,0.6176477367302973,0.5791650244663309,0.5451911955621034,0.5050011969464616,0.4644440860185668,0.4240072452528598,0.40085454760979755,0.42704219819620337,0.46251932017397035,0.48590391952953094,0.488887012290651,0.4967624735493976,0.5059726025103031,0.5047204800968013,0.5017419354485126,0.5001000324415577,0.4857477208366703,0.4714706477164621,0.47430425329286185,0.4807750255437995,0.4874064270796967,0.4806081910784683,0.4717374696935155,0.46868090295017706,0.461477488517392,0.4543326482040475,0.45132354724686263,0.449300867388714,0.4591931354314962,0.4556491338658304,0.46149704828957705,0.46927054896692155,0.4704991743793787,0.4698103455530489,0.46161867537199575,0.4461374919023544,0.42177167706604135,0.39554675176655874,0.36772280591772954,0.336305820557526,0.3039967089024207,0.2714189312112325,0.23707442638401255,0.20451505452460772,0.17199260630861013,0.13867787991393143,0.10548974637083597,0.0713492413392145,0.03907507787802955,0.015069807661673318,0.010601022347320521,0.036075417237566354,0.06563837073655865,0.09493565601668918,0.12684834737539874,0.15816217434975988,0.19066678034046025,0.21684151787342287,0.24495829102922495,0.26945506970275757,0.284682272836406,0.26882167766484755,0.24152645186364707,0.2180035950781809,0.23874705911468808,0.2659861632861171,0.29626425356074404,0.31827676704866636,0.31979909535711704,0.32584986146667516,0.33488214774349423,0.3359676618322933,0.3511175447181478,0.3750930700415145,0.38804640249857525,0.4014756567734432,0.4149972934503905,0.4278093165687358,No
0.39685465849571944,0.3913129129237506,0.3946961461764439,0.404126851077096,0.4132687891805923,0.4084451983818477,0.40055148788646455,0.3821466263948824,0.3555997273467376,0.32570567808598005,0.2925107479395409,0.25664250266537614,0.22120805531980625,0.18387340042693567,0.14645449232052765,0.110106404015064,0.07094957785009881,0.03344485992743018,0.013982236577174567,0.0362565741394244,0.06842302721276028,0.10248952750105589,0.13702220260830733,0.1699502317012732,0.20457215906928183,0.23540142526381713,0.26366026152757616,0.286109209167423,0.3072086534189603,0.32846645367523275,0.3513693992742296,0.37917467228637214,0.41504283322374047,0.45278393532653316,0.49506110680683235,0.5344070981472296,0.5749186376888834,0.6177863215225002,0.6558012075800018,0.6980882345356371,0.7410440820046703,0.7790701328186928,0.8212920925436568,0.8647619823154785,0.905514826976712,0.9443981427115492,0.9752730780791595,0.9594914828351585,0.9176716109601543,0.8771623920237116,0.8378138467276187,0.7944346312642562,0.7509360245069657,0.7074374177496748,0.6639388109923844,0.6204486948449265,0.57869566643966,0.5403668586434319,0.4972368913287092,0.45373844303308963,0.4102414678989349,0.36762654360870994,0.32966748133381174,0.2870353774415758,0.2435996613542889,0.204603827124885,0.1991425228722744,0.238488195532221,0.2770611858302491,0.3179224395716459,0.35570905569766265,0.38993536490063685,0.403338497531181,0.3972948389334666,0.3967931277553901,0.38132060045592653,0.379345266849482,0.3910696692286507,0.40077476486139074,0.400105516882442,0.39461094922000284,0.389613366855904,0.38523340049060895,0.3813121960482172,0.38221496082142614,0.39569239206662654,0.41043989978210227,0.41385422179516496,0.40691326590476484,0.3962039364531035,0.37414899363218634,0.3461631391037093,0.3139870699341719,0.2793035678176682,0.2430273300513669,0.20122819476834597,0.16363818748056314,0.12662480454280545,0.09018085495263517,0.05290628395247554,0.017995301269455366,0.0,0.02418182224268217,0.055304432394738035,0.08979081250593957,0.12680992039567207,0.16364070878211712,0.19554535184231703,0.22510461656689473,0.25680883071276417,0.2826534983922505,0.3053705997051236,0.3283633476986191,0.34854488430279684,0.37335867677050294,0.4047506193780962,0.4427216623743845,0.4813494437413305,0.5233353924225054,0.5613884674670598,0.6042992054785467,0.64578000574303,0.6842938180749002,0.7275137580399492,0.7710123045487921,0.814510911306083,0.8580095180633732,0.9014820328180012,0.9421901637183264,0.9777544895887714,0.9826406324141593,0.9462469940248114,0.9029051750191613,0.8635006222132428,0.8230508595358424,0.7795919114042732,0.7360933046469823,0.6925946978896921,0.6490960911324012,0.6056278037593322,0.564889369243679,0.5257447553167399,0.48239432993039755,0.43889575370999123,0.3955965363936461,0.3569630037470156,0.32368606453336246,0.28683779829927525,0.24843440918418025,0.232344267968429,0.2683346359182043,0.30775152071071143,0.3480660468668174,0.3875223758272909,0.42429890276666804,0.44045844607808904,0.434500501374936,0.4283299750638646,0.4268068813804663,0.4105161902393347,0.4201661852070281,0.43861588495425885,0.4374051681534915,0.4342853238738841,0.4291484360332797,0.42464193930321825,0.41733575767620634,0.41691788309729605,0.4198190250608699,0.4302989868589905,0.43904462897667373,0.4459169926888983,0.43616390319807696,0.4296642179825755,0.4096430117504143,0.38041662511850827,0.3484730663978225,0.311492320294409,0.27511132811291283,0.23793002565200994,0.20076302741096452,0.16363793328163234,0.12662490635637635,0.09037318511942971,0.05450970532802446,0.024238251138952616,0.0323795742878642,0.06845464712448779,0.10350926666365523,0.13788550383739606,0.17218806369973094,0.2049000199242802,0.23570802090850396,0.26566775742642135,0.29330097942947997,0.3192321023750594,0.3395577896245875,0.35735649435131756,0.3819408157683427,0.41341309069058785,0.4525419348666483,0.49590269778030394,0.5361973277339208,0.5757531923811018,0.6188553240803519,0.6573341181384268,0.698868674863807,0.7422514213960666,0.7817019323767368,0.8221008841081922,0.8655591939841006,0.908536209836153,0.9465640397263811,0.9869294032414663,0.9999999999999999,0.96777794574823,0.9256298431848907,0.8876149571273905,0.8447105543195103,0.8012125206800865,0.7577139139227961,0.7142153071655047,0.6707262081722386,0.6290668104869229,0.5906737228641906,0.5475134172133939,0.5040149392062109,0.46059773135943705,0.4208146761136341,0.38075274524569125,0.33738596383682584,0.29753823617432873,0.26769058818671965,0.29105928761294664,0.33427194903840596,0.37474481031591245,0.4125762250460073,0.43449480626534476,0.43259531485435965,0.4284600611043524,0.42799769970644996,0.40899119303223397,0.41072474022891103,0.4255076464888642,0.4260315674279417,0.42734253817291845,0.4244372950664036,0.41966807434515585,0.41165525733176456,0.4072535049047993,0.4115185344685447,0.42217262627927366,0.42758388409436676,0.42518660910942174,0.42098662623741145,No
0.3940118970926819,0.3933156403771211,0.3882137380282872,0.38203532025451425,0.3720155630030707,0.3635403360790074,0.366803533815364,0.37914505467236526,0.39216774931026543,0.3998074758468463,0.3962510110354164,0.383392638259913,0.3584582364261727,0.32989379396262375,0.30200164844388533,0.2761285341276617,0.24300847679924975,0.20993739811942436,0.1754658884277538,0.1362021355021621,0.09954487765685915,0.06583859463477215,0.03322839943966871,0.0032803408253652133,0.0,0.026000567262797425,0.056580054331705765,0.09053978328330459,0.12061314302900916,0.14898986774804757,0.17782548257712183,0.2052765017013799,0.23052578642519228,0.2522549934067143,0.27169811555239265,0.28900524672888117,0.300428899901647,0.3140071025784811,0.33598539551200035,0.3655613953150111,0.39946190103716905,0.43762762747316775,0.47392937686434367,0.5129191437269708,0.5536382863479036,0.5924326884102774,0.6289213500513772,0.6694387258626703,0.7101754692262144,0.7494972913365999,0.7855980801034838,0.8259697782621808,0.8667124819770641,0.9074554589413361,0.9481965697496918,0.98736961499097,0.9999999999999999,0.9707623350690021,0.9302896428732109,0.8895656833745619,0.8509976521447667,0.814324402048031,0.7737588591079579,0.7330159059870501,0.6922729290227773,0.6515313798624746,0.6115690642756862,0.5756985295551728,0.5357406865067288,0.4949991223947757,0.45425614543050374,0.4135131978233738,0.37294387515421235,0.3362765061185983,0.2977059880108396,0.2569823388025019,0.21632577753673765,0.1877041352807698,0.21283019329432495,0.2514135866476005,0.2852913050564415,0.3148298856899424,0.3488706057029972,0.3783606273795167,0.3869708906799708,0.3778123990824952,0.3657711298539913,0.35747920104723396,0.36415899651877337,0.37701468378858183,0.37885592050306893,0.3787368619353354,0.3748540092431508,0.3746304196453186,0.3704621595170766,0.3579509404826212,0.3509661195805035,0.3561434120236363,0.37202491429056683,0.38977101903189404,0.40293089856270947,0.40376155434500427,0.391616477219069,0.3738643607345681,0.34747369864788935,0.31840018259313674,0.286930523615864,0.24883308622988598,0.2140977555581013,0.18013475723252692,0.146177984028254,0.11222121082398062,0.07831733459141565,0.046348984965724704,0.027581465596919097,0.04536839373646773,0.07841128176550449,0.10795500271436842,0.13764328973646034,0.16671900164918085,0.19442263037252505,0.22073628784043853,0.24612446168834645,0.26838004052347897,0.28840763638223177,0.30535099742567284,0.3172393045688938,0.3267540633563485,0.3479511955129754,0.3787758087004752,0.4131776045873893,0.45264448300574023,0.4933825380638933,0.5341253701797265,0.5745358204635397,0.6107286719736248,0.6499207267538273,0.6906504471425087,0.7299934611061963,0.7660838196003342,0.8064444806513383,0.8471866290165843,0.8874266189372481,0.9233713917627308,0.9614401526595996,0.9742817201520265,0.9451942225373097,0.9047273983724585,0.8639900585297481,0.8246204785067309,0.7886721906490411,0.754295426040324,0.7201586228793294,0.6795928252615379,0.6389019844873273,0.6011461739883482,0.5637282170692933,0.5230620160136891,0.4823190390494171,0.4415760620851442,0.40083441046399615,0.3608286814096463,0.3249646656095996,0.28504360629786574,0.24430225545714268,0.20364256713045448,0.17485184234593043,0.19975936449557197,0.23911699857801916,0.27492392819591294,0.31098797363190134,0.3492893403304508,0.37705031270310496,0.38033492983953143,0.36996391191012423,0.35824454219252855,0.3526477985166149,0.3625291219737278,0.367103848660041,0.36223212186699183,0.3577054259303495,0.3540874790979335,0.3429017866314775,0.3366134630096701,0.34393511745229544,0.35885808391569907,0.37240943037421903,0.38053238461489436,0.3776191000302206,0.3634463816872763,0.3373577749069808,0.30822087071518445,0.27748458973986445,0.24492899398695145,0.2120132906111244,0.17809369486777138,0.14386527559038365,0.10913422850771448,0.07614052973704943,0.04426300464123911,0.020861962055475636,0.037244279146372294,0.06580662033120688,0.09547872095664367,0.12376475418031285,0.15343475774012616,0.18427849323653822,0.21027559987437827,0.23444158889330402,0.25549808888625947,0.2764946829164091,0.2974701282678195,0.31259145660480836,0.32493407512550976,0.34601902104741,0.3748577228560156,0.4093787579984881,0.4459343683653588,0.4805216465329035,0.510178785488893,0.5490020810596606,0.5866710788989383,0.6241664200795035,0.6648415136581155,0.7055844035941073,0.7460886259616032,0.7824775607925111,0.8213852398045277,0.8621151873593597,0.9025478154427576,0.9386923877465886,0.9707395672063438,0.9669322765439513,0.9305136203240846,0.8897993269524799,0.8490563499882079,0.8083133730239346,0.767570396059663,0.7268274190953908,0.6860844421311177,0.6453414651668458,0.6046006459245746,0.5647964335584404,0.5289021047782244,0.48880983532563727,0.4480676585388449,0.4073246815745718,0.3665817046102998,0.32583872764602784,0.2851470963644839,0.24963250796493963,0.25305976732134816,0.2878331186106874,0.3258154333857103,0.35945143969936677,No
0.6944535964360186,0.6919782238654508,0.681440046148718,0.6740155674785258,0.6724258746778513,0.6754814650325263,0.6799130873134056,0.6860352739044702,0.6787864430407078,0.6582339462879028,0.6563419287046177,0.6718553814309636,0.6898539872498577,0.6999219470335192,0.7013239399364912,0.682181759212031,0.6429428450971482,0.6025100135362904,0.5594577686358388,0.5207802981952481,0.47704008116337815,0.43286631441912116,0.393333080374497,0.35175806702942847,0.3158669139613455,0.2789985407426677,0.24570814167824728,0.2042913626916134,0.16402380606073474,0.12297291148005718,0.07865705867159356,0.03651710085247495,0.02016744152111183,0.05027403518594886,0.0907116939581345,0.13137230827325375,0.17567389697473723,0.22004128310497117,0.264408669235205,0.30877605536543895,0.3531434414956729,0.39751082762590695,0.4418575011015211,0.48375247038068636,0.5232616989067389,0.5674328917877225,0.6118002709767367,0.6561676571069706,0.7005350432372046,0.7449024293674384,0.7892698154976725,0.8336372016279063,0.8780045877581404,0.9222868480135311,0.9528067017709154,0.9241332060896452,0.8799550801215634,0.8390951635950232,0.800893760874454,0.7628837219922269,0.7256964762614675,0.6942196095886988,0.671276974130232,0.6551455457102959,0.6409396308450082,0.624251956890131,0.6056940103517987,0.5795986724061084,0.5481322815629575,0.5178826182631666,0.4871019189976,0.45796916240045404,0.4314167361701452,0.4123681774596739,0.4240458362278883,0.4535801252597178,0.4870828282179762,0.5215800938814763,0.5565504489098478,0.5916465416101258,0.6240814498363014,0.6592696020888364,0.6852534504891237,0.6990493190240048,0.7013794163856439,0.695707640618012,0.6926380747067318,0.6872841190715033,0.6889273460452887,0.694233212683407,0.6966382284730392,0.6842609618097002,0.6671647112012491,0.6729444117414125,0.690608995069043,0.707639670011271,0.7164546372154996,0.7123716655622676,0.6833737028891307,0.6400940689369192,0.595731295590628,0.5525169384253297,0.5138798956584456,0.4701731582170594,0.42581172017711455,0.3830169100453328,0.34414960531081307,0.30025149802056383,0.2558845168287768,0.2117793785247022,0.1725107614655913,0.13031687785891066,0.08608770933405241,0.049408233893793896,0.028566003189371525,0.04420063084831738,0.08554654316729304,0.12442955989127302,0.1683633940174213,0.21273057971993603,0.25709796585016986,0.3014653519804038,0.34583273811063764,0.3902001242408718,0.4345675103711055,0.4789348965013396,0.523302275907267,0.5675521054292674,0.607566755263989,0.6488930032227356,0.69322433985217,0.7375917259824039,0.7819591121126379,0.8263264982428717,0.8706938843731056,0.9150612705033396,0.959424070862692,1.0,0.9916945356356159,0.9499748459976207,0.9111811371276941,0.8694877405732928,0.8304886905770432,0.791484123967733,0.750311345365547,0.7155503915300592,0.6908138939446973,0.6732371078020611,0.6609726674279766,0.6445300130160758,0.6299736801128404,0.6068395149760963,0.5782036843820924,0.5435928832111525,0.5132401494628769,0.48377745243807135,0.4581367226012716,0.4483332169509733,0.46790099942367536,0.4977263594046273,0.5311053559796768,0.5664672101168509,0.5995500742510063,0.6338813336338243,0.664313896603546,0.6899435516040471,0.704070505052208,0.7082272933742957,0.7007454585179362,0.6907739268863571,0.6848859831599663,0.6863201260250145,0.690849942279961,0.692382321073229,0.6964502815750095,0.681737514576094,0.6645892621582963,0.668239692082387,0.6879599089814286,0.7036373432385108,0.711259014395131,0.7154968750559036,0.6948559358188522,0.6565549639742236,0.6154370474810935,0.5754749265116823,0.5312399004831296,0.4884707210884127,0.4495893545543419,0.4056795518179396,0.36131248657368675,0.3169451004434537,0.27257771431321887,0.2282103281829858,0.18384294205275098,0.13947555592251792,0.09516337206861292,0.05426952816878472,0.015730579886761298,0.0,0.026377480851378032,0.06956646924708043,0.11393249105901526,0.1582998771892482,0.20257789265795634,0.24300253546950723,0.2839093430500782,0.32822193440984404,0.37258932054007887,0.4169567066703137,0.46132409280054665,0.5056914789307816,0.5500588650610145,0.5944262511912495,0.6387936373214824,0.6831610234517171,0.7275284095819503,0.7718517784779404,0.812931658919301,0.8518806592932604,0.8601118782388959,0.8235829371133612,0.7844584165007227,0.7471054987972674,0.7128069999405084,0.6864653464958925,0.6701425134320236,0.6548378488902025,0.6384175658148334,0.6191896183027072,0.595022436048948,0.5677324223099374,0.5376884180746897,0.5024258965118185,0.47160843665122987,0.44272077502819895,0.4210514658978399,0.42224846536690386,0.450619652787297,0.4854882720204945,0.519237354864774,0.5546087192417442,0.5890865442007078,0.6223502512086905,0.653945102474137,0.679665633680294,0.6931509304469425,0.7026634196038608,0.7120218845997108,0.7076312219850576,0.7013729045804786,0.6997187560874527,0.7022487516029383,0.7072068111908631,0.7048402210600284,No
0.5528554293584063,0.5624791249169805,0.5627391913795017,0.5627265239808956,0.5585856847600161,0.5349100544962622,0.517421343402884,0.532744274514442,0.5641120497039238,0.5876426382691009,0.6038419050636255,0.6052727094863433,0.570959006312104,0.5189970240076347,0.45790527552016114,0.40213788567388375,0.3424918758726454,0.2772697902157004,0.21712848928656792,0.16177330632888687,0.09689445232489069,0.04745239352937913,0.0639554397555564,0.122791135802236,0.17995910247123703,0.23816182955971454,0.30337294574753315,0.36865950565768557,0.43394606556783755,0.4992252631734351,0.5613949346321232,0.6150910427978742,0.6797059163201951,0.7449924762303475,0.8102790361404999,0.8755655960506519,0.9408461902863254,1.0,0.9824835500655542,0.923658696579984,0.868697084332354,0.822266941011994,0.7764963403488574,0.7193187234905016,0.6659714968519643,0.6072550877287832,0.5581861668490808,0.5234284714326014,0.5027309707610002,0.48752888174849973,0.47662754893281845,0.4676451417632661,0.4476687227775087,0.41420074334294377,0.3787757524140445,0.3396882350929413,0.29863957564463206,0.2521677510650737,0.20801125141281807,0.15310865747118374,0.10702434462962174,0.0726432688114178,0.04798918275580233,0.04963019595387186,0.08929351723030932,0.12851084334019047,0.17734159366116842,0.23821902496219716,0.28811497612243775,0.33960503390808716,0.3897521546729985,0.43538712879151564,0.47889753720377914,0.521894018804288,0.5572437533583954,0.5831776194922837,0.592426057287716,0.5794245339878574,0.5648435482656704,0.5627416601919735,0.5628323827716226,0.5704503788455231,0.5780288130655205,0.5781255802677538,0.5781256166072928,0.5787283129227792,0.5860210677029887,0.5786709802190124,0.5757258474752134,0.5572985041692013,0.5373135281615098,0.5440684268079838,0.5652148792434475,0.5816930655910442,0.6013082362019522,0.6036882847112133,0.5651369287820258,0.5106027674128901,0.45115956112171807,0.38775506465073084,0.3346292175556411,0.27072900378085984,0.20544310588230497,0.14015654597215255,0.07561112534301717,0.03229679035949351,0.043171937633323054,0.09617371118543838,0.14949359275356455,0.21383019629590105,0.2791167562060539,0.34440331611620634,0.4096898760263583,0.47497469350176935,0.5383155868580651,0.5915757402119866,0.6554502892515757,0.7207362866888674,0.7860228465990198,0.8513094065091726,0.9165953233674866,0.9789794686399436,0.9747774751403622,0.9131704780845249,0.8599644280093024,0.7964039145080739,0.7341651465009229,0.6804265805318628,0.6203703259741538,0.5679893774684373,0.5243892377821844,0.4966573932732907,0.48160171820303077,0.470637050481463,0.460573138838809,0.4365415457157078,0.40851805845973166,0.3756571348859383,0.3354365076919259,0.295907756009818,0.2515651972658466,0.20622516576114158,0.1584109872471875,0.11815856488648846,0.08435662738880545,0.07205162630933337,0.09225049573535893,0.12989904193347312,0.1879528588237891,0.23524936954917086,0.28345367083555484,0.3323599244870228,0.3805805076803397,0.42118876662340643,0.46033542513849035,0.49151419744217906,0.5010942367248576,0.50104355992451,0.49224327529354905,0.48586280955695527,0.48663292622790877,0.4982185706201765,0.5045187901802506,0.5159664926346395,0.5188460638159977,0.528885610166471,0.5182199951552251,0.527436339618808,0.5304556765265036,0.5164166188023871,0.49394855213530375,0.4953412651264051,0.5265038359477541,0.541982526856081,0.5605079078693027,0.5723426829173164,0.5531421266747243,0.5017068657372055,0.44486907258113595,0.3913596610566761,0.32907172218365277,0.26553198097648023,0.21237543530794367,0.14860326259474688,0.0834017437611756,0.026086866081652893,0.0,0.04065202325894246,0.0945081087113091,0.15922360043759554,0.2245101603477475,0.28979667127852204,0.354455437297307,0.4085944126777763,0.4702788796984563,0.5355565710102557,0.6008431309204085,0.6661296908305605,0.7314162507407129,0.79669189004081,0.8576301248796638,0.8829790268742088,0.831416121628973,0.766923111589707,0.7134363518021125,0.6546232166193064,0.6010611775065606,0.5484925698929088,0.5056792425528869,0.4831481507801265,0.47048516111428906,0.45857730989476364,0.45196451175855,0.42644644813863186,0.3938488745030724,0.3595907808893646,0.3173924022971759,0.2781095543649439,0.23277988578870046,0.18661318380035974,0.14239464757210296,0.09503053199393463,0.0639223694274973,0.0565368428581392,0.0837528062267352,0.12709238163710124,0.173575056313922,0.22441675245485015,0.2764894533223381,0.3318277807154386,0.38086747092638706,0.42899752277029624,0.4727764252797799,0.5149165270949236,0.5454784423610706,0.5609671591427623,0.5506451671798378,0.5462162251715412,0.5342660745491901,0.531970427508162,0.533199149360132,0.5470733635322711,0.5611361810286133,0.5630090118082038,0.572757709550904,0.5781005667683257,0.5781255802677538,0.5775477581568373,0.564078050146918,0.5428218803890243,0.5423669086213305,0.5668108211890783,0.5841530779400217,0.6004031816357003,0.6087743441732636,No
