0,1,2,3,4,5,6,7,8,9,10,11,12,13,14,15,16,17,18,19,20,21,22,23,24,25,26,27,28,29,30,31,32,33,34,35,36,37,38,39,40,41,42,43,44,45,46,47,48,49,50,51,52,53,54,55,56,57,58,59,60,61,62,63,64,65,66,67,68,69,70,71,72,73,74,75,76,77,78,79,80,81,82,83,84,85,86,87,88,89,90,91,92,93,94,95,96,97,98,99,100,101,102,103,104,105,106,107,108,109,110,111,112,113,114,115,116,117,118,119,120,121,122,123,124,125,126,127,128,129,130,131,132,133,134,135,136,137,138,139,140,141,142,143,144,145,146,147,148,149,150,151,152,153,154,155,156,157,158,159,160,161,162,163,164,165,166,167,168,169,170,171,172,173,174,175,176,177,178,179,180,181,182,183,184,185,186,187,188,189,190,191,192,193,194,195,196,197,198,199,200,201,202,203,204,205,206,207,208,209,210,211,212,213,214,215,216,217,218,219,220,221,222,223,224,225,226,227,228,229,230,231,232,233,234,235,236,237,238,239,240,241,242,243,244,245,246,247,248,249,250,251,252,253,254,Target
0.7332498982894734,0.740401625634051,0.7312918559524028,0.7062205383854016,0.7171654673558748,0.739413173717319,0.7066085252290512,0.6401918877054692,0.5721635878097459,0.499977847222134,0.4306041368313891,0.36019827469578247,0.28705286370627847,0.21725204595179115,0.14732038183641805,0.08116907877169766,0.08413997031086629,0.14796406442016585,0.21844558638605793,0.2916975420449852,0.3638736947768547,0.4320597047846073,0.5045781491907692,0.5778842878804958,0.6511926254914068,0.7245009631023177,0.797698548329531,0.8543725960404439,0.8224903595877185,0.76559924860912,0.7309764494300696,0.7052226946643495,0.6706278551718788,0.6327224836450863,0.5848948495562899,0.533723725591155,0.49436233650498884,0.49481056495808495,0.5346911381150937,0.5859166266859274,0.634446511735315,0.6730926293859093,0.6778835893008673,0.6645379243210822,0.6724482859927235,0.6850211662957465,0.6890511264677203,0.6726104378707906,0.6556564163344897,0.6827230200407727,0.6950021197698918,0.6472295431275238,0.5775286761246753,0.5090502495785865,0.4375910335270632,0.36560636666432633,0.2973639189438064,0.22478027139582535,0.15434636705090898,0.08897503727285361,0.0779708484730044,0.1408673011573507,0.2097003939759392,0.2806452709106876,0.3539219241269067,0.4272302617378174,0.5005385993487281,0.5737497942989599,0.641478102939543,0.699040147465067,0.7591658314118764,0.7921435228620918,0.7487265106916242,0.7106658761579959,0.6863788212842553,0.6575715757509074,0.6211608253382429,0.5719627401703443,0.5247745632068531,0.4898288908823416,0.5035630627798202,0.5487663355160451,0.598577371997255,0.6460037949556762,0.6883119819979401,0.6928331340096948,0.6801762948091178,0.6913209245124173,0.703965853696534,0.7049349388869174,0.6862907066159273,0.6643419493308457,0.687772498616331,0.709823182226828,0.6789210318109969,0.6128609200238532,0.5449289661652809,0.4727816454514897,0.40333582118722977,0.33300994893443636,0.2597631577877323,0.18645482017682058,0.11314704988929991,0.04078081969046177,0.0,0.04525746867940694,0.11284657845317647,0.1849118646439586,0.2578681548790368,0.32653700014209963,0.3978009388135144,0.4710880378112041,0.5442204400932903,0.6134996796828766,0.6840121493729375,0.7572012352129595,0.8176902143386183,0.7956890955824404,0.7449546207110168,0.718533136081191,0.6968492648533534,0.6626085109972327,0.6197221039033186,0.5713781982112084,0.532212220863641,0.5371098505152846,0.5786100916873186,0.6267035147153045,0.6771261333041249,0.7150929080501566,0.7114061732130176,0.6954789864613039,0.7014362783643714,0.7113664399057059,0.7125105529165253,0.6903497316395614,0.6821491511671031,0.7119418924370121,0.7319742232047742,0.7316849807971267,0.7224646251846157,0.7191543835745356,0.7375937015108528,0.741325712626738,0.7102390584081862,0.6649246973577504,0.6216895054047217,0.5755572854031493,0.5525964543486531,0.5872822714941482,0.6375424236167885,0.6785645135186223,0.7130912611636505,0.7367454234398713,0.7624521913600749,0.8114084640961773,0.8790546647731351,0.950375544899506,0.9900896761755199,0.9489141377331357,0.8814256880217494,0.8086512220860395,0.7362195510292026,0.6680473355241615,0.5957718327629163,0.522467500242766,0.44969254062210817,0.4085342092196683,0.45681312254573125,0.5272799911620153,0.5974871422100506,0.6668396439476468,0.7272670474016806,0.7336977650782411,0.712085714684035,0.6958345793748347,0.7186978243015906,0.7310023325187539,0.7222987033337046,0.7089276228056777,0.711248078882399,0.7230464993028686,0.6998978063593738,0.6551088772695882,0.6055248439745514,0.5568769456779897,0.5197698142933312,0.5392576665320993,0.5853566138006686,0.6328594620747293,0.6712039201043624,0.7007724788142188,0.724630755784263,0.763578521738895,0.8236796909874663,0.8898112375052999,0.9549988380695534,0.9855934799583882,0.9363327507599007,0.8647172090272354,0.7935540519039971,0.7248190610750967,0.6518284106574995,0.5786282955921519,0.5088630387280011,0.44357185245019437,0.44464270741984524,0.5134497546208411,0.5831110136342298,0.6517977522610202,0.7099776366325089,0.7211040333945801,0.6987129788885104,0.6848918643995389,0.7069652590785619,0.7103644756789816,0.7023871141271508,0.6900036735874205,0.6863285406848089,0.7028963255075155,0.6896479092358988,0.6519195686550369,0.6016715910615537,0.5524619157182818,0.5179124630051862,0.5400169989368823,0.5878225390604804,0.6372564495475769,0.6771820098325035,0.7121870692425131,0.7399537897848528,0.7721411133662167,0.8279957981823108,0.893173981228263,0.9504475482777964,1.0,0.972097394081289,0.9057133862274519,0.8333405684039773,0.7602427139934566,0.6911160661469499,0.6226118331799216,0.5595306365410645,0.4898538482810173,0.46844356038892554,0.5282555910114807,0.6007558019061802,0.6687563286148034,0.7324288974036363,0.7615597287189876,0.7489897935663065,0.7325948073097749,0.7546229083814192,0.7627499931521459,0.7540996095084082,No
0.6200519929079473,0.6307197753016303,0.6165810351522909,0.621102267523429,0.6530369076556888,0.6589300853664999,0.5940159142356327,0.5119155895417653,0.4270031574505595,0.3447368867753615,0.25820585828492937,0.1698622156439067,0.08272165644503415,0.0181187368901643,0.04741798285536136,0.12935556927379466,0.21756729143584908,0.30518458756985134,0.3838959603114602,0.458414034030066,0.5452819317972328,0.6325128516199434,0.714451864068794,0.7806784834932476,0.7457096684837399,0.678871132924997,0.6386141206140248,0.607619227321671,0.568605598555785,0.5214343599693814,0.47571947882650845,0.46256047447151705,0.5052046810743369,0.5614056163691477,0.6114176357801147,0.6432132876029453,0.651294393045081,0.6436619879212135,0.6515027911011941,0.6446267887115098,0.6309349837781335,0.6549943023077003,0.6776375890957638,0.6387584836717763,0.5601473627116926,0.4752306333344891,0.3917506945249758,0.30714106655430995,0.22403434477134454,0.1388817957286247,0.05531116332128927,0.0,0.04755072989737885,0.1345489984970204,0.221297801609316,0.30350383387750934,0.3910600423436339,0.47941486844490266,0.5668854854386391,0.6490503611797682,0.7358156608740483,0.8069063727776231,0.7793631515006711,0.7128467878456117,0.6618069725524931,0.6301300187739829,0.5979143500785833,0.5518595577010845,0.5059222403956611,0.49550268554021915,0.5359873463834173,0.5911146938193539,0.6359943453851851,0.6578713014137292,0.6528434302402588,0.6581096691478208,0.6690517152675379,0.6511701546650155,0.645750816487094,0.6770472543748682,0.6970154345140345,0.6406053722797334,0.5587306308624911,0.47679828215704956,0.39026104746675494,0.3072630750759626,0.22178181823127086,0.135432404768275,0.054187663560121946,0.0056187069370823295,0.06081099143801083,0.14477882952550036,0.22844229543635974,0.31661701055354463,0.4040836721805534,0.48624677924288595,0.573128270258116,0.6614802446303945,0.7496437350825749,0.8156265569265855,0.7797504626070908,0.7149313578459808,0.66792147518026,0.6288921095460567,0.5902093917481996,0.5483301324461383,0.4993773373082586,0.4768251684474263,0.5108077475118433,0.5666676821363301,0.6224365986306482,0.6595924821833623,0.669729200916547,0.6647509454956364,0.6739659146044066,0.6817354616113802,0.6612144337903252,0.663473701808279,0.6931259266208873,0.6912923925539556,0.6209456915098868,0.5330556896408927,0.4483729397292271,0.36472107055200853,0.27995404384682554,0.19656629306463924,0.11258013735685934,0.05175993698584014,0.08567228744270527,0.17096607814334364,0.25758053645234,0.3398415031438655,0.42747228091271006,0.5158295360050171,0.6039113496386412,0.6870658889577761,0.766208706262606,0.7693369221913471,0.7124409253349728,0.6862717886357454,0.7195942725162181,0.7791308864675883,0.85145437946342,0.9267149032450914,0.9901604352996902,0.9601435481359704,0.8787138015480536,0.7910223901093112,0.7083423867491438,0.6224207670389876,0.5341320939984906,0.4576186743803905,0.4801878783613971,0.5601412560362444,0.6425570719823679,0.7122655843581815,0.7325910709386598,0.7128183615393964,0.6875922735069309,0.7021070248597265,0.7071356185170423,0.6931884280455436,0.6923110709961477,0.6910082054465398,0.665360109831235,0.6197376969558714,0.5625761590603915,0.5137805007197347,0.5278426684059174,0.5760650755008463,0.6164644476915739,0.6556856435321199,0.6944262366650817,0.7488074416935226,0.8182827243842055,0.8940340728536977,0.9711758760389013,0.9999999999999998,0.9346730300343957,0.8520612368079548,0.7640607868220499,0.6757385418325481,0.5902285177795523,0.5084122956799282,0.4702404799841884,0.5361622765556144,0.618957496330675,0.6943631931013421,0.7258995072683698,0.7025367438432628,0.6776840246010389,0.691849107222924,0.6933260959444483,0.6796300288611263,0.68120460129464,0.6836078958015783,0.6618694510823722,0.6182929200736822,0.563307744910232,0.5235126771927949,0.5432485093412509,0.5923660927066312,0.6326814298035945,0.663804921783141,0.6990829549054205,0.7588550305771882,0.8345284417492094,0.9100439931665703,0.9738105364003464,0.9511810130916787,0.8730023054255014,0.7856488688283214,0.6985989132148793,0.6164773661709504,0.5300143777274375,0.48642356588652547,0.5530227181647545,0.6340441663807443,0.6970165692222889,0.7046492239722317,0.6742551772669121,0.6635100167436185,0.6795775944601901,0.6742038227396037,0.667977569273394,0.6751691032654716,0.6668784717818312,0.6382694775772226,0.5918778640052864,0.5341375648054587,0.4946278751983937,0.5212945621983287,0.568573098539809,0.612147471103931,0.6458074518314441,0.6799793094404019,0.7365898093404233,0.8085223949028268,0.8875197533490942,0.9362741898826554,0.8876657148900158,0.80151850036028,0.7181994013339867,0.6330846460800168,0.5447910322200402,0.46270758497735964,0.465707363865858,0.5470708266276387,0.628399064220035,0.6875732258766332,0.6919386875160909,0.659107252723903,0.6438568465635188,0.6560381903986008,0.6482856287682957,No
0.8489850449851737,0.8846904011050793,0.9014191505821862,0.8957852616140121,0.8884110717299813,0.8955540972837868,0.8969071912104178,0.8920108210843862,0.911649443839567,0.9389662644671222,0.9368759619128393,0.8703153103339394,0.7948136629327986,0.7163877083270298,0.6349177841968441,0.5581100062805953,0.4809498009426072,0.3996080164062372,0.3233553400930185,0.2456207268652595,0.1645633592199155,0.08969947870592687,0.032066484377117566,0.06522987684202819,0.13127323224050624,0.2106578260235752,0.2871458486901173,0.36463239064962516,0.4461939053738331,0.5278365845199122,0.609020572014042,0.684220439986539,0.7630824737367079,0.8394410561952126,0.9010710380440474,0.9210189120812475,0.9118982003600367,0.8880359604522043,0.8573104655217942,0.8171386871247415,0.7804257938909367,0.7683958899144312,0.8056477843130352,0.855817491128966,0.8971092678567061,0.9182756075930958,0.9228839780881035,0.9235105877656342,0.9330724206604921,0.9331395078153275,0.9287838738084935,0.9416679242309216,0.9608224214995922,0.9351813665570465,0.8581005178326715,0.7809804815582546,0.7041507327661711,0.6229381917141146,0.5472031127004009,0.46886847953090904,0.38727189161725417,0.3070717894995526,0.23246507395596128,0.15189762174942179,0.0715383137484944,0.004671359218491045,0.0,0.057239957636548544,0.13665997771616578,0.2079852254707446,0.27360483597974483,0.3532009394492108,0.4348358590852093,0.5164607009398756,0.5956670816780736,0.670739816546202,0.7518314130667165,0.8289716164041809,0.8740369719664673,0.8798098709356001,0.8675225312739616,0.8441087102050115,0.8082090749090474,0.7662960543274693,0.7385965344501173,0.7553145742232894,0.8028183981626167,0.855532851662758,0.8890418226965022,0.9070732452127888,0.9121173496597097,0.9087058829409269,0.9173115116543,0.9241645621579524,0.9108450155724384,0.9227107613068766,0.9387076900328781,0.9554642755850824,0.9329699674067145,0.8637992269690198,0.7847417877809038,0.709829735182028,0.6288216780109555,0.5471793070291235,0.4655363208356489,0.3838933346421729,0.3023063165980123,0.22437617542758803,0.14829520514473948,0.0681621381097477,0.019011816877538057,0.060612126466646155,0.13544203144127065,0.21678388417005245,0.29840541192211945,0.3774702420568261,0.4526380825553502,0.5337973244771124,0.6154296888491062,0.6950752529872388,0.7645964057328367,0.8304925672676473,0.8933167558241597,0.9155448479276829,0.9088029316398021,0.8899467318426624,0.8598714090234947,0.8190497542655046,0.7739583091021143,0.7489755653988859,0.7731254514320098,0.8207010137802175,0.8678485637986115,0.8961597341799428,0.9078855932868499,0.901986377753643,0.8997443148686006,0.9052297437888968,0.8985086441746095,0.8851510807701588,0.902388068192371,0.9239837998180158,0.9499365796077435,0.9561352473431963,0.9356925919055399,0.9244596922067931,0.9338165855535914,0.9337088757671703,0.9352420094589222,0.9353345093818368,0.9299408080798786,0.9078886022021972,0.8679630650995098,0.8194738034054778,0.7883295018490275,0.8152263943144031,0.8595906016932353,0.8969632557238747,0.9217122638385478,0.9389097205966588,0.948951344343997,0.9356379458559343,0.8901639962342534,0.8202536018461988,0.745898313855943,0.6661500038664951,0.5870711197777267,0.5696181510976186,0.636049937473719,0.7167034826940561,0.7945469233308251,0.8705763261252164,0.9468280133571663,1.0,0.9886933963296622,0.9703355803410387,0.9516668476683146,0.9494159984580048,0.9524801956686795,0.9412335876047928,0.93746456051731,0.9391764535514364,0.9248817953279649,0.9009747643333674,0.8565945364503467,0.8063997592255641,0.7707911292522249,0.7904370300407506,0.8309182350049926,0.8682501588140787,0.8912448573445246,0.9079889965037429,0.9134731223720616,0.8926587073436141,0.8417497577765183,0.769048251436903,0.6936970392187816,0.6152890534002902,0.5336845985673913,0.4526927333063966,0.4098210912008,0.47141175592698326,0.5525269081809765,0.6279259712093759,0.7066651101564203,0.786875464231793,0.861463170162263,0.9396299304599731,0.9966634177199047,0.9982931988911614,0.9826404404451514,0.9701685016010513,0.9635636341766856,0.9635371446699892,0.9552823185464132,0.9517952059072106,0.9538567336196357,0.9466104862234772,0.9246858632830324,0.8865697691435916,0.8369903503369347,0.8053428165950383,0.8281042481056575,0.8707904803451865,0.9055025133725876,0.9298899814776675,0.947619883273821,0.9519209908351334,0.9383410133289121,0.8955597288759469,0.8255126278997167,0.7453218625283082,0.6636836234154051,0.5820406372219307,0.5006970502081685,0.4470875514784294,0.4997099771419762,0.580825042099014,0.6570275946114978,0.734817901478118,0.8158618816061598,0.8908674723985026,0.9641209028196494,0.9944899615605196,0.9751981832711141,0.9498005051412886,0.9363257259356261,0.9223563177814182,0.9297213947832974,0.9242993713137584,0.9229921802273151,0.9241784718958377,0.9322665019104484,0.9226472611317498,0.8992510587713254,No
0.8025570611595172,0.8235035158989423,0.7987477384456907,0.7358519501937508,0.6791191060126331,0.6724216643901395,0.6317676066544224,0.585700260303065,0.5346167973377507,0.46428976962049284,0.3928561876691421,0.32629667322672073,0.2573957493345026,0.1857186467283527,0.11425248548494171,0.061492322565991686,0.09054878440231995,0.16017282885072948,0.23080137615496332,0.29640680470162806,0.36703913490807194,0.43874627057711546,0.5103600776330961,0.5716505107580203,0.5984853906623726,0.6219278417747696,0.6590836076019229,0.6869849113220801,0.6720334497149623,0.7170584746148285,0.7641248294902134,0.8260998921648071,0.8810272701992612,0.8669480913957204,0.8388133446313379,0.8183712369965881,0.7981595708796323,0.781802381309018,0.755863492945583,0.7238143204521241,0.7054319773445437,0.716991802886848,0.7499652910887316,0.7780909825988127,0.7954112704711787,0.801259567628839,0.7929025805107968,0.7785932308513379,0.7706163945021267,0.7687538075628508,0.7713101528154711,0.7790857682997927,0.7845099490148464,0.7917787871866162,0.7931520170022903,0.7874787081098027,0.7693769947697093,0.7716237731581137,0.7929241305310877,0.8085687052384454,0.7738089789913738,0.7086244508100796,0.6399340631028336,0.5698492149181507,0.5041212316537438,0.43310433012674654,0.36142658204400635,0.2924319987272359,0.2259494473596162,0.15453184659993913,0.08301843519599372,0.01826634936111038,0.0,0.05917512104343825,0.13080094351391747,0.20197422090242134,0.2678900356974867,0.3376771929122401,0.409374929540977,0.48082372293718945,0.5474156452347096,0.6162741146430557,0.6878744918188555,0.7559323013281998,0.8226804938723451,0.8635148322009116,0.8347038778400935,0.8174377738807639,0.804084565754031,0.791660758104973,0.7717811534286705,0.7446948201460946,0.7190689804312997,0.7166723628122624,0.7408392353316271,0.7770613422193069,0.8016973946004537,0.8215131445053487,0.8273566178729526,0.8184534662202458,0.8164878286482802,0.8171601954441752,0.812427550537099,0.8102714273928817,0.8136537468083056,0.8167429616395769,0.8173464808618573,0.8169002025450915,0.8050134553491226,0.7830429402693273,0.7884157393987492,0.8084105320637076,0.817880259137642,0.7712273522390627,0.7051994076230614,0.634024517798647,0.5673562342216516,0.4985845577892647,0.426919651832919,0.35665587432070744,0.2909768796167128,0.22006374477937085,0.1504305428887316,0.0867562211520101,0.06729099843380737,0.12596734545574684,0.19716318681355205,0.2633540717784396,0.33272469158289364,0.40441491200493773,0.4761249829791172,0.5476849477656851,0.6149246468872456,0.6830588653701923,0.7546197769369578,0.8226162153115353,0.8864535468331278,0.8961915302956218,0.856515407101134,0.8343355803202663,0.8148780945127767,0.799433837836359,0.7834377074051135,0.7530795417410368,0.7252440592885954,0.7315136619412463,0.7637683006358629,0.796929294101393,0.8174714991028418,0.8323983074881114,0.8436617027972766,0.8631303392184015,0.8935189579900458,0.948880254734257,0.9969633287603841,0.9786624215803237,0.9169281743856066,0.8504908019401667,0.7824691966789659,0.7112791719995797,0.6452215904453711,0.5756660887104876,0.503988823564903,0.43949801663929144,0.4530721756335512,0.5224845843198729,0.5941937345559514,0.6659036467535775,0.7372403370706384,0.8027581467394067,0.851033112498994,0.8509991244967454,0.83024455538362,0.813421981267993,0.8201504778741358,0.8359247194122734,0.8388997607508781,0.8430568977600426,0.8377879700942816,0.8360693016793164,0.8351703298169157,0.8371560327031231,0.8372262118775657,0.8407982807929009,0.8517585765538405,0.8493410737629188,0.8315115650032361,0.812292010561434,0.7793345084428582,0.7478041906061617,0.7418916832882227,0.7661318576887637,0.7933527814875023,0.8129000569960672,0.8249327417568366,0.8352226324926693,0.8515745348528951,0.8940788609094774,0.9441062966637666,0.936676448077584,0.8774398151986689,0.8073069011465144,0.7356046809714611,0.6645474391811894,0.6068211939146333,0.6237044348121006,0.6930661852636975,0.7601287923209319,0.8231419223288126,0.8462818782286221,0.8319867463664152,0.806822500137895,0.796236276948521,0.808775119813774,0.8138213834297563,0.8169708326705607,0.8117379333464672,0.8051366457654745,0.7986789039449351,0.7963053083795286,0.7992889442139668,0.8082174973062608,0.8224937622793107,0.832319373188745,0.8217925180593784,0.8049241990572973,0.7799978230476929,0.7471144186833321,0.7374562281846326,0.7641015810660226,0.793902104130225,0.8125522193835726,0.8306284192396474,0.8502914645160684,0.8739407195925439,0.9097698784997394,0.9665820833674843,1.0,0.9575315342205508,0.8925350243055534,0.8249715769341177,0.7603062290042661,0.7008149416846516,0.6363154330923766,0.5675084847295957,0.49605835865390335,0.4477284874285905,0.49230589995504315,0.5636627373180394,0.6328276017566605,0.6991769474953826,0.7705189771568344,0.8362903010569722,0.8570031417418358,0.8440202802514036,No
0.9108405571941101,0.8998948973027561,0.882245391730512,0.8591446546066897,0.843637789492677,0.8128231421855074,0.8081866114421998,0.8417517977542854,0.8752526715099649,0.8990471513436888,0.9015063905103611,0.9015470346674437,0.905669553803808,0.9140147950654527,0.914425856543488,0.9126605301555812,0.9020178115656134,0.8859093505704034,0.8827420705877673,0.8943097155685777,0.9097368721876291,0.9152841173637676,0.9020180931039199,0.8263253921786611,0.7478044639110204,0.6612162010433889,0.5729161968905208,0.48461285523906517,0.39720266329031295,0.318286227479214,0.23260786887264095,0.14444004672409516,0.06255903552183706,0.0,0.02469215644815126,0.087064012470772,0.1460498685755378,0.2086158772083313,0.2854406498337714,0.36798552248355354,0.456142893156154,0.5399734076561566,0.620130105385847,0.7025238464364236,0.781157653117827,0.8477813342230485,0.8872430616690206,0.898315322308983,0.8881035979209322,0.8714605474651089,0.8554722465487654,0.8379063689652233,0.8177845712397656,0.7938874309531234,0.7970652606492508,0.8352493663126708,0.8763759790001175,0.9033475573258845,0.9082724450439164,0.9016921392687995,0.9019846540940295,0.9105903597760403,0.9144006114523939,0.9141844489320554,0.9069235284514028,0.904434204338062,0.8884299276924097,0.882933623036837,0.900580430374182,0.9100973007680488,0.9159691088703326,0.8846551252051278,0.7999805413805523,0.7119957072716685,0.6336806401599739,0.5719611489062475,0.508386237979167,0.4320644979308552,0.3476432841011863,0.2594193223630883,0.17588944721378774,0.09567895029811524,0.027499593239963982,0.04750083267281302,0.1298208932852014,0.21079943212232344,0.2937933528235974,0.38199920721781444,0.4669177417117354,0.5463152311502839,0.6330229916291472,0.7117966412755246,0.7957341818857591,0.8572253772599445,0.8860463309969837,0.8869874599682495,0.8757758289621369,0.8606173045018972,0.8476206886042552,0.8217356428391451,0.7913103919766142,0.7745147166827244,0.7904594207674991,0.8340234303419629,0.8671156034157812,0.8855691164629154,0.8875937203456077,0.8801476412351057,0.887349591219911,0.8895041651953168,0.9008861266804298,0.9052942657524874,0.9126561117431338,0.9190933844992248,0.9190644285579757,0.904774929018372,0.9223327491703095,0.938814696315631,0.9477117686936725,0.9365484439032887,0.875639706552876,0.7932012551724441,0.7123436325997055,0.6254061492924945,0.5466587129227123,0.4605935123588223,0.3737884400127156,0.2952275896147971,0.20860541203879235,0.1223351280271825,0.05305856453011071,0.05770358881961335,0.1318864409534548,0.21954753806132943,0.3074330315422229,0.3873800743962479,0.47157736101193626,0.5595513149560465,0.6401662062581013,0.7218811690936449,0.7994309680352869,0.8654877038537234,0.9070172434018045,0.9461955870999292,0.9288171500832554,0.8875366416333141,0.8189768876544219,0.7395088489896873,0.6537661879335437,0.6280054538147883,0.70032588591075,0.7880828502852875,0.8682428858394726,0.9481294662460236,0.9999999999999998,0.9918483014917132,0.9817646029815099,0.9629581597735599,0.9493312426179406,0.9561398474228546,0.9635840064556758,0.9535433706052301,0.9457115182647005,0.9437088272358294,0.9343423089191341,0.9255896122165039,0.9214601314331732,0.9260853591769533,0.9256216446987462,0.9310060754846015,0.9145148018927649,0.8862735236078485,0.8454069366720398,0.8207438525793684,0.8396171191680135,0.8674587106636953,0.8911120560942731,0.9067221045629743,0.9174743965058296,0.9213291742437189,0.9271405928254037,0.9003988736764057,0.850367055613144,0.7777388213019354,0.6995877631794973,0.6142320880413896,0.5360418470649815,0.5364638743532315,0.6192250374504626,0.7026746286771473,0.7832476734923246,0.8683393187489619,0.9430386283832763,0.975592864779246,0.9591522821586775,0.9454354432731213,0.9320709004457413,0.925375971740116,0.9422081507063569,0.9454336177436133,0.9476364173782106,0.9516784367623401,0.9456437788023846,0.9454353832978877,0.9454353832978877,0.9454222790673124,0.9421907968802923,0.9206779453394545,0.8850300266027269,0.8474322237495151,0.841657383168436,0.8617130233022381,0.8862789085545228,0.9032809622234257,0.9180826343192441,0.928998614674019,0.9312584848559158,0.9139946663074319,0.872565036284789,0.8139881996735363,0.7361077820147763,0.6526099272351604,0.573400550273071,0.48833928025436024,0.41917496272434973,0.46369715516299426,0.5510593302844076,0.631756427083076,0.7150843288494759,0.801799059492075,0.8802097168086538,0.9555514465419674,0.9726597856616153,0.9534254910339734,0.9472044876567545,0.9335597023876672,0.924382776357161,0.9382978010519334,0.9453212271136129,0.9472514290333509,0.9536516109425988,0.9507972147820036,0.9427484698070867,0.9370695752290843,0.9420602612352955,0.9450313650716307,0.9346302274907885,0.906726665869743,0.8703929706631002,0.8525788693104335,0.8769581611263109,0.8998189398051697,0.9214915850698111,0.9377881191316766,0.9452401295203525,No
0.9554362661656379,0.9626742761899378,0.9444314433793588,0.9171454463132576,0.8878938408648211,0.8467672482689252,0.8026729142604052,0.7612085448099677,0.7364493989718741,0.752327907235232,0.7952509905330949,0.8475165172204411,0.8870688894436589,0.9243421456553265,0.9430002689554644,0.9340874682805718,0.9243025598952175,0.9215723088352725,0.9350735236001038,0.9453554690313719,0.9529176964234112,0.9537474160678556,0.9515128685276291,0.9505925749226429,0.9474950002256743,0.9406104297140154,0.9390084339158737,0.9274656626320115,0.9117479658660499,0.920084474802705,0.9506245657595565,0.9648761784128457,0.9340585526108918,0.8706733130110136,0.8137798275820596,0.7657139812769949,0.7096235004578735,0.6461367594291778,0.577615568135023,0.5110148186700485,0.44847528451255914,0.3802650747405595,0.31154751382491996,0.24339231940645722,0.180910663001552,0.11419954964367207,0.04604311426817076,0.0,0.03140582164623196,0.09882097619384733,0.1675387990609436,0.23619928136500334,0.3012894087684619,0.3650495654318193,0.4335942093955514,0.5022852768384642,0.5681512120296728,0.6312372291642896,0.6996495846687467,0.7680508413301759,0.8310542735619955,0.8941775398441676,0.9351089452789119,0.939512085472247,0.9285908121716666,0.9027815915888424,0.8726976942024107,0.8349020224624215,0.7920977915965315,0.7505771398029608,0.7200159043025882,0.7298992780323263,0.7717862196060568,0.8238740869121339,0.8694114317671582,0.9028624741752123,0.9093077293296765,0.8982246132487577,0.8856001839836707,0.8843068337363207,0.8908199578116678,0.8998606175548531,0.9068568773665191,0.9151378083818831,0.92485148693381,0.9349719705474,0.9410104835495845,0.9376411414364396,0.9242741464523443,0.9018387028225299,0.8842966948913233,0.9020654015730543,0.9340381434864773,0.9463150630250037,0.9087612942501355,0.8517193717388767,0.805727636883149,0.7599274321773746,0.7124713703779202,0.6535212269019106,0.5854194779975697,0.5176346323577425,0.4554415147030859,0.3880774632497136,0.3194548058627362,0.2549255600169308,0.19063042330209834,0.12249641846859283,0.07791158308278434,0.11333643577743768,0.18102711666748827,0.24974518283390035,0.31846215734465755,0.3863041064335161,0.4485036061648461,0.5158055111645512,0.5845131547642486,0.6517127668260232,0.7139393259804117,0.7817372422347297,0.8442781460319926,0.8945247167462709,0.9362366707486185,0.9390908624633745,0.9205065459185775,0.893813386981789,0.8680436130524829,0.8325914325317747,0.7885881269014103,0.7485455750956318,0.7153908577701609,0.7155922583125831,0.7549835395800839,0.8062645950854406,0.8531002935915482,0.8877332346333093,0.8986025268605655,0.8922836277192217,0.881700770379735,0.8882839423225308,0.9035629724680914,0.9261390412109334,0.922376846597309,0.9113874652190235,0.9122001063496148,0.9277106997555946,0.9266029494969976,0.9113577025934909,0.8772761180788622,0.8299082828565252,0.7818125330354333,0.7455695562240459,0.7648264321687315,0.8065123293903056,0.848934592395671,0.8853878610881221,0.9125988675485381,0.9388162867107053,0.9581218122920561,0.9686168306035516,0.9563631199034077,0.9079190652391362,0.8401635441428352,0.7715515590234114,0.7071445087961845,0.6427293048974316,0.5745105573199714,0.5343965648085511,0.5782575316800338,0.646114440697678,0.714603020313342,0.7779740712465435,0.8428667619186276,0.9050707247283754,0.9647128537635985,0.9903130144523709,0.9753974696992422,0.9552403499846909,0.9248400319691028,0.9219641880631413,0.9445731095353043,0.9609633619364832,0.9629448871283308,0.9604450316843542,0.9534636324745305,0.9422768704483901,0.9316600116048162,0.9285219699112552,0.9182762614043116,0.9103088544510116,0.9082358645350139,0.9186567097193912,0.9344839254037001,0.9404267830919164,0.9242928136772577,0.8913866562158574,0.8420968557869593,0.7939435748246115,0.7556646849572222,0.771427953344195,0.8137446255114291,0.8552113634999019,0.8927613225680959,0.9232075370471882,0.9493309345648941,0.963083086229354,0.97000930376515,0.9534027878474838,0.904799451847415,0.838116521097348,0.7694067886645142,0.7014238678091722,0.6391209089554353,0.5720630488308907,0.5051515888366662,0.489191533384461,0.5441783703962926,0.6110541278758241,0.6795300745376112,0.7428829256096625,0.808407242955165,0.874825025887046,0.9371577907447819,0.992095248029931,1.0,0.9871551916617483,0.9587370354391616,0.9413716314791611,0.9544905760673228,0.9645215670480243,0.9711062783427542,0.9718027657936905,0.9738276734906361,0.9800697777496972,0.9804859664904315,0.9756905770715172,0.970147051481874,0.9613389764762863,0.9495302487691273,0.9556932085429151,0.9670783531907563,0.9638370716300007,0.9411304427987048,0.8990574413367918,0.8478723047373644,0.7995453882585883,0.7700691180512991,0.798089889738683,0.8407092134089007,0.8845516206472102,0.9220090389384943,0.9494363761738458,0.9735227263988826,0.9902876671345686,0.9891680801902449,No
0.764729862034785,0.7872350159913929,0.7875497929373622,0.7729744870374297,0.7600276968569649,0.7460492445015344,0.7465573137663827,0.7559903226827899,0.7684002785129432,0.7698083039273104,0.7811774679171003,0.7799285357745577,0.7849049520289785,0.7799088130502226,0.7768783909313371,0.7917119654328041,0.8017351994850629,0.7927623344656803,0.7884032439384602,0.7927792703186071,0.7888466075976567,0.7863818295812116,0.7985256499467458,0.8250511022366976,0.8219445677374412,0.7737081223806556,0.7123967050720342,0.6469637504041957,0.5778725018268628,0.515277406323175,0.4467594314062603,0.37662480509299245,0.3066777742829593,0.24230779416551973,0.17628044554493083,0.1065508049296503,0.046430144060476186,0.03179257406235492,0.08807229576915343,0.1579914686350975,0.22377188367319756,0.2883669677508677,0.3583447532867089,0.4284845172825603,0.4985004591776835,0.5635244415015902,0.6288662289678161,0.6989100662863948,0.769048791373448,0.838155652366947,0.8786112575703872,0.8471648847665841,0.814126605677623,0.7959169320790843,0.7766502076779119,0.7600564560031474,0.7424897139260757,0.7138562623379289,0.6749275745085291,0.6332293588324621,0.5955170190813887,0.5879082900197986,0.6229755577167398,0.6688086954924625,0.7191525963724196,0.7672362921446932,0.8080661791672595,0.8272615780968063,0.8378342171089631,0.8250001202342069,0.8064463326327306,0.7944098649991159,0.7864692680023718,0.7861986320736923,0.7937931581555672,0.7982800547844863,0.7982910872383896,0.8049635809610053,0.8076578384085277,0.8150087084631502,0.815600057143988,0.8092187730698744,0.7983727480284747,0.8012466129296677,0.7916320125888764,0.7775649002824115,0.7828073999088138,0.8138887335473869,0.832490019899447,0.8017884703108796,0.7429169522618183,0.6775609482671204,0.6084618331083526,0.5458595421037801,0.477358524399876,0.4072240222469904,0.33716425287112994,0.27154715628525594,0.20679245598985918,0.13680614768460908,0.06864730849807277,0.011267549153026302,0.0,0.05668817280997862,0.12461100516727985,0.18738598819305874,0.25681169741055354,0.3269507512715689,0.3970905152674197,0.46723027926327176,0.5373700432591227,0.6075098072549735,0.6776495712508256,0.7477884933581423,0.8171602585135099,0.8753583396103898,0.8756448463846976,0.8323740899907334,0.8038085266144769,0.7793441581204862,0.7606323726741598,0.7477105348776242,0.7296144560190331,0.6960896231591928,0.6561905298568357,0.613208257272324,0.566284071902203,0.529157559158787,0.5299133510978363,0.5686822255975371,0.6171719393767764,0.6662042344089157,0.7128056482853528,0.7537352816345174,0.7809051370242556,0.7972450924413635,0.8119587868456825,0.795376541669606,0.7756653686035354,0.7657777222674146,0.76696157644206,0.7879668876749591,0.7966885123912039,0.7964312727435899,0.8060016933656543,0.8264691307443074,0.8460740571852442,0.8372469336828915,0.8148292499766868,0.7984148116840158,0.7686303685849752,0.7263248266759396,0.679467962503911,0.6269375181605009,0.5773093625212905,0.5583436146400503,0.5917270604508341,0.6423076479022983,0.6843356712480752,0.7240836980484012,0.7557392113281362,0.7750863411451093,0.7909105068515673,0.8113217427190776,0.8371822862369626,0.8743707692559229,0.9257618032160778,0.9794097376711505,0.9999999999999999,0.9519277664724076,0.8890971549207131,0.8222693444821837,0.7521606519829612,0.6821664552504171,0.626564490989938,0.6499350646459993,0.7176613088737357,0.7806173836127729,0.8352420332766585,0.8591595229413321,0.8549805300177938,0.8250294969420987,0.8139394705509629,0.8189858762202505,0.828841985447274,0.8313950980689947,0.8432735168989672,0.8436631497871497,0.8431990522472416,0.8474268390399194,0.8405050029468321,0.835392268209434,0.8293128461153233,0.8217193798247425,0.8154421306254679,0.8107105575222683,0.8185903825055628,0.8323854433971113,0.8509654285695455,0.8666320665603203,0.8627485061425942,0.8523531865510273,0.8224581678434829,0.7795188106657326,0.7310821862931735,0.6798827069722956,0.6334994165153168,0.6341240558969833,0.6713429137774428,0.7148201688167811,0.7535089102014111,0.7780432967423535,0.7917394084283879,0.8107159096456639,0.8292689893332258,0.8494474674598061,0.8938931443322543,0.9455544791053941,0.9837426454570702,0.9583939440072783,0.8916358480524119,0.8215056311176688,0.7514174583100889,0.6851924060924778,0.6210132840143846,0.5572294318690155,0.5657593051328166,0.6271309536496269,0.696307242933034,0.7588696079261595,0.8176578657535455,0.851841087184383,0.8576449200600934,0.8378282227040849,0.8207571722627837,0.8220229488637861,0.8240408602127108,0.8202408363518171,0.8268654604284414,0.828285511766658,0.8157709363298143,0.8030129499966073,0.8152419323323833,0.8126061994432315,0.8116469429491745,0.8092537787281123,0.800101748339506,0.7929318857776274,0.7797149903232868,0.7729280377668825,0.7823091539896555,0.796864196782784,0.81066789773065,0.8189702835561153,0.8125109597006467,No
0.9141237228828527,0.8988971630095681,0.9009169532811514,0.9213137360775514,0.9342875669026167,0.9154749562723254,0.8586520882890238,0.8021290308798337,0.742218519766327,0.6817149011658816,0.6218722652826646,0.5653606799198607,0.50569772493087,0.4460432001573235,0.39319598981772846,0.33636542579926537,0.27975378429764763,0.21968831107574127,0.15920830761993995,0.10063801829552121,0.05363497759600567,0.07037267176596093,0.12810915076232138,0.18851114896715748,0.24621890540071473,0.30417694242430426,0.36426792854031026,0.4182778475033109,0.47468772731564235,0.5350330162827808,0.5927780014055668,0.6506982919950605,0.7111338461148496,0.771161847607154,0.8275748457047541,0.8754090898429704,0.884047625864157,0.8694726396612559,0.848920356504207,0.8215401486851308,0.7983843115049384,0.8128384715089992,0.8525633813265471,0.8830942359508243,0.8903430357903726,0.8907394884505315,0.8888918277159323,0.8875286747995456,0.8912912591365533,0.8907421547954792,0.8945969364656494,0.899210831081326,0.9024364680041899,0.8860241475461312,0.8906892226117328,0.9080065254332211,0.909465296758109,0.8668933167702734,0.8071329724476649,0.746859793264438,0.6898696989766993,0.6310998745736116,0.5706137585950033,0.5101154638951004,0.45086069418193053,0.39419840563220554,0.3340927354639987,0.27358613360856465,0.21313014042404982,0.15498106423221472,0.09745797703630416,0.03762871999261428,0.0,0.035764922803465264,0.0922424219316823,0.1510788110451448,0.21156676551139647,0.2720739929722702,0.33252196846561977,0.3905732915669951,0.448190540695673,0.5085943904978351,0.5691016179587088,0.6295904428019484,0.6884605689564561,0.7453790368609029,0.8053702444101136,0.8581285695398024,0.8770888921714171,0.8660484119563304,0.8490527822434866,0.823876572503073,0.796748567779365,0.7970438825365351,0.8305890751996918,0.8590197755098976,0.8730966456513649,0.8801489144537435,0.8831688462162245,0.8900862667922818,0.8966032220261477,0.9039165794343262,0.9010137699168762,0.8846416650544339,0.8947386540431841,0.9153459857897629,0.9170835956420671,0.8823522457573603,0.826314034931431,0.7674541939273724,0.7069656706926558,0.6466228125118707,0.5893675165245087,0.5309179293462823,0.47044524244503105,0.4099380149841572,0.34948991027815224,0.29144018900398666,0.2338224019027329,0.1734176174585924,0.1129672553913956,0.05491494801070621,0.0034393985768035873,0.00829159742406222,0.0642197245275472,0.12430221963568783,0.18096398165199287,0.24021993147718207,0.30071825702550803,0.3612254844863819,0.4217327119472557,0.4821341301379196,0.5397191942777407,0.5969174308738683,0.6496698165774909,0.7077503270494077,0.7668943848011002,0.8229937047149266,0.8639241192220903,0.8609933718833227,0.8445410499741836,0.8222590671216458,0.7945025644582508,0.7790526821937301,0.8052516336029811,0.8451194957257199,0.8734500125919497,0.8867834778452599,0.8985436114971445,0.8881279611130235,0.8597440469839974,0.8196629921642128,0.8017916376745181,0.8261070051906195,0.852120489187644,0.8685964190212438,0.8862886822173259,0.8889029713014452,0.8529333226410872,0.7970966889860409,0.7388613113426891,0.6825223393561185,0.6289634564779355,0.5727017217401543,0.5133181644156252,0.45282380216986073,0.39596932069476043,0.3950095778731909,0.4515073145043926,0.5120075079340421,0.572514735394916,0.6330219628557897,0.6935291903166636,0.7540364177775374,0.8144812775268274,0.8724945105049526,0.9298533406827275,0.9790260848441052,0.9718153516866572,0.9390516454695048,0.9227273810131505,0.9053610859539595,0.9156128922908505,0.9223543013022423,0.916973041127566,0.910810214841465,0.9046167854083556,0.8981193715967871,0.8969584597936621,0.889021178353381,0.8778436111967493,0.8510012076719938,0.8176958073292828,0.8235255640968056,0.851025631243993,0.8724626506815879,0.8877734784289103,0.8979571462877866,0.8997046630608958,0.8737249242169838,0.8192993037734254,0.7602463676870952,0.7035305305051687,0.6433904174619587,0.5828836997580782,0.522446060807125,0.4737274129172673,0.49861225346947746,0.5582143213634682,0.6187214328382601,0.6792268340846349,0.7391004830814607,0.7956232579700683,0.8552421525320545,0.9148813921772285,0.9691643665820906,0.9888755843822798,0.9516077102312394,0.9259894928049476,0.9088404715076874,0.9089579098475687,0.9209692344256319,0.9143820265904173,0.9087260992925411,0.9095048032213101,0.9062748579690009,0.9063125756134682,0.9078472027327078,0.9089860933782603,0.900811396326543,0.8686872794832056,0.8314476219072782,0.829152774913054,0.8565836692760916,0.8784258665523981,0.8954478579941898,0.9048264532238061,0.889880923303339,0.8413785879947686,0.7840838045772709,0.7237120851737928,0.6665592966708117,0.6621136488825027,0.7151062562344833,0.7754440328437338,0.8358541286272179,0.8935139018729719,0.9511071230415091,1.0,0.9938471482375613,0.9550380964428477,0.9384047515507764,0.9206710927126995,0.9218574221657776,0.9320214717237634,No
0.40817265529107205,0.4515179297535905,0.49462647621518063,0.41917576643426124,0.3249948036767365,0.2265218155364055,0.13087820341256773,0.050286425860049055,0.061417333736748514,0.14741252109238867,0.24506031126914607,0.337821731858748,0.42407954965859207,0.5166792509158862,0.6196209546885729,0.714178971809027,0.7931117568187043,0.8553319491133502,0.830067103992147,0.8040584571619585,0.7825024381926537,0.7491798354996684,0.7131344509289939,0.6599613323162203,0.5984583853711585,0.5342217841813537,0.4784609026116311,0.4648423111198887,0.5112593902432612,0.5821448091709152,0.6504323685047031,0.7158088653734844,0.7704823527352604,0.8034010673956304,0.7957991815295169,0.7824349121788066,0.7718032618087523,0.7793663856786051,0.7955565932629209,0.8040468335966198,0.8131105571375747,0.8214224689504248,0.8180685312470537,0.8045456736276617,0.8039560097156908,0.8176100134211408,0.8540493413590085,0.8529567440843815,0.7786002047923972,0.6925893968614738,0.6144051817584879,0.5189374063223688,0.4243860154040122,0.3261099219909622,0.22845378278465445,0.1430262661189432,0.13471187248373573,0.22473395876997126,0.3204197025761397,0.4175725143568907,0.5177144492588321,0.6110036791461178,0.7132089773536312,0.8112826033939862,0.880073787012889,0.8560511088790754,0.8274616232100378,0.8092553998229208,0.7877601311313591,0.7566492638684319,0.7022385900035455,0.640774119379758,0.5793673307673552,0.5351964373336826,0.5371743083494565,0.595897556349593,0.6652740502090642,0.7333500568653206,0.7858873478717721,0.8143115930807889,0.8158537320668215,0.8094792449011368,0.8015915565982255,0.8116786388865629,0.826435335762945,0.838739303337539,0.8396799851039192,0.8454761036753733,0.8276665936650098,0.8057394762657908,0.812284439595095,0.844373517613433,0.8602522694245978,0.8336982740231287,0.7476151470704355,0.6525436230204908,0.5551447799697624,0.4551847093590853,0.36177502864660194,0.25976593238358725,0.1647872338031684,0.06896154580071712,0.0,0.033936681931169055,0.13243100430885213,0.23561120578592054,0.3370713188114527,0.4299535000685326,0.5314016300514877,0.6333374374204515,0.7263365898538621,0.8255169277699972,0.8724210364633556,0.8437293937736832,0.81653143071116,0.7885164759780112,0.7615806276097485,0.7181524904823444,0.6586055081338373,0.5954522447720634,0.5364504319289072,0.481226780436093,0.48306098318928625,0.5406326733936586,0.6087588463576004,0.6742412687886126,0.7328753915799915,0.7883073774435889,0.7923130136355803,0.7803853792281568,0.7609167404883661,0.7663174835153632,0.7949294842954266,0.8050250376621886,0.8095291759032461,0.8278940505950381,0.8497675168330749,0.8462349056305976,0.8359286046692347,0.8068401233015257,0.802316094745553,0.8285262958670332,0.8373997607409915,0.83343159698736,0.8011927388849385,0.7421608515533231,0.6844879381900579,0.6107795599310983,0.5433706471365833,0.5359012653802839,0.5960279316169954,0.6601032848600425,0.720009371785975,0.7745333072918985,0.8083385166639068,0.8321827566652575,0.8591824193366415,0.8937614197543113,0.95346253087894,1.0,0.9486171116203028,0.8473813344515397,0.7490595025073161,0.6543524904782769,0.5515740874752959,0.4560222290908833,0.4494166985702852,0.5354189867778114,0.6340393083000664,0.7280325249285493,0.8230019389036056,0.9018264553098958,0.9100377577055836,0.8957334346133803,0.8628058691883616,0.8533621389170389,0.8682998860617408,0.8854450247433925,0.8789115830045651,0.8769654206606154,0.8773894754084344,0.8612069595059091,0.8484601925613156,0.8424169579061171,0.8532885019669902,0.8585790922260648,0.8492293475355881,0.8141554328211034,0.7656543451749558,0.697706663141453,0.6222181641775983,0.5790839557690939,0.6122570961957186,0.6795278308622459,0.7388791835442414,0.7935371294850411,0.8214780906084442,0.8418888927751791,0.862770344713073,0.8937776750263153,0.9545517637628853,0.9963353771140224,0.9460098840077888,0.8482656978295164,0.745280699890114,0.6491611729732916,0.5523914065061013,0.4510193470162813,0.4142958003168342,0.4931631786069979,0.5912166146020916,0.6843949266597158,0.78080697108199,0.8704916981014228,0.9256581369812147,0.9068738445796689,0.8895963673362814,0.8526549996752726,0.847755885312055,0.8648868550916604,0.8633960178900719,0.8539517316648118,0.844790979216405,0.8408618745955261,0.8284790019135886,0.8180096329362128,0.8223251569314343,0.8335879645441593,0.8427574022743936,0.8214057488480568,0.7749948541794702,0.7166224749169237,0.6450113611315729,0.5740808670493256,0.5222608383080272,0.540233188451174,0.60443488460306,0.6683280330819321,0.7229243566409091,0.7686513257344116,0.8009795494672693,0.8292940431400635,0.852718109324027,0.8892194594496736,0.9505514281353218,0.9552126544855324,0.8747330480697841,0.7805216531158852,0.6784918842970993,0.6005507497063722,0.62877640724277,0.7215535325142906,0.8126788404002743,0.8879194420177896,0.8881146305405485,No
0.9660403825721278,0.9533719547909525,0.9235300059789626,0.9284100476084218,0.9487394482523344,0.9411431118135696,0.8941196454906191,0.8156493914205944,0.7356420232900771,0.6523340147168848,0.5737212446685105,0.4889517749724448,0.4041347406808309,0.32550906336249463,0.24204196753035312,0.15671588754250831,0.07655063247824923,0.00814023439212408,0.028405398473391075,0.10385579722548721,0.1875971888827801,0.27077684363502574,0.3495800880948201,0.4345031540658233,0.5194803912849388,0.5983408542564388,0.681343843684219,0.7625004503918111,0.8318968335716215,0.8810058837105543,0.8851121779089264,0.861076053675226,0.8271954033328399,0.7773564613448387,0.7244254147919791,0.6680106768649883,0.6244378189931956,0.6392360242964603,0.7022832388816327,0.7676216369141413,0.8288125204999761,0.8765478001721261,0.8915073016745194,0.8837785211618163,0.8704878004306029,0.8662383175136925,0.8697008311876913,0.8752899853755458,0.8829400224119752,0.8860952922802103,0.8894044933243688,0.8938714680642776,0.8816434355509497,0.8750887386671342,0.901230146290583,0.924411663733784,0.9233764169796694,0.8630639226832555,0.7842218320923156,0.7010634674825926,0.6224655439811599,0.5377238244092257,0.4545307031723065,0.3757392645258091,0.2908151192831552,0.20666748176929206,0.12826019995805837,0.04570421190693896,0.0,0.0539238210383548,0.1387759520562477,0.22030609963370784,0.300424352549709,0.3856952067127779,0.4676668028185478,0.5473860691206647,0.6321829510683667,0.7111921792739715,0.7891488395386628,0.8492846563346721,0.8783945074023667,0.8631246264530132,0.8311929539296006,0.7917826466366122,0.7386182592189421,0.6825086856260034,0.6296419556147903,0.602614866091939,0.6398416381850607,0.703336497286714,0.7720824883113513,0.8303809359079968,0.8659945141779031,0.8741002291975188,0.864212559318492,0.8565455983373231,0.8577728735497114,0.8654716865585887,0.8735747062796138,0.8819642495721711,0.8877261356161263,0.8955411810716998,0.895563458468305,0.8762614289493875,0.8837600458684267,0.9172887430638039,0.9383227949905757,0.9263388776116637,0.860728581268495,0.7804480487060081,0.70074414831929,0.6159397718199671,0.5368660323941072,0.4540946106162531,0.36864658576086407,0.28669179542340695,0.20695306491621224,0.12197849634768354,0.047701875360558366,0.037425935249028375,0.10883333772979864,0.18734369050303756,0.2708265530649633,0.35620514387189295,0.4341343170093832,0.5085322236921181,0.5933028369494173,0.673095458553975,0.7539095374632852,0.8266863246621707,0.8796560136690255,0.8924509354417387,0.8700518866059574,0.8372736827968574,0.7968968101023437,0.7407627036255653,0.6856466324025936,0.6348963006346697,0.6294539285268279,0.682422336906136,0.7372555751364529,0.7907266859761637,0.8399834681953613,0.8763244784434308,0.9067845939473373,0.9224556103984998,0.9090877338080545,0.8592958944921942,0.7869847196081878,0.7091056770080779,0.6277099722415185,0.543019177431018,0.47220126381085215,0.4869564594796598,0.5675686102722819,0.6460622570277805,0.7305056490648894,0.8104648505807674,0.8907332197504039,0.9642155351624067,0.990516527252201,0.9676514592952423,0.9525990902074524,0.9258358663463564,0.90904150912544,0.9243804905974897,0.921078031501781,0.9167148964535048,0.9069383315375446,0.8987507244557129,0.891054521192219,0.8823787618059358,0.888941878341825,0.8934687692897141,0.898351360105226,0.8958796035476952,0.8776602021943063,0.8295622287926239,0.7660080091555113,0.7010759029696179,0.6477005722814366,0.6691318727589974,0.7243659008525718,0.7793430008305724,0.8270064674442013,0.8636771551833813,0.8931823468992277,0.9061998822960375,0.8858192352177439,0.8379020079847366,0.7663851065664262,0.6818939413530611,0.5972510137380032,0.518766325785617,0.43498836620934256,0.3499217317821701,0.29855995676922387,0.35755220335621707,0.4403993830219166,0.5192518898084182,0.6042196380231672,0.6882938152670737,0.7667125659588334,0.8498404958584964,0.9261963596503244,0.9816338521419299,0.965653737852795,0.9525221651677493,0.928730082983126,0.9080473034949788,0.9163687242448584,0.9180680315148968,0.9172698078689208,0.9101869663262052,0.9054769368032629,0.9001291608855275,0.8925029840167147,0.8934468559963469,0.9042922412089562,0.915050544854155,0.9160545567227134,0.8955352636260017,0.8488594765548167,0.7849957597709911,0.7159206352069916,0.66613474612757,0.6882529323285669,0.7456840066308588,0.7992366987518975,0.8466559516190841,0.8822805566240659,0.9092280355725397,0.9211600392138677,0.901449628568566,0.8541597501166096,0.7847592441469757,0.7043050306841474,0.6258660316506526,0.5421399872898633,0.4570518052100614,0.40491834554806183,0.4632919738129455,0.5485469892036234,0.6318113506148348,0.710564137219931,0.7948837624545653,0.8736391133309094,0.9511865799103494,1.0,0.9867676196356652,0.9819252747155882,0.9644197247694557,0.9531380119717303,0.9821261602940035,0.9964691795250211,No
0.9207966931740282,0.9242338602529722,0.9246874290254031,0.9264410191127846,0.9314327542832775,0.9298143018176147,0.9187120863266506,0.9057441125677413,0.9304987548977802,0.953295343210215,0.962548350836305,0.9406152866399012,0.876837199010508,0.8041863282272076,0.7298061056366053,0.6557062339868899,0.5867334264277663,0.5152618773569805,0.44090732035738534,0.3671147068714671,0.29886609079907855,0.22641239664135004,0.15519415594710884,0.10995792055123121,0.14357760889319426,0.21343383728790088,0.28231945733238406,0.356399604930847,0.4306162180554076,0.49856739983834963,0.5567917104267616,0.6279973757919061,0.7017361947403397,0.7699591746663194,0.842177779625282,0.9023609213542098,0.9227231344068586,0.9094727669437469,0.8922900708847584,0.8685404550016446,0.835064943713311,0.8097745481476767,0.8088803756515025,0.846735931428869,0.8942421500920722,0.9311232756072026,0.9364521348486915,0.9236136557243152,0.9100765804081933,0.9076112979738123,0.913845078201677,0.9146948940711784,0.9150437415552145,0.9155791225322062,0.9111853302717744,0.8909581214375909,0.887819013675906,0.9143224002134268,0.9305909742873063,0.932402986645502,0.8924899990590159,0.8257593489372715,0.7528745033597096,0.684766989773779,0.6119919757588609,0.5399621483869556,0.4855630713662059,0.4363544821994142,0.38676545536423335,0.3369274981308604,0.2803036515837213,0.2122066083361266,0.138155297669865,0.06883726888838804,0.043172687258307474,0.10049498540707458,0.17406905367126635,0.2422727352093469,0.3148511013821311,0.3892089187629034,0.46112271210585976,0.5297486252499298,0.6037406298119367,0.6774372723758101,0.7455862133734298,0.816838469851841,0.8719579029051449,0.8940259288407476,0.9105276546630577,0.9069840183203911,0.8800047817768989,0.845600312323144,0.8152451811019098,0.8152741744010269,0.8559339147237816,0.9074186148321851,0.947124235089846,0.9589750966180829,0.9471925599841889,0.9331416533599014,0.9316276825033895,0.9426469336142892,0.9452842538587404,0.9482660916557014,0.9530370679320105,0.9368391139534488,0.9011496810009297,0.8928270124178806,0.9187212960657914,0.9399538820219328,0.9305211016515583,0.8826993434426179,0.8155429761465619,0.7460619822373015,0.6758843861453222,0.6016222544872184,0.5296559238966257,0.4610721858312419,0.3870921115214302,0.31292902459483907,0.24367226289497357,0.1725363722611255,0.09915111207344907,0.032349489589463376,0.0,0.052926914761553756,0.12037124037553948,0.1851140307572936,0.2510807235380732,0.32475483506817526,0.3932041908698929,0.4653687911143456,0.5397127409299197,0.6113218577693712,0.6801065030924175,0.7503617575793534,0.8136567974666545,0.8552406660307265,0.8692183057425104,0.8909574569557389,0.9181694231501479,0.9102124659251002,0.8905596920233417,0.9236370386638092,0.951173443717633,0.9423108863765329,0.9134787045508724,0.892994369820656,0.8849323990885466,0.8512554471284207,0.796673793009775,0.7284497021760378,0.6573423717001593,0.5883206939653819,0.5142730612457164,0.4458528808210408,0.43451578306259164,0.4890025937121033,0.5604991099084365,0.6348756669946521,0.7091203915373264,0.7789238975188167,0.8475684931247406,0.9144011996015121,0.9645111377238206,0.969582064722102,0.9699005249219322,0.9407571733754557,0.9237787877486047,0.952751707008772,0.9767842966187797,0.9808789929924734,0.9790443386360187,0.972941485960772,0.9677694864508485,0.9616365413468589,0.959663415704234,0.9706280252569573,0.9844336052018706,0.9859268233903901,0.9691063278123221,0.9271310302452546,0.8754733059948366,0.8431140933226552,0.8636074713680088,0.8987426275338365,0.925981573474805,0.9416364009263899,0.9346489985500103,0.923911461534812,0.9015353436526327,0.8562649360427977,0.786841158303715,0.7125243990164593,0.6381662735503962,0.571032143340603,0.5774990048308398,0.6478833459040126,0.7213088706289036,0.78931966775212,0.8617314854517028,0.9292605435937632,0.9838391402106826,0.976536153328532,0.9574494228109468,0.9468129187288344,0.9219666388944944,0.921817941250965,0.93736969537872,0.9412176788040522,0.9447373126510871,0.9447997921281671,0.9377365816427753,0.9338802957864919,0.9348375207902376,0.9506713948522151,0.9645716652721114,0.9639030641327432,0.9345751466548745,0.8903291832276025,0.8468832164000849,0.8403187078838653,0.8698775188542499,0.9001451104098411,0.9210641695732046,0.9390947188522515,0.9474389571236607,0.9315813705149208,0.8810793297502909,0.8142612954847089,0.7464988156373241,0.6736814462633282,0.6075786567162363,0.5492908423865127,0.4774668636404824,0.4485489066713837,0.5102265433460601,0.5843516438775397,0.6537003124577939,0.724718744403312,0.7970536905979692,0.8652236117567446,0.9342823486745283,0.9934555911186597,0.9999999999999999,0.9843660283585675,0.9732125922009683,0.9447962303227072,0.9360144469555131,0.9560928542893182,0.959253181675429,0.9554212933122525,0.954379907756986,0.9494193065941215,0.9468580461750161,No
0.29076004515529075,0.33651502088290886,0.41376856571929554,0.46583764762564717,0.47016792819036723,0.4625923435073307,0.49881995246251387,0.5382047296925121,0.6031400525477268,0.6490954691604314,0.6656458393171603,0.6522558601859161,0.6276052807158372,0.6385108842179248,0.6562581017221132,0.6402478625125481,0.6304649051334237,0.6619887878134358,0.6782827477588134,0.6329738895554753,0.543224433125781,0.4506815905708388,0.35543537764397914,0.26196430599276566,0.1647632571283304,0.07142465025703681,0.0,0.03836264138574763,0.13473534275521848,0.23032969381722723,0.326585765501997,0.4272628696987435,0.5198636394604588,0.6196362130446862,0.712830677442494,0.8048348027955865,0.8061678178632565,0.734423666996666,0.6731554388837986,0.6354266680064624,0.5990857740976616,0.5605393405396715,0.5035557974468978,0.44790933282272616,0.4169528926100994,0.44465878316204366,0.5082488659589948,0.574216840353063,0.6352212465369114,0.6654612175467385,0.6677100980792585,0.6539582310607637,0.6568614965608859,0.6557383650395217,0.6370752338535977,0.6440922225769405,0.6764563830363084,0.7004471250905913,0.6519597706719469,0.5629992210380896,0.47174422886166,0.37431393601914076,0.28170991180416105,0.1813475706468104,0.08811192372929622,0.014278521847571168,0.0483955760692949,0.14047289213088865,0.23326982183035727,0.311569764962057,0.4077354008151022,0.4934722461075953,0.5748673873513037,0.6755001843320025,0.769259307250199,0.8465201472780732,0.8110919327061707,0.7417531991259012,0.7025091596177955,0.673506303158816,0.6299059881564775,0.5801383085818927,0.5304482359840907,0.48709554762815044,0.4731750270278352,0.5174928483181134,0.5778568173998369,0.6376988988388823,0.6706000750654635,0.6832638211909585,0.6782124896046775,0.6816589952654635,0.6856822463174468,0.6687931403822338,0.6464520360498573,0.6522322477444265,0.6747773325913391,0.6650105378279689,0.5908566996965763,0.4988698270046168,0.4054944133493896,0.30830873685113724,0.21415500760457684,0.11776707248033302,0.036001140981959834,0.04373512379363631,0.1330492612400196,0.23005200057294184,0.3247539908919388,0.4247792200461442,0.5022756578922611,0.5827539303502531,0.6609077085318251,0.7466542930614031,0.734358363693624,0.6671480842512194,0.6166311044759007,0.5740515047499146,0.5315053599657649,0.48417306538601035,0.42838650187251526,0.37988150145032007,0.364339173153823,0.4029650955702935,0.4638583656895896,0.5268817017445095,0.57906037213206,0.6223992522911606,0.6443804822548218,0.6459338768703669,0.6538990331982908,0.6704858419834738,0.6600996620381827,0.6389578765885373,0.6542949339866286,0.6945646716026759,0.6992644233071097,0.6842841284438186,0.6976948468489592,0.7031647086043091,0.6944699372755885,0.6787426792132227,0.6856527926502616,0.676027694273579,0.6425979227826577,0.5954007692741174,0.537916063188502,0.47839094639367596,0.42011003803563285,0.41313691236251726,0.45799265158220126,0.5127241975215671,0.5622176945065713,0.6042647432112651,0.649631790862685,0.6960402434866682,0.7694131915729017,0.8561276385585121,0.8998950572617264,0.8426751652255335,0.7482205960761701,0.6554866145953091,0.5571485224198218,0.4645622940317584,0.3725119911513104,0.38565775075389497,0.4818747527445866,0.5724878764226782,0.658818314603606,0.7193371856126771,0.7186582044522027,0.697750882459538,0.6884546948825365,0.710444078612674,0.7240746913186689,0.7192802289580174,0.7164145904911305,0.7162262232278347,0.707261341312512,0.6704865542482135,0.6169427262912834,0.5566491198964765,0.5216017420407364,0.5544992614052022,0.603326777960707,0.6548481625975398,0.6983688069549103,0.7344025681604012,0.76575656350201,0.8376893714314035,0.9200059291465461,0.9935271186347481,0.9805935410276256,0.8964431186772059,0.800277184902789,0.7063477391838622,0.604489568173979,0.5022154419548275,0.4136682693426701,0.44051749240111526,0.5332984283499984,0.6244372724765181,0.7103278729114573,0.7473238149398513,0.7304470101904479,0.6975907899351181,0.6764278639745451,0.6915655668879217,0.69354029764447,0.6933204868038585,0.7025358369201302,0.7029322237772702,0.6924795242370791,0.6516352262027123,0.5902885565148805,0.5256940600565905,0.4671525862247339,0.4774538858468531,0.5314710331621009,0.5895445573997335,0.6283023229828375,0.6637383837654749,0.7014362830138969,0.7603808980151952,0.8462840768490838,0.9335259804593714,1.0,0.9706415445309959,0.8829515083046169,0.786063887465374,0.6920301247112057,0.590743508947805,0.49721786366206455,0.4086505791715065,0.42865520645978017,0.5228907212683045,0.6139071642654423,0.6924994064779648,0.7220540873294774,0.7101024945784955,0.6824455869435035,0.6829219905151982,0.6993646912284288,0.6861551924762681,0.6707231219566698,0.6925325886437261,0.7027511869938858,0.6916983004784623,0.6533185210725438,0.5939615818074877,0.5387934310461069,0.5140243396486737,0.5550273149493887,0.6064535954385466,0.6474493355441591,No
0.6362934694701539,0.670917407604503,0.7031074359258505,0.6721376149644243,0.6158155166889776,0.5549438412016989,0.4926382097744934,0.4323709309945794,0.37374887044082933,0.3116125685381656,0.2492671779445106,0.1874090738155093,0.1293420634870847,0.06836314497648277,0.017315676091881366,0.03518118184999566,0.09142118371935093,0.15196240121788446,0.2142898042296812,0.2766250026680038,0.3375288576734033,0.39569061654866483,0.4576330896441421,0.5199788680641508,0.5821473007736664,0.6301557016280237,0.6414131307959223,0.6626677348064083,0.6947310843326309,0.6992204703272904,0.6979562664761065,0.7375030111862384,0.7751420711078114,0.8352489199074593,0.8911372973004059,0.8858739715305406,0.8467866136523654,0.8309805861322099,0.8185599056928892,0.7936933319869568,0.7640480670548284,0.7457266433033518,0.7625760183808656,0.7869753437787912,0.7925158358345881,0.788009921390465,0.7843503815884427,0.7864846890270663,0.7878738661669937,0.7883782022139147,0.7916603170481962,0.7820358320827752,0.7600297731574435,0.7668658637095711,0.7816246885686704,0.7419926592804893,0.6807878878079363,0.6218620799180914,0.5619483505353691,0.4996733481327386,0.43933285372507475,0.38077237455861496,0.3186505353336611,0.2564677650017644,0.1976365650793795,0.13761405472619037,0.07537763952993004,0.01877004305852925,0.0,0.04385522953717791,0.10272813404727504,0.1649530111363972,0.22729936206263707,0.2896457129888762,0.351992063915116,0.4143384148413551,0.47668476576759494,0.5390311166938342,0.6013728741049016,0.6627208821741728,0.7206828296272916,0.7823755516036572,0.8443509741494202,0.8844397127995387,0.8561602373739463,0.8213993146332723,0.8075032373559277,0.8033046463039764,0.7811358512042998,0.7498350509557763,0.7413265904413364,0.7664055805629719,0.7870413307830433,0.7951014000442662,0.7888377561642286,0.7828741075786003,0.7880214479071672,0.7918391231743946,0.7949112884380689,0.7942310523022178,0.7759607342322188,0.7822284579590666,0.7971242769953077,0.7561484242087946,0.6971783876198747,0.6349518863414738,0.5744388122398252,0.5160091991483013,0.45393561323187664,0.3916021047250457,0.3307808139653475,0.2725687616869876,0.2105926540398234,0.14840148269408565,0.08957437335316298,0.03799832907017017,0.04451383830890718,0.09649906591273355,0.15653695063072254,0.21503538647441617,0.27713394846085543,0.33948013944189154,0.4018264903681306,0.464172385314262,0.526154822959368,0.5843749573816999,0.6451821844857544,0.7075155542025999,0.7698618288172321,0.8320116607274208,0.8891077056528292,0.9065472216249912,0.8702584911373445,0.8345260302807933,0.8196666412040599,0.8172729401716008,0.8012475578356617,0.77095962770682,0.7564331948821286,0.775844799356771,0.7999663537160067,0.8098469251568243,0.8088615902646232,0.8038416726552071,0.8029296626170885,0.8096029683059278,0.8125543387801815,0.8139319542972121,0.7959953983479722,0.7841279640077872,0.807049536805029,0.838949585856356,0.8574673074756147,0.831158594223389,0.8084155643421098,0.8226522813892765,0.8374816478529814,0.8340935130879659,0.8359713684291274,0.8284070056470176,0.8256339126259602,0.8326999574197851,0.8333260990541635,0.8286486498043759,0.8100963771373921,0.7850026020775338,0.7932002971427496,0.8226674514322863,0.836934139559715,0.8433493785918542,0.8629940873408524,0.9103834640886177,0.9648405928456718,1.0,0.9711266222554837,0.9134537812959276,0.8549342623329335,0.7928239980259759,0.7305321935809201,0.6720807330806142,0.6554048349083028,0.7084063982979398,0.7678486144918006,0.8221763600131531,0.8359977075639295,0.8106199914018635,0.7991336025691449,0.8163637727084798,0.8163060582788839,0.8119959896253464,0.8079570884266523,0.803982148673376,0.8085719064351373,0.8156685403670387,0.8094129628183064,0.7929513338991669,0.7666223296260821,0.7678649608003631,0.7997910430785629,0.8237410044691693,0.8271360303666788,0.8355480014058418,0.870111509243146,0.9231645771285093,0.9723864926765169,0.9698465697509564,0.9167604660253812,0.8560791782122155,0.7939522638646932,0.7353038112878201,0.675067910634084,0.6127519444139125,0.5504055934876746,0.48817395278188874,0.44085190050873174,0.46849874095138927,0.5279108964953099,0.5902145603209823,0.6519123000160563,0.7098751312676623,0.7706013174954844,0.8216688678446584,0.8222829513861101,0.7932756686419502,0.7892807810416385,0.8079783285057498,0.8112593507405348,0.8090849531485791,0.8072216447766354,0.8057493158458249,0.8115306707364156,0.8140365562094041,0.8105037663775005,0.7953979953105725,0.7696012982798413,0.782728741695522,0.8135223476571221,0.8360248813858684,0.8489644265593859,0.8660413611543025,0.9107509203978179,0.9647830643546307,0.9936928583763818,0.9581813669522055,0.8998324530493353,0.8401431685228808,0.7811084689716694,0.7194782795164745,0.6698311801222128,0.6757091405279656,0.7321576169468003,0.7919631533935867,0.8389043278746489,0.8314235940834902,0.8029702687889462,No
0.6787439346515955,0.6135954071771047,0.541915885487539,0.4717211167060279,0.4046669194064908,0.33343755623846205,0.2617231180785028,0.19025992283814067,0.12272527965782223,0.053533558330863235,0.0,0.026760850325439067,0.09473340984950276,0.1630909027506415,0.23163567422271522,0.30326444301854605,0.37494674652420046,0.44436246517481137,0.5119662323962341,0.583446202082046,0.6550588663659616,0.7198065414832903,0.7291928490577578,0.7191422527699862,0.7597983090513521,0.8197155797426502,0.880296019155853,0.8909769980070722,0.8681300912104318,0.843102903633632,0.8045247723412213,0.7595057254153497,0.7182297184950728,0.6962736895806981,0.7285422990190367,0.7824382037642219,0.8381478779046213,0.8920439536550847,0.9343106326917779,0.9396199646619051,0.9210147662919376,0.914461692384923,0.9190490076509669,0.9299914926161755,0.9371368347666126,0.9263398241382984,0.9237167703550878,0.9346595261544589,0.92800447976124,0.9197386085337368,0.9158746146231315,0.9408514378720118,0.933411682097535,0.8721136442755154,0.8050035694844876,0.7350840968192571,0.6633858451591464,0.5918195590552017,0.5237979195115414,0.454861802689038,0.3832041127642092,0.31149057386689816,0.24048036754811955,0.1735839616316023,0.10418781084264819,0.04964383020663246,0.048616463778584224,0.11155010934712581,0.17879472594416648,0.2485944103626753,0.3202896020403938,0.3919798613230565,0.4616151532441578,0.5288978367916366,0.5944095961704575,0.6590490408883709,0.7279573525926535,0.7957512998583675,0.8654342061534145,0.9258355713861591,0.9313701309029306,0.9092366946065565,0.8801444554597139,0.8406987832252114,0.7907935653524641,0.7398511831676133,0.6939431990928928,0.6639841687992155,0.6866872723237537,0.7406609451409878,0.7957029702502966,0.848791157790247,0.8909764088666529,0.908784890237533,0.9102513499749941,0.9127075187843895,0.9088225401830835,0.888662188148769,0.8895582945708839,0.8856951621014778,0.8835321122590424,0.884769286307559,0.8841736726292612,0.8728363821428374,0.8942569516257789,0.9122163378897045,0.8660452826968869,0.7993058061816959,0.7282378477237889,0.6608667992821763,0.5911512116371437,0.5194577700436774,0.44774256173318483,0.3760273534226921,0.3043121451121994,0.23259693680170676,0.16092650266076045,0.09323156799058721,0.037628082577267546,0.019698324747217916,0.07460963221272723,0.1439906510788995,0.21540024818749906,0.2828704127706281,0.35245425932782515,0.42414307207366786,0.49579409042107203,0.5634031288431377,0.6220071636567788,0.6909795604954957,0.761834196619134,0.8285976792300324,0.891621822816237,0.9065757022604485,0.8856366673897921,0.8569293640418835,0.8174868009843544,0.7712386424154801,0.7211479386095498,0.6798766950641952,0.6785662449165405,0.7225552419674699,0.7755240771553474,0.8318741998708338,0.8859769911911756,0.9191735499460713,0.9275535228289805,0.941384361100584,0.941957297719673,0.9195024303259199,0.8746465670278717,0.8203010107969096,0.7656227450081626,0.7144965161015101,0.7059423217261954,0.7485919850393066,0.7995375702657231,0.8445680291587349,0.8800999038763416,0.9070359546813455,0.9331574992753896,0.9687922515892627,0.9527207491009039,0.8901800728890262,0.822570735128633,0.7543638571364649,0.6837787489881529,0.6169197240937055,0.5460145672595486,0.4743131970070683,0.4082130750719256,0.41262959333688987,0.47599166253633707,0.5469619231399285,0.618656694811003,0.6885031683266303,0.7557793820136935,0.8266936635909877,0.8936716899019795,0.9499611146107713,0.9434137627855866,0.9145200698780508,0.9020936870453716,0.907993841478958,0.9004053222085094,0.9004165729758898,0.9052786868976112,0.907178052550797,0.9242791774771743,0.9356016301635927,0.9299566911287299,0.9285285395257047,0.9257763025746447,0.9095986527571674,0.8707809317339276,0.8187665010553579,0.760309116103362,0.708170034106351,0.6962642816178982,0.7389618748301923,0.7885813926448837,0.8378941746491596,0.882285569837235,0.9148744510522836,0.9387074684811202,0.9755985932754127,0.9999999999999999,0.9542875749079868,0.8886386524721245,0.8186237616981199,0.7512167159014599,0.6815652703547277,0.6098744607258615,0.5384131060214411,0.4901999627636253,0.5337562992765629,0.6039185010311126,0.6708127553310371,0.7418328589215085,0.8129022753695733,0.8798066397045102,0.9479520446650663,0.9924318901715298,0.9773809197979783,0.9490036829156384,0.9389447363991988,0.9493843348411989,0.9554114461848303,0.9481478848219492,0.9448458674256363,0.956338927833586,0.9521227277689804,0.9459701399527151,0.9351947669688335,0.94084613552014,0.9619875127870853,0.9628591817237439,0.9313304815451705,0.8824499048548248,0.8274486692104576,0.7697457436490291,0.7256392986666709,0.7429977423875143,0.7873177066937235,0.8313410592050453,0.8665359555163997,0.8901665929793073,0.9154100760309406,0.9526098845225824,0.9305492337961828,0.8683005674211396,0.8141323395360728,0.8147911425012268,0.8790345047342126,0.9368974672382718,No
0.46721482270921844,0.5127737511419183,0.5779013295867416,0.6162759347256807,0.6229517483159094,0.6384619039748526,0.6674401863930762,0.705153526937529,0.7228134317411207,0.7437947582915031,0.7470913453090039,0.7445154120686318,0.7455035941558762,0.7231429325148139,0.7016199268642945,0.7187405733694846,0.7522967829092898,0.7660023038128464,0.7080209434724439,0.625304844520658,0.5422715735957043,0.45419004243062855,0.3691385621770008,0.28296892819384,0.19491767256059223,0.11196175186057211,0.0449419114670796,0.0763255169747118,0.16032252048046003,0.24502703426879047,0.33540450621092954,0.4257245184946573,0.510142528816916,0.5970485191931362,0.6875534671330626,0.7739708437088922,0.8313917109643582,0.8047925598923408,0.7763394059816301,0.7593128192885373,0.7470323869539851,0.7107684964183979,0.6707188632019915,0.6521775375152753,0.6776240033957935,0.7166221247226071,0.7406073617011836,0.7310280292428274,0.7578408522119763,0.7636415215265876,0.7450135290012799,0.7526903606215943,0.7367502162636966,0.7104432838606184,0.7074945097329907,0.7300160923849702,0.7665352901972541,0.7802402560139244,0.7294278794898458,0.6439718289654565,0.560370848034463,0.47101550006974124,0.3876512449359967,0.29967390902304725,0.21552345826018826,0.12915626746459952,0.04801086691402834,0.016147925053763834,0.08029184966030523,0.1670108466818202,0.2571637694797023,0.3411511943818514,0.4285863180475643,0.5191675536723418,0.6085178318584991,0.6915897539336534,0.7806881034156498,0.8566674025195274,0.8414667844789473,0.7955595469395677,0.7703245547567942,0.7623005358595417,0.737455435230063,0.7012481584867228,0.6760129855920346,0.6919978087919186,0.7280963146294944,0.7575783249981719,0.7611179373034315,0.7616714851918794,0.7616852040860468,0.7543355065623171,0.7592465978931137,0.7329542717096865,0.7055505761870066,0.7254621073408068,0.7563960230094792,0.7720088992285014,0.7176780838903382,0.6360096835649213,0.5502927368665956,0.4658010455938396,0.37671951571526663,0.2936702461629902,0.20460531228510248,0.11892754000905692,0.03625057921219643,0.0,0.06082743401208501,0.14485794493932336,0.2311155005828297,0.32164922574388266,0.412265442282313,0.5028816588207444,0.5934978753591763,0.6840937895247331,0.7719706212815588,0.8430440809029253,0.8280839084665527,0.7831062393678544,0.7584391000176848,0.7350036207476512,0.7081872124978924,0.6626567241533642,0.6217108079501928,0.6296664356011151,0.6656380433769206,0.711834939864806,0.7443126627007947,0.7583174049261926,0.7531151501394205,0.7451547181689483,0.7432401831160643,0.7427635331893393,0.7084089391517975,0.7172334935458339,0.7595830554590778,0.7846756596933143,0.7836701473616906,0.7866652060473486,0.7940886423375538,0.7870297882086411,0.7745195916476543,0.744978519561481,0.6996104257248671,0.668117204851928,0.6858393148459977,0.7291030280542373,0.7610430851310283,0.7856004325826297,0.8104820178166096,0.8522202067629049,0.9200453956980122,0.9822920344581981,0.9583823303511115,0.8767839044665219,0.7937914299931738,0.7042841884616836,0.616424266365852,0.5327559804055119,0.44271491262671325,0.3643039542018266,0.38562076942820134,0.46929709272970077,0.5465015542971506,0.6213287735712935,0.7076869508019378,0.7839280051660026,0.8142996226449642,0.8048333141777367,0.7761243030462471,0.7701963182942165,0.7998336005979733,0.807319656460114,0.8071736358477718,0.8145327216577908,0.8099125319228712,0.7892203240760239,0.7571575942077192,0.721782728134824,0.7203078761392413,0.7506450528278089,0.7812941714995333,0.8065828875113402,0.8225244404256568,0.855790602707012,0.9204385955751134,0.9919637561632001,1.0,0.9293525633089844,0.8535413311266741,0.773466572265782,0.6905365205460409,0.6009766982407388,0.5103712938039172,0.42167141234018246,0.3403074720832856,0.31257516956103626,0.39011184254698217,0.48068008246512417,0.5712625231476,0.6574114426048249,0.7269766764119291,0.7994187129305917,0.8383314002867225,0.8182694202354052,0.7860391258095608,0.7585718112339545,0.7764516775773497,0.7979006797203821,0.7958842349104275,0.8087967794220298,0.8067515482759019,0.7995228957714099,0.7758406216143624,0.7349830042181386,0.7046874270790334,0.7123652598527913,0.7484607505314028,0.7806514901454441,0.8064855447088061,0.8245717381449428,0.8489729817459811,0.9137599131565214,0.9681017641960455,0.9345911019758674,0.8514164714988676,0.7609752119718939,0.6707678650236172,0.5867650214180818,0.4993503948820005,0.4087741256340366,0.32383751330436483,0.3257072510875717,0.40844948361988165,0.4921279914313995,0.5788176933587422,0.6622693277017232,0.7440492262279185,0.8096636574958055,0.8109246646097586,0.7955081953517168,0.7627140559910647,0.7525017067461989,0.7807544175999434,0.7877461892653078,0.788976196886033,0.7873346791626014,0.7795398181160397,0.7648994150985465,0.7266859132281286,0.6865980034968627,0.6730089549795143,0.7068787189676154,0.7413573795559877,No
0.3667869231810079,0.41615770617837167,0.4594925337244713,0.5025473152039217,0.5747202449155688,0.6386711829936274,0.6791175411722925,0.6972187910202714,0.6908540416418463,0.6817955320693141,0.6836351641549345,0.6858747037985347,0.6833417488783298,0.6602882652195678,0.6611857423784717,0.6812785124238991,0.6687575560532257,0.596129028626321,0.509898069285911,0.41770036574678127,0.3298128994914793,0.24276363496266096,0.15159782200085226,0.06712130156254936,0.0,0.030852154226109763,0.11387337176728107,0.20494964163838092,0.28986242767924164,0.3807240891298451,0.47271197329963144,0.558141851200378,0.6479566913943586,0.7391822419872687,0.8055367585022757,0.7712738258831677,0.7097062210186944,0.6693967506754026,0.6360508706119001,0.5966568406138357,0.5488681725189248,0.4905619679167559,0.4257977754232676,0.3745168018338296,0.37955071147884833,0.44068731670330785,0.5097044810327911,0.5770625850771547,0.6341132185917984,0.6619976829757652,0.6660467022398806,0.6600826756225722,0.6597679854503102,0.6597656426488558,0.6584369960686485,0.6450332032633135,0.6464356570280199,0.6688152408601025,0.6629978512819785,0.5934381758003906,0.5058756829851683,0.4134894913235976,0.3250216843603415,0.2386127783872476,0.151115071064029,0.06601948778173661,0.017881230179823904,0.07092525550785678,0.15942299751077482,0.24836321015728946,0.33443912804328746,0.42650957419215585,0.5139471384002812,0.601430041112224,0.6915565742824885,0.7546587038589438,0.7181394984944136,0.6624198452918562,0.6288218546876727,0.595551755088572,0.5516622434406862,0.5015771018718214,0.4413853896365969,0.38007308784035376,0.3448889269577009,0.37802483052061775,0.4467636732742004,0.5154537269130381,0.5841545850249987,0.6430451586784658,0.6689845013844404,0.667796464016224,0.6528437454130487,0.6521445888363209,0.651982540881596,0.6588144513394318,0.6635820711428608,0.6416949778402394,0.6479374235552651,0.6769327876856683,0.675121622934493,0.6094692981986691,0.527359150838068,0.440564398699278,0.35361733625852887,0.26593322533122143,0.17868794248494901,0.09624035844094703,0.07267914454044577,0.1444398311680033,0.23667031906355973,0.32922292176509815,0.42167959888256945,0.5095641908421884,0.5966142665189984,0.6877588027776429,0.7724257389571427,0.8380658341878815,0.7952485191241585,0.7255276466584002,0.6740851114518467,0.6415701262915019,0.608036391098765,0.5696900781079988,0.5118916436617407,0.4479712165418961,0.39803149149770367,0.3936168008211145,0.44817210966899235,0.516566962719764,0.5879878842773394,0.6548213662738749,0.6974125227997807,0.7276480758213095,0.7146139842131349,0.6666426528386193,0.6021498159822962,0.5332133681294509,0.46553950821872436,0.4333358964740919,0.4777080049092637,0.5392274032179127,0.5965441439869559,0.6373284532741263,0.6673163477330692,0.6991824618986879,0.7555946240938154,0.8297069856863253,0.908423296106698,0.9762258738129099,0.9596081671030832,0.8847774132186053,0.8027400022554021,0.7179402525339946,0.6274991426555077,0.5425944342249731,0.4517226467152322,0.3696891775832274,0.3891003125304615,0.47144342266870787,0.556382198894775,0.6390596106292576,0.7029932992018599,0.7116333486602247,0.6933240033159318,0.6746845890383504,0.6917222278305675,0.6916890514726786,0.685105160179414,0.6809055221734852,0.6842520395317748,0.694671277074792,0.694679893604367,0.6752043142468724,0.6246468981307183,0.560041818250625,0.48967088792108204,0.41537406591905657,0.39347521494768145,0.44266047742986725,0.5065177513140795,0.5615768505218297,0.6036778662850311,0.6424415416015179,0.6732502379442935,0.7232704882571734,0.7956308224087969,0.8751433804249815,0.9419706646669836,0.9244923866393,0.8439143857281022,0.7591453004713644,0.6688652977341496,0.5803400980148434,0.49537482511708375,0.4227420303327645,0.385853971543233,0.44953494456308696,0.5350340063804546,0.6200491640412824,0.6911490243353611,0.7073790830816145,0.691682558181204,0.6756231508360138,0.6826775121450184,0.6921618069761277,0.6854491894975161,0.6848242410688707,0.6861567932780084,0.6937519140816504,0.6899785626973975,0.6684922659648216,0.6202770033032998,0.5574532013028393,0.4863051734984529,0.42018863493164127,0.4275816580453218,0.4861207118404378,0.5509598201282253,0.6014195721224251,0.6451748435264972,0.6782368301224324,0.7152124167895848,0.7720336858407042,0.8465665665209909,0.9259683837654764,1.0,0.9933242880005864,0.9158602213602585,0.8300099142361776,0.7424672678021029,0.6522359101159689,0.5671377773843189,0.47536513962288307,0.38804774269746845,0.3833121819442784,0.4662509310506302,0.55099634534752,0.6356219857334893,0.7018834769639442,0.7119356035436051,0.6968513157096552,0.6959425520903197,0.7199223046439547,0.7231611566254073,0.7147498679607325,0.7153613616641994,0.7216639566196836,0.7249179067087796,0.709624457542924,0.6735551552713936,0.6190524539385267,0.5569767426680607,0.49251402092695673,0.4340895901059929,No
0.6760613132872573,0.7109925247238178,0.7152848163795049,0.696918803933269,0.6868066957686325,0.7050187311842873,0.7213671708997893,0.7138869899720941,0.7151891098086844,0.7355184267435304,0.7507668886273808,0.7170289241018213,0.6405079694790192,0.5638031246914588,0.48126087610162016,0.39921908047539434,0.3224982107032339,0.23997695699539956,0.1568219431696476,0.07929965312994425,0.005041766212891763,0.0,0.07230103119601805,0.14935835281479803,0.2323200903524152,0.3158459546112906,0.39936566137510376,0.48131379292012544,0.5580202112802513,0.6357374274515732,0.7066677264601748,0.7882665646515723,0.829821201175917,0.7787986335862789,0.7277231302714218,0.6907903469648389,0.661628863912928,0.6272303332318836,0.5852986796312845,0.5373370017809882,0.48545265690237893,0.4455246283618728,0.44744146275939256,0.4948873042701101,0.5537763398510589,0.6143820331324268,0.6666767905632245,0.7065561950670103,0.7099191602817796,0.6887943043273579,0.6787209283026374,0.6878384269299818,0.6974134614200809,0.6847347009004605,0.6809631110782504,0.7018546762785498,0.7310085526746142,0.7237563332639101,0.6575527062269912,0.5810626036502955,0.4989566086219004,0.41760683651345576,0.34129866031929024,0.27006469864335503,0.19305237253905316,0.1156914789163892,0.04254943881437423,0.03877460216875184,0.10868684100090242,0.1870876005758717,0.27043529282485856,0.3539606563057862,0.4367639956417029,0.5136613035007711,0.5952509705492557,0.6787664734629317,0.7614107700832811,0.8033465090454082,0.7578464081880749,0.7145565863498187,0.6815158566202355,0.653134186413181,0.6173996281925507,0.573876803096844,0.5212886511617594,0.474218882440421,0.4405466224950063,0.4601599924750557,0.5128287154681319,0.5768065790377055,0.6368779720938262,0.6862974730222111,0.7119519698362142,0.706361582002657,0.6909664627798227,0.6928524036714538,0.7063254922465299,0.7172653492070831,0.7113051700164275,0.7058666883162799,0.7290227565437934,0.7494084867541659,0.7287273604849092,0.662895521434149,0.5820720731747919,0.5052012320258303,0.4236171092167109,0.3402315564123093,0.2613866946270704,0.1822440566735497,0.09923568966275986,0.025431476817462717,0.008361050591105257,0.07677697819182039,0.15981793351197382,0.2376801543575613,0.31789680907168694,0.40137848624918937,0.4849049243945145,0.5682831553167547,0.6469973455541229,0.726235074729896,0.7985211998646182,0.7830513720653827,0.7282386186200049,0.6848638970267806,0.6535649472669094,0.6185408277370017,0.5798657514933832,0.5345905732700185,0.48591858475582894,0.4419104778699736,0.444402600965333,0.49365283822452843,0.5526558811552886,0.6131273336973841,0.6720326331897937,0.725553538738634,0.7657319305234114,0.7723696205804573,0.7658326603492374,0.7897152929147866,0.8037746684844094,0.7876554485038976,0.7428515045568818,0.6912621679812836,0.6336771020337988,0.5721240598509738,0.5098595334052993,0.4678559395804558,0.4926192934788278,0.5443151802811208,0.5882577990471511,0.63066999268791,0.6641593352432631,0.6979677466196392,0.7341606715806204,0.7898533905597294,0.8603473884764372,0.9336036096984732,0.9793263783965356,0.9370021085132221,0.8612047073268088,0.7799407481013749,0.703135834460064,0.6259807694876871,0.6292312213242592,0.7035006488189239,0.7642528408858771,0.7757528864721077,0.7706206149651262,0.7442384477020527,0.7348241361466088,0.7451379665658877,0.7464802737045775,0.7307997413479699,0.7170770215145528,0.7287712435776055,0.7442800341905382,0.73497119395595,0.7048040168085568,0.653925239355972,0.5915561159320637,0.5316616828264658,0.4831387243229579,0.4940137773976363,0.5422140723061637,0.59179414850699,0.6387606707277163,0.6741627090728333,0.7016651811865395,0.7336543604681929,0.7803560065411981,0.8420426279531996,0.914044666906223,0.9665379376836984,0.9306052583628246,0.8548688770882498,0.7751745148704883,0.6919040639615832,0.6135485664319507,0.5377543710042094,0.5314872910015076,0.6078068401922778,0.6841665439063385,0.7528470181477465,0.7700978279181272,0.7596921523036453,0.7311541869719367,0.713127797457642,0.7236439696896317,0.7225636706701939,0.7135583626644588,0.7086874935993521,0.7261663951177597,0.738918959309969,0.724740783610661,0.6835015811390259,0.6280571043988514,0.5715560654900818,0.5129874126487735,0.4768169356313412,0.5065296264379671,0.5562033156643031,0.604833965089512,0.6477679745856262,0.6824809333781499,0.7104793243200906,0.7490322302122903,0.8019629150361745,0.8699128718627243,0.9432070575877083,1.0,0.9722629166410635,0.8972185809820796,0.8189851648160937,0.7356975102143364,0.6550553430033836,0.577553406291641,0.5016382142763578,0.5124517642811115,0.5918673691469352,0.6684912745727407,0.7406431301164,0.7737671105283004,0.7738160062475303,0.7556190003758605,0.7396343337529772,0.7540017764596081,0.7485605074581616,0.7258331552060278,0.7206348499836666,0.7366652107292431,0.7462540649608069,0.7218164751172522,No
0.6161517540931493,0.6716559857707981,0.6921316758933594,0.6085734790312222,0.5095847023814711,0.41500247656743816,0.31456090635879363,0.2179687844784316,0.12153525940076515,0.041500329658793245,0.07464426654455669,0.17065546458080372,0.25329356612955234,0.34687873111725265,0.44802596255321936,0.5467343582069092,0.6305339554171857,0.6602166125408272,0.705398245349579,0.7156201550904547,0.7030074281552955,0.7636999499963272,0.7958097943222836,0.861952022649655,0.9303803004964254,0.9225026401974185,0.8804033592172394,0.8184723261840111,0.7487821561461595,0.6835164528387087,0.6633939717760425,0.7198654456211951,0.7938763739651656,0.8648818695854242,0.9191888822685551,0.9384770973656275,0.9457078488866523,0.9129204488884689,0.9030262816421023,0.8962955664676996,0.887798380351183,0.9134420634944102,0.9290942835558723,0.889401255451359,0.8159512604662035,0.7392628672169465,0.6428210131579667,0.5460974081684068,0.44959422366253976,0.34889301386125393,0.2538458966660858,0.15540195503530085,0.058446785687366165,0.03522693009961908,0.1178186715893782,0.2121935358439232,0.31272248691803106,0.4121467089706924,0.5066044936206807,0.6070462339844863,0.7074706490853347,0.8014446260754681,0.878361353026862,0.8783940362592789,0.8380074095381883,0.7767709393526568,0.7058853854859383,0.6414228988913019,0.6239279691755694,0.6773297469193104,0.7502179270166668,0.8220201359976081,0.872345936125911,0.8846737416429377,0.8757915946063218,0.8777314254072922,0.8808302639330648,0.8723439289470748,0.9025488997054519,0.9110224423187928,0.8507082885913925,0.7577845418170593,0.6604544788448315,0.5652961765433363,0.464567449982319,0.3682247032725291,0.2712772978651191,0.1700855409536498,0.06937683243863613,0.0,0.04697839002521764,0.13989407798159958,0.23873578410250385,0.3331696421805327,0.43357943146127254,0.5347383024973803,0.6313279330673937,0.7279934030571525,0.8259991228788569,0.8932017061870153,0.8857730508851424,0.8427199609178263,0.7796853934267046,0.7083218247545818,0.6502759524142147,0.643517429626646,0.7016209760291644,0.7742879298457713,0.8479014206099124,0.897595455214257,0.9122976687225145,0.9088382748213449,0.9088122982742505,0.9102707900471042,0.8998828280038481,0.9360059037146738,0.9566511885542041,0.9126030021901458,0.8207737069051365,0.7241699565111591,0.6278810154567845,0.531061185375079,0.43340425190226284,0.33781252359744907,0.2368041984912337,0.13555818862614044,0.044459523699760584,0.0464656075250387,0.13247965710258103,0.2312075915985261,0.32753927863280896,0.4244762932466647,0.5255267446498538,0.622087655707462,0.7187805635741119,0.8172030735315271,0.9029405105844065,0.9249668935389107,0.8915388671771597,0.833945454825764,0.7623649640779554,0.6943478626375662,0.6632205901846945,0.704832006508764,0.7749440691928816,0.8506828646050658,0.9132122218277648,0.937896169780933,0.9492392127282238,0.9663240497821307,0.9559101433389717,0.9171615926831606,0.8499576110737713,0.7752874781773068,0.711650857610742,0.7239966155409286,0.790069062739856,0.8615561563789039,0.9175022901835342,0.9546441939685028,0.9678140244641705,0.9217235310708846,0.8336287803062302,0.7355714868017543,0.6410490211742069,0.5407706813977907,0.4663641274279383,0.5162203200812475,0.6061222415398343,0.6930870278938416,0.7903584193471981,0.8911725730042576,0.9741613406818027,0.9888599257648355,0.9681128841910526,0.9365777731344277,0.9458003912767451,0.9422980539130889,0.9395586781710371,0.9448133199182575,0.9298166788283552,0.8867299831863545,0.819963415743249,0.7468006506950732,0.6875691384797863,0.7096694012874963,0.7753123296881624,0.845222534832848,0.8942356764855927,0.9251640860941152,0.9368261434211093,0.8791161800802395,0.7865999687803952,0.6922170665932287,0.5933440480548001,0.5034270781147255,0.5233345886455435,0.6200900044885679,0.714447702195487,0.814152618436151,0.9117353537071459,0.9576535307662338,0.9450998915191428,0.9197245430311981,0.9113860679357152,0.9139269254368919,0.9056573012662842,0.916795677938362,0.9093828941711474,0.8857839816584178,0.8281846152847266,0.7584928323077903,0.6862602389783529,0.6589361544169207,0.7132456677591371,0.7839900639154346,0.8495257460860884,0.894621022796858,0.9201043051840662,0.9063555974517942,0.8264796838803224,0.7327518622187695,0.6336488421104264,0.5800661449210153,0.6456811485267476,0.7450011590844651,0.8453444426772082,0.9298826257257492,0.9578332327538713,0.941133111540415,0.9219270229051412,0.929852943746808,0.9368360494953781,0.969543804369062,0.9783219879239681,0.9705424325861262,0.9451882694227759,0.8880879576276629,0.8163562306591151,0.7397697345742594,0.7032220185913013,0.7539156740333398,0.8265263554916774,0.8897726144606796,0.9372559238762662,0.9671392431916893,0.9589542855712666,0.8871587139314775,0.7878553601023092,0.694036992919934,0.6912004774709576,0.7744934612275077,0.8708227712928084,0.9598472469155502,1.0,No
0.5662065147843696,0.5600548538896808,0.5517655554014453,0.5418112210939938,0.5227782983635207,0.5079310585881607,0.4825357859115351,0.4519732817992501,0.43137250397828963,0.43223148135859213,0.46071071871271685,0.5024189499178695,0.5461929149510967,0.5811350070225787,0.6012803968837765,0.604999314444679,0.6119856569438955,0.5977617842041538,0.6103642426513254,0.6155539565052957,0.622536958337562,0.6250466283246126,0.6240748725818794,0.6332436610755843,0.6391398882817638,0.6425139481794391,0.6409017567928106,0.6470323113224334,0.6606082243557454,0.6860595183840954,0.7132181164038531,0.7200828984016066,0.7279333435971012,0.7008554650766992,0.6316543420435274,0.5540263716498299,0.4844657709549185,0.4097885848907059,0.33231885158848096,0.26322726674354313,0.1878572746023972,0.1131713707234796,0.06617891705759704,0.09428945200349137,0.1667194869205766,0.24469735163033168,0.315819272877361,0.38870307244981284,0.4668573660335671,0.5449375477726157,0.6167197803694879,0.6889245981063032,0.7670233177927455,0.8374556452453317,0.8194131178593826,0.756585013069055,0.7177341811623674,0.6980596577889431,0.6818001743164532,0.6692744028121957,0.6500119443196017,0.6261955910004229,0.598315023128642,0.5701281274299208,0.5323536579628669,0.4918123728454806,0.4683156529089485,0.4784240630492709,0.5170621278527916,0.558827562236333,0.5945413947186009,0.6126512550573215,0.6050099537043545,0.5874934035458517,0.5835119769164243,0.5903906381159172,0.6071912070333014,0.6171495215451679,0.6291410489415696,0.63980970553152,0.6408108416439688,0.6409469885027361,0.6448244065910744,0.635430601165794,0.6274085279932997,0.6204523346385726,0.6349976553849572,0.6401977683248474,0.6311184703335999,0.6133029505161369,0.5601300461131453,0.49204576820289914,0.4145438428163204,0.3363246764468515,0.2593730339453757,0.19072828657344432,0.11514181240605215,0.04676539498952059,0.0,0.03647728860990762,0.11153999516442825,0.18014042944525044,0.2568592247383572,0.33507764120539485,0.41305436548525987,0.4837336904052254,0.5570727158637592,0.6308995016265633,0.6721701565449418,0.6373784152098603,0.5952885016951175,0.5764775938863678,0.5651571449772526,0.5633222808493774,0.5509293062695675,0.528333316849229,0.49709237893479896,0.4691378854434609,0.43727015364325195,0.4184846481392608,0.42626843649229973,0.45957988708527253,0.5032889673331737,0.5421402332544449,0.56341474988603,0.5609757111952978,0.5485370164735923,0.5427816880011154,0.5546643446069686,0.5676948978949912,0.5797467434774561,0.5817002425362547,0.5892317207533257,0.5976275568679945,0.6267113894173209,0.6226912512423914,0.6204881527745658,0.6188310570241504,0.60123517296141,0.5886215770190844,0.5839524965704874,0.5938126567923154,0.6035654291066708,0.6035200124676865,0.5814209492473532,0.5440906720894647,0.5030785544878251,0.4644979292125566,0.46458164713329886,0.496371918639672,0.5266049050609394,0.5594737566740209,0.5843354199783204,0.6007607522133136,0.6042779798723337,0.6027245551744902,0.6190685070005233,0.6519712970792444,0.7047259423687224,0.7686636472761417,0.8144313198936075,0.7813540924477418,0.7164141222686333,0.6414799438484708,0.5661099517073249,0.49701836686238754,0.4195729414278475,0.35511758287169926,0.3890638073091417,0.4614267242425292,0.5301125153465289,0.5958919880603948,0.64660304596475,0.66487520464187,0.6759663063118486,0.683077494760036,0.6705858366692605,0.6668818836953463,0.6681874247881194,0.6794095134831677,0.6839367331823434,0.6801416505701456,0.6717078958205187,0.6699517039094176,0.66691121864929,0.659012611577888,0.6498606403728227,0.6354343381246279,0.6228136411996501,0.6319085951353749,0.6488727730985779,0.6470436653474168,0.6383493392651274,0.6060183733269326,0.5650324489508578,0.5252365893818132,0.5176023596398631,0.5502849155953977,0.5929638692892967,0.6230646677613647,0.651001022462868,0.6743646140323696,0.69346857014003,0.709808847522551,0.7268271434762492,0.7451694191819835,0.7804143213804169,0.8369983057547477,0.8882827811754068,0.9513764393539974,1.0,0.9747791221982793,0.9101409778744189,0.8340441780295746,0.7572782371288054,0.6886975283661099,0.6120862991585918,0.5351724960367119,0.5076669456556608,0.5668803735498686,0.6392921803072782,0.7076170469907681,0.7542234309799944,0.7597497420263015,0.7512816540124199,0.7457660543104456,0.7241246040256035,0.6978132234787249,0.6790100304391102,0.6812832603678447,0.6901415335104919,0.6848758250912064,0.6750934736786505,0.6609371319896984,0.666883917565154,0.6571057133712794,0.6577547254498772,0.6532887603728961,0.6460926412569035,0.6458931171762754,0.6449872620866275,0.6283639561734833,0.5992200124794755,0.5604395943880705,0.5165387978931586,0.4774422318463072,0.47242140332256577,0.5011504882190856,0.5289971613705657,0.553363254337019,0.5765686215031431,0.5870160721497739,0.5903870901257697,0.5960622358492569,0.6133949050842276,No
0.34400982813459846,0.390120728666294,0.4740899844316351,0.49319859429195834,0.40122007200834764,0.2971300227013254,0.18505710828513533,0.08226738513971887,0.02754311894208583,0.08634954573057141,0.19348378726208604,0.2935504223848926,0.38002175088448364,0.4853872148212255,0.5978696316388734,0.7063373514885565,0.7858077528422864,0.7974280393403332,0.7952528327976021,0.7752305840384466,0.7409595604159667,0.6934788469336262,0.636068724008847,0.5683274679198642,0.49708963310665943,0.423639336501731,0.3850398332995262,0.42692061938878956,0.5107271097434825,0.592343638453289,0.6720021250473747,0.7393108355609836,0.7940854081739275,0.8120907058262379,0.8075339395021723,0.796186642589801,0.7845176359609933,0.791527361055707,0.8070045717293959,0.8127404501248563,0.8164355549375908,0.8126539673171167,0.7767024642171325,0.7585994392930635,0.7752782928026098,0.8176250194425427,0.8429325793461602,0.8417021932789681,0.7699962880037443,0.6692898874971238,0.5582700437455372,0.455373090762313,0.3481456426253122,0.2370824816319579,0.13851504502586076,0.08613363690312004,0.15588435311990945,0.2671557091313588,0.37938877986943353,0.48297902429062534,0.588932283765621,0.6910495460526751,0.7648257969648213,0.7791909537253052,0.7801441170600509,0.7592334538301895,0.7232560941919046,0.6739224062797851,0.6142989317463488,0.5469115156416531,0.47364206696103395,0.4026785770523529,0.35790452765213043,0.39516197890209037,0.47459099830927,0.5564448156429251,0.6342045290613259,0.7035855766626367,0.7571551642120813,0.7661758148498161,0.7634949762125545,0.7520941641370813,0.7534937220877156,0.765012798757267,0.7731588613187794,0.7822897547876888,0.7894424746535513,0.7707830862430547,0.7461170391462115,0.7489360335107573,0.7838898878955773,0.8232121401808659,0.8316750425620478,0.8001495686589988,0.7123683931846436,0.619313000322852,0.5186809763502969,0.4073896640057586,0.2957090138585792,0.19404112480601232,0.08559533627027771,0.0,0.03557042695141566,0.11310235480067155,0.21631893572618344,0.32260259986781037,0.4262685137619502,0.5361248908943552,0.6371123211530438,0.7394120769628536,0.7791370077369777,0.7694957348687312,0.75658770134554,0.7283150897704811,0.6885119298595059,0.623690525689427,0.5573222849395005,0.4815455983969468,0.4084843355888239,0.3474935932602232,0.33995628649566045,0.40706712045805116,0.48900641262079425,0.5704226137490993,0.6513326112577102,0.7261527271906907,0.7746623574323133,0.7863352163652966,0.7758549854650645,0.7635235944596777,0.7535536141005093,0.7649976693315939,0.7785574738064787,0.7915022063896346,0.8279486889902872,0.8240029911182591,0.8146599024340175,0.8091519353747838,0.8147846371517424,0.8267039218411258,0.8340597005639094,0.8245670524420641,0.7879978087754069,0.7253875679257149,0.6493537980585673,0.5673128431955758,0.4849903995824292,0.41105766837155455,0.4386139226960548,0.5073451070824411,0.5830775197191138,0.6539086886486403,0.7189788742341348,0.7602751953065217,0.7903050813770527,0.8136847690526827,0.8263730427003155,0.8360751122236807,0.8687458129883834,0.8162642403924085,0.7158510196114274,0.6037244283393255,0.4957770598876454,0.48675948628356336,0.5877174692745788,0.6894387691757458,0.8000533959759757,0.8998053618497877,0.9712412248421858,0.9398579727670637,0.8819581646897241,0.875732598582692,0.8441722221275496,0.7993237637801669,0.8013959735704801,0.8280724945324587,0.8342070947640159,0.8271658482624797,0.8164616327519432,0.8076494095961837,0.8052366099372472,0.7960642818140782,0.8074004635430225,0.8113899150260941,0.8183196158558732,0.8001613973843114,0.7440585533837214,0.6768127542455336,0.601918562393216,0.5160834168096078,0.44114947367590984,0.46074953836213295,0.5276109769835897,0.603022733798722,0.6702807053004673,0.7205140719501215,0.770067264886674,0.8035720724195179,0.8235906932007042,0.8292032721710552,0.8346439652762263,0.8683618203087069,0.8276883824361652,0.7437355628430762,0.6403110076074521,0.5555658253557763,0.6135487555317192,0.7231703101975082,0.8240786128336905,0.9265437307707343,0.9738146016394227,0.9208442416706197,0.8836111947036906,0.8821587328558382,0.8394332666950195,0.8131787967004076,0.828526439823499,0.8626682832353905,0.8646337831902642,0.850725424383945,0.8467066672460808,0.8348952265505485,0.8305432700576367,0.8415591201431414,0.8466978858532439,0.8574760886486632,0.8527284313794952,0.8254658322440891,0.7737370967491097,0.7063700195969527,0.627429190257693,0.5375135195309331,0.4631505402658065,0.47128412083611293,0.5394714623727053,0.6155349143962319,0.6809447109782387,0.7358416015671283,0.7823232714580639,0.8181678925819909,0.8376648905191733,0.8467336227778817,0.8620213092013747,0.9104015024571073,0.8694176498054422,0.7739219494992096,0.6873592425849693,0.5933249688292399,0.569987155066809,0.6685567927302567,0.771662770216182,0.8780223253975832,0.9740424155147465,1.0,0.9395396259819666,No
0.0,0.03545666646219198,0.07354661103447589,0.10976853643181735,0.14452559762836986,0.18249302205601248,0.22060564167599023,0.258718261295968,0.2968308809159457,0.3349435005359235,0.3730561201559012,0.411168739775879,0.44928135939585667,0.4873939790158343,0.5255065986358123,0.563535904321381,0.5987374012415172,0.6344736099257985,0.6725457641964057,0.7106583838163835,0.7487710034363612,0.786883623056339,0.8249962426763167,0.8630915318312231,0.899157454875441,0.9203962829444567,0.91208798732841,0.9008356914998038,0.8847340859804156,0.8633463060466324,0.8391398252660462,0.8106837286232953,0.783223407959176,0.7510997540692875,0.7232579562056459,0.6973284676657939,0.6865610503097309,0.7025943304497533,0.731435073536705,0.7607884146001211,0.790315765858905,0.820013647770415,0.8482935644924262,0.8649357735214425,0.8558516484709611,0.8381958938091756,0.8184492914466425,0.7974403143495713,0.7748407479705993,0.7555629056671677,0.7360959569113598,0.7164771669538287,0.6980205661660628,0.6761729364820239,0.6487900119088125,0.6215470601995368,0.5944468900720504,0.5679195955924821,0.5436557247910372,0.5260752098703102,0.5043882176738805,0.48550315143224304,0.5016881870313272,0.5292724895362825,0.5463731209180875,0.5647806814822829,0.5934422450432236,0.6210557018441363,0.6482721770328327,0.6746291462147713,0.698173697943509,0.7202711542069806,0.7381824872495958,0.7581549209861969,0.7786215136321725,0.7969841108388303,0.8197342646655816,0.8401288726371319,0.859311733099841,0.8742023559550559,0.8825238835160364,0.8753512864273394,0.8516635567005957,0.8249478174612513,0.7949465814674463,0.7651523488280967,0.7362376927874146,0.7106975512479724,0.7229538464526581,0.7500551897434014,0.7793299483769618,0.807781372716247,0.8388295104982961,0.8650217139371851,0.8872189422654099,0.9056744522495693,0.9187998070261496,0.9311337042603178,0.953032415245134,0.984200464794264,1.0,0.9784616342691365,0.9424759437360188,0.9084008568336864,0.8711068212193355,0.8329964974629158,0.7948838778429377,0.7568053846651233,0.7209313290484107,0.6858594407107378,0.6478447122823445,0.6097677818851864,0.5794874346167173,0.5976483093866206,0.6354305270853895,0.6735431434403585,0.7116443082407831,0.748166151736136,0.7826755122846747,0.8205823211130824,0.8584996590220662,0.8930543134580712,0.9275476834956019,0.9407210859370806,0.926334021173407,0.9118146454807965,0.9045255037378923,0.8950919157026918,0.9040433664051626,0.9163236669147127,0.920877910198816,0.9225514566056472,0.918449925068716,0.9143436668559691,0.9092029832020255,0.9132909517516661,0.9233085687784599,0.9257789837518364,0.9172239577424308,0.9041736940753952,0.8800741848185335,0.8526432377741632,0.822979695542916,0.7907030543521215,0.7601298818025054,0.7300386631786602,0.7034692461607212,0.7103516565494291,0.7362316655003117,0.7643728048011402,0.7935763391582069,0.8208986928824403,0.8487223366316591,0.8699780591552894,0.8895561701007492,0.9059490561081223,0.9206121027427486,0.9402611536581866,0.9643917090641436,0.960387621372591,0.9294675749423225,0.8953458916673405,0.8575700116148989,0.8194576047471331,0.7813945470994232,0.7458220834831458,0.7104657752456869,0.6724184391865393,0.6343058195665617,0.5961931999465843,0.5580805803266067,0.5199679607066291,0.48186309873745786,0.4475941533175744,0.45540649542038847,0.488798772422344,0.525453106310188,0.5635555557508574,0.6015588310662451,0.6347195308450261,0.6672375201950147,0.7051834175552226,0.7432960280121099,0.7814086476320886,0.8195105967261018,0.8560753835060221,0.8905445550878041,0.926896202981336,0.9460176525018006,0.9361512751011406,0.9216086285581196,0.9156600808047433,0.9068888536695946,0.9135988337306264,0.9250040323698507,0.921186804989244,0.9211704925249088,0.9186667141833287,0.9166510613805543,0.9108328199802751,0.9091556000620313,0.9179412864848954,0.9233452280936961,0.9217280027437623,0.9101837300659523,0.887300512798048,0.8612644152166463,0.8321696830139885,0.8026070897931085,0.7728628775972399,0.7415469515059511,0.7201373205337329,0.7370241893059136,0.7658398069517177,0.7944345236439596,0.8226940437199982,0.8491551867692504,0.871322258900327,0.8910549149244976,0.9062623414771629,0.9203068397575088,0.9379452587113708,0.956937622630119,0.9461349133778836,0.9132279211037649,0.8756998142988874,0.8414946138627362,0.804513158089537,0.7664055173028437,0.7282928976828661,0.6901802780628873,0.6520676584429098,0.6139551123235778,0.5765687605190234,0.5650085310530886,0.594479120978728,0.631446078791786,0.6695536264645477,0.7076662460845253,0.7457728178731011,0.782676056336598,0.8169308760471111,0.8547050947844553,0.8923495524247197,0.9253097311686165,0.9457352412256245,0.9394481419293579,0.9251475279632878,0.9193532537540979,0.9130115505112236,0.9145870229433248,0.9260634832789332,0.9290022004696795,0.928841328486203,0.9252420926635215,No
0.9282553026544256,0.9177786772946397,0.9101664050677487,0.9249673815345487,0.9392787883670182,0.903707528704889,0.8436975650666712,0.7822887635182654,0.7170146445432136,0.65435249894195,0.5902484718195289,0.5249977443501607,0.4632039514485098,0.39685873393733373,0.3299888002858241,0.2631182231817053,0.19647608023071048,0.1340745059464827,0.0780186204020161,0.08578012879480687,0.14719703285602578,0.2127300067014354,0.2743963961266569,0.3405901613248372,0.40745953447582905,0.4743300201472188,0.5409152313027403,0.6031554921271027,0.6677781570220753,0.7346220429687085,0.8006916704319968,0.8622942769209794,0.9240375628653332,0.9519879820222483,0.9519334204225287,0.9478728603910607,0.9436738426754263,0.9324856897392437,0.9442039470243522,0.9621581821454124,0.9552642306791359,0.9652273995146414,0.9746935335119533,0.9582001530374022,0.9411793094535632,0.9366855914583865,0.9428240508939307,0.9483799143245215,0.9403902126918977,0.9127554229311787,0.8897053402256583,0.9053021892395965,0.9357984911999837,0.9231180897517548,0.8641342061533033,0.8017320451548198,0.7393643820409773,0.6751400717824335,0.6099813813545757,0.5481393190040716,0.48174865813023693,0.4160506983731561,0.356786439973529,0.3011125821763583,0.23741192236657296,0.17562165779714697,0.10929442438905765,0.04469058150405833,0.0,0.027597507590326836,0.09042067733258038,0.15723019070927755,0.22410002856519243,0.29019310656572994,0.34746763978945017,0.410373639526484,0.4772057485901203,0.544029857672904,0.6060648500033062,0.6582882372763291,0.7231290702232573,0.789918034397423,0.8535305617024491,0.9148052320462823,0.9550711064954727,0.9553375902270591,0.9410544934752836,0.927230914275361,0.9142002179973359,0.9036491643641205,0.9010788809060355,0.883945484255011,0.8864581680643335,0.901551479127217,0.9015130649285485,0.8999505632521987,0.9079289722563209,0.9157745549801444,0.923040097718979,0.9272116489961897,0.9149887069111242,0.891547311631872,0.8927670039136351,0.9183062964152495,0.9364761984631518,0.8982296403419212,0.8379686030826232,0.7750741918370516,0.7118752803342687,0.6485045751915656,0.5843808727864196,0.5217981228322065,0.4557380135432957,0.3940366697322031,0.3285716287701069,0.2617085534851712,0.19483789063994153,0.12811714757406997,0.07395624183473706,0.08990480129200693,0.1491045625215994,0.21544677116607217,0.2822690586557447,0.34627804831114806,0.4090403860397236,0.47573979437238645,0.5426104441217113,0.6094453061096702,0.6737637755506047,0.7362535789187938,0.802870759130629,0.8672145509808593,0.9246843078425173,0.9545432467158737,0.960740626194512,0.96474678675263,0.9622706323923378,0.9495688339731105,0.9498548693336484,0.9582189376151786,0.9379838621889485,0.9197276581495213,0.9203725702600036,0.9154145808331922,0.9092855972827159,0.9301083614656989,0.9432292166975484,0.9426040023537174,0.955219907310509,0.9803718537003006,0.9808279103497775,0.9710201685517288,0.9816664669064425,0.9874982969376227,0.9851991184438615,0.9791668233215871,0.9595026401879563,0.9133279582785365,0.851174252766506,0.7860648820078797,0.7242496556590929,0.6578855266461465,0.5910155571509088,0.5241457567351495,0.4589496180216953,0.43905044622569855,0.49313163307641605,0.5595344825619185,0.6221973728702291,0.6863186955030928,0.7531456034143666,0.81966320612688,0.8810737131827358,0.937249995129144,0.9675372404999982,0.953021990406661,0.9221019756628528,0.9133901357055525,0.934960973783435,0.9448720328817259,0.943386739781664,0.9377545295805305,0.9305272627621315,0.9241609622800349,0.9236150852522638,0.9210586799879146,0.9097983105958865,0.9114825479198712,0.9263247287998002,0.9277569359768305,0.9388597314404641,0.9516105656351654,0.9675025869974538,0.9797919799561976,0.9820889912134485,0.9481453323471878,0.8881299356073828,0.8241121016786495,0.7573364644045695,0.6933341564189799,0.6346091764737263,0.5774826220338329,0.5113732644114769,0.4445545698285436,0.3888091773516521,0.41232107797201334,0.47280684773858095,0.5387219617409021,0.6049869479337415,0.6666907691116155,0.7318332186591977,0.7939790572735292,0.8567187435198578,0.915353041853253,0.9604694860185752,0.9611316531509795,0.9320939487765874,0.9143671898355343,0.9393572397863432,0.9656778043426155,0.9695921735199422,0.9685268141390375,0.9619880030685679,0.9567990598958884,0.9709073194584623,0.9890190182728333,1.0,0.986478324248145,0.9814559018015594,0.9817309969594477,0.9630408117014546,0.9625825060064754,0.9757910440615523,0.9732607808387848,0.9779801667996904,0.9788698591695435,0.9557661720718369,0.8973556956526336,0.8354213538271265,0.7689328832286451,0.7022001200987678,0.6392149596907908,0.5774691162269842,0.5612488689060496,0.6190795903588199,0.6849250289582701,0.7465199848996077,0.8124572005789901,0.8779301247249884,0.9356237254024866,0.969480204935727,0.9606680762196507,0.9362493699119336,0.9430686996913307,0.9563527984375164,No
0.7782249600908471,0.773068299731682,0.7969109800734353,0.8311645130135599,0.8275653302147332,0.7586774245261467,0.6678410436168702,0.5765180697834975,0.48193759815593995,0.3804020772463492,0.2871445939866881,0.1887035384858209,0.09312340513175177,0.054048188837626965,0.1198865389773145,0.2198719357901524,0.32224458064743056,0.4246232967094352,0.5270020127714403,0.6291391363657501,0.7223358942527955,0.7994812226823065,0.8803977802690035,0.8898132701588093,0.8509662847363235,0.8364500857765402,0.8190134440399626,0.8010887228281591,0.771546179596168,0.7435488622001638,0.7461446549504562,0.7726983974985986,0.800895871377524,0.8106828594671946,0.8184975369710208,0.8171717051294425,0.8078621336785852,0.8120353672302407,0.8092127855149038,0.8106510589510347,0.778934344082661,0.7686916636484131,0.7978424303862779,0.8263791882093989,0.8199991281551604,0.755968563454088,0.6609583360839477,0.5680735248691331,0.472978667267836,0.37728685843827225,0.27756930802443036,0.18513529809635965,0.08441756613607176,0.0005167217854156192,0.010023885682233669,0.09942856217087881,0.18576362647760014,0.27756100112707394,0.3720523879106006,0.4477186348853974,0.5438517323587331,0.6461747494736962,0.7471930518682646,0.838786217505314,0.9097968360508197,0.8785443799744441,0.8400363249772425,0.83342417710691,0.8183605947811134,0.7986262634355081,0.773334567144436,0.7432494274790375,0.7373495313821135,0.7709640450785358,0.798974905539342,0.8168038466691572,0.8147103225083887,0.8031580587011913,0.7944032038733728,0.8043984610400243,0.8094504612231459,0.8018201792161364,0.7748532396419336,0.7830251129697001,0.8159858086152192,0.8467024734227504,0.8311762190720051,0.7430331496662665,0.6476352576082172,0.5529659534516345,0.46078059296494156,0.3606416493106246,0.26101476817323155,0.16847369423638203,0.06836979413243638,0.0,0.04281955836242868,0.133577520406861,0.23268166742040242,0.33503911659833663,0.4359399880993087,0.5236908710504848,0.6042052805718869,0.7037036900234535,0.8009233841692698,0.8914704529455699,0.917081141913751,0.8726388252282509,0.8509544806757208,0.8327516201723562,0.8139563673734997,0.7836147189582952,0.7515949259804735,0.738362356873528,0.7570238561211227,0.7823772677407614,0.799806705128852,0.8097150468020087,0.8005364351637496,0.7990301195172376,0.8001965672809201,0.809980595626488,0.8019155975488119,0.7718054743660288,0.7750501922811761,0.8071551275947315,0.8361150345103434,0.8247491283008621,0.7524055419175646,0.6701019117906122,0.582518566954104,0.4820911083702868,0.38982091809981,0.2894613752645576,0.19013478466553968,0.09992027192498854,0.05223643854382032,0.11905696580591196,0.21154824572811926,0.31027232154398576,0.4126257451175319,0.5146503122801025,0.6087556368900233,0.7062165480889511,0.806811020629695,0.8949124640902868,0.9602735526364112,0.9449007058243026,0.8697571068047885,0.7739153416500857,0.6836833075442259,0.6517647308197643,0.728548679748811,0.8177486939100538,0.8834361354005908,0.8821869080747282,0.8736243934830195,0.844731069149065,0.815640252795097,0.831224260166441,0.8535151081889789,0.8515487848986956,0.8390393196574437,0.8341849504931678,0.8440178841039785,0.8451152923842233,0.8384942692091899,0.8213416939891527,0.7956301257506802,0.7877383267367266,0.8118661300868792,0.8431820704095574,0.8677867755823514,0.8827989577275202,0.90039172424069,0.9513944406405996,0.9932824962346145,0.9624572322876697,0.8815702581342033,0.7874755834797305,0.6853818484312604,0.5903191009442437,0.5973002381655634,0.6874302261581509,0.781277082914213,0.8602495880275249,0.8850847651216762,0.87414014474232,0.8385851017221277,0.8136178019411915,0.8377794267843282,0.8555297837414271,0.8462753940310224,0.8400457092162368,0.8402087214929206,0.8571382278454158,0.8616010081292296,0.8476089969747798,0.8282756572364485,0.7936056167759467,0.7833877939317291,0.8124144586976785,0.8376056999103945,0.8599435985210389,0.872178941232371,0.8869474207334935,0.9486929978629002,1.0,0.9666785258507979,0.8838531976453003,0.7934077932804775,0.6933614874889202,0.594581038651393,0.5794998551683528,0.6698575570066403,0.7609214733464156,0.8419351747046946,0.8711515751812153,0.8680864185531778,0.8497665716428244,0.8151871105982442,0.8301677854520495,0.8606682935592933,0.8558987747265707,0.8503954075520652,0.8514249097117617,0.8600966571918813,0.8676819846267794,0.8639383231912463,0.8451308495176848,0.8209372380140549,0.79345042328158,0.7944009637749172,0.8251328959737672,0.848111850081152,0.8653763396037375,0.8757865139703607,0.9054804266122285,0.9647982874860928,0.9773313815708478,0.9101877434742542,0.8201350738190869,0.7277125190151876,0.6261822233119521,0.5272587426949997,0.5109039661099637,0.5980386454964322,0.6878344550755582,0.7799287971989766,0.8569676753504623,0.8815429039641751,0.8791875170018506,0.8480508102726847,0.8212466133900693,0.8279076030564232,No
0.6129743681311489,0.5377797841382629,0.46068345263980703,0.3834162441067155,0.3020955031586673,0.22275902148163262,0.15011109584810423,0.1258788664547732,0.19032523827785608,0.2701666871090119,0.34521250392603875,0.42566740431536776,0.507104093425467,0.5875113413360696,0.6625464161991036,0.7387071669656501,0.7888308905648956,0.8485611086540469,0.9218875568691837,0.9449498350813536,0.9226978354930969,0.9061289478066877,0.8814004374044836,0.8462402525643743,0.8378788350803587,0.8689488584278936,0.9105219776282155,0.94140867198201,0.9402650169946526,0.9344177670480244,0.9293664079899228,0.9332358243878779,0.9288969443424372,0.9158185038409766,0.8965751243501626,0.9098720303744506,0.9230124330371076,0.8792205147592141,0.804759136341456,0.727840957164193,0.6487978712124095,0.5733205169035921,0.4923733498351365,0.41101863787678206,0.33353510329713176,0.2566392274043017,0.17536482425519384,0.09717429532556998,0.058090004332215006,0.11343491119309213,0.19436188399758247,0.27135378059564086,0.3487387161815656,0.4300847555310745,0.5115221252346295,0.5917131120992104,0.6667426995479743,0.7471138369379141,0.8272994269025126,0.8967956328203556,0.9124692676424976,0.884805323349057,0.8599038182974018,0.8332112233795849,0.7990501288807162,0.7815262692484172,0.8053970937070086,0.8459367913981605,0.8887177915967549,0.9098260910823369,0.8958537666346326,0.8792949297702229,0.880212732221681,0.8866709227081896,0.8687910555184931,0.854090291051156,0.8747441357163154,0.8879613486122663,0.8352418718549196,0.7580385365084646,0.6822924378109777,0.6014117042759787,0.5248370095956502,0.44701185981110036,0.3656491075590319,0.2861406455051815,0.2108599167250783,0.13005277125431602,0.05027548967793094,0.0,0.03981625602555383,0.11750962209820248,0.19891526979960172,0.2797648735699648,0.3550813667579692,0.43451799528096446,0.5159454161787366,0.5967041094689168,0.6719335491285688,0.7513418105041417,0.8276840659090025,0.8923149990379305,0.8891674762285734,0.8643556544734713,0.8453420022815089,0.8166013045162358,0.7913946447613723,0.8027658074989635,0.8434605115587196,0.8868779370420291,0.9097882530712819,0.9031943667574968,0.8814962528991935,0.8781971662078013,0.8908015815184797,0.8986565176872984,0.8847694427299645,0.8987556303264416,0.9299713359448015,0.9022929339401037,0.8296632278415222,0.7520940207824046,0.6770954525687539,0.5968403125594052,0.5183786678749062,0.44236147435608986,0.36121759090424876,0.2802472913629033,0.20506815752379537,0.14664355739054846,0.17705859145021208,0.25540704660104485,0.33041430424443574,0.4014498651021964,0.4669240411020571,0.5382459771270299,0.6139246549698915,0.6923349466240002,0.7737370378516158,0.855152432233211,0.9287863057031597,0.9371363296798957,0.9196631164794348,0.9171542099477411,0.8962208398600208,0.8582404031092264,0.8426876285973898,0.8667744430445109,0.9096479451654841,0.9495881629320347,0.9767039002865491,1.0,0.9818596466706732,0.9431214008881347,0.9020533871424056,0.875730748772981,0.8987467110741297,0.9332387475446969,0.9498595447812014,0.9528693304641321,0.976340330682954,0.9891343064339034,0.9329105528197897,0.8587640050008564,0.7786668421312531,0.6979226132933561,0.6352392699981936,0.664443515262605,0.7405026911777232,0.817082416194758,0.8929637700709668,0.9567068972459744,0.9694736783180576,0.9395566000724868,0.9121619751358448,0.9269263729177303,0.9283810664687483,0.9170868661181389,0.9096685824067129,0.9156557146378413,0.9364040788002791,0.9402017924579901,0.9147267268953855,0.8724766943411678,0.8324623717055234,0.8267366623313305,0.8568507366695547,0.880548521661637,0.9011975241142697,0.931408889702238,0.952357443832973,0.9035308406322248,0.8298724535074608,0.7497454501164545,0.6727470048339291,0.5976694125554002,0.5791192149490573,0.651208723406565,0.7323599253082572,0.8084573142400823,0.8823573380915924,0.9279140212583835,0.9210562926169624,0.8927680824735847,0.8924938835200175,0.9141174904642041,0.9154894403684769,0.9124505713802854,0.916943724955216,0.936719797292863,0.9364660616324559,0.9084593378977249,0.8660571710931345,0.824889891610345,0.8121903767551814,0.841360339235243,0.8740934484106234,0.8987056647669344,0.9228165529194857,0.9599103923512232,0.9609296785495237,0.897312074812111,0.8167124800844484,0.7384416875914116,0.6693661839342685,0.6764437648677123,0.7501117131787801,0.826811792970065,0.9017991114749598,0.9531001267780667,0.955969127438364,0.9343730515049024,0.9336823653179273,0.9520469132880843,0.9574988920285415,0.9609889251952587,0.9659309815839751,0.9681220091503909,0.9756535568259433,0.9618610755843063,0.9276008670608339,0.8861427563971843,0.8694407846495139,0.8989130394157613,0.9300878271223781,0.9447056129193013,0.9664438226063504,0.9948400588239142,0.9718908415194193,0.9007018570379514,0.8250791129092564,0.7567326516217131,0.7814125998591136,0.857454320709457,0.9240940452352423,No
