0,1,2,3,4,5,6,7,8,9,10,11,12,13,14,15,16,17,18,19,20,21,22,23,24,25,26,27,28,29,30,31,32,33,34,35,36,37,38,39,40,41,42,43,44,45,46,47,48,49,50,51,52,53,54,55,56,57,58,59,60,61,62,63,64,65,66,67,68,69,70,71,72,73,74,75,76,77,78,79,80,81,82,83,84,85,86,87,88,89,90,91,92,93,94,95,96,97,98,99,100,101,102,103,104,105,106,107,108,109,110,111,112,113,114,115,116,117,118,119,120,121,122,123,124,125,126,127,128,129,130,131,132,133,134,135,136,137,138,139,140,141,142,143,144,145,146,147,148,149,150,151,152,153,154,155,156,157,158,159,160,161,162,163,164,165,166,167,168,169,170,171,172,173,174,175,176,177,178,179,180,181,182,183,184,185,186,187,188,189,190,191,192,193,194,195,196,197,198,199,200,201,202,203,204,205,206,207,208,209,210,211,212,213,214,215,216,217,218,219,220,221,222,223,224,225,226,227,228,229,230,231,232,233,234,235,236,237,238,239,240,241,242,243,244,245,246,247,248,249,250,251,252,253,254,Target
0.9531566920874985,0.6302407362391436,0.3197657707477388,0.2002084248152598,0.2124102668869281,0.23039931569297778,0.24427208662138278,0.26227767857553874,0.38898657737140807,0.7023138288898154,0.9389518130268313,0.7418274060605325,0.4132913311127535,0.24456896953868235,0.21987895661700652,0.22339535913915531,0.22110906755730286,0.24720347138712828,0.31193543919970224,0.564844589181025,0.8569302479454566,0.778758858053406,0.46595177311543234,0.25101485010994873,0.20610829420462462,0.2307741593304402,0.23940724423504767,0.2382172705317609,0.2685263989808748,0.47765684058739644,0.8176775384085919,0.9999999999999998,0.7487724882648346,0.4137804658434612,0.24187318912355393,0.21450793494677245,0.23733000235578938,0.25082838740750346,0.27606036776605314,0.3218550563845799,0.5417561794953829,0.858051169171228,0.8418414966634538,0.5176021187282256,0.2792550559829592,0.20837006913723233,0.2401766227474309,0.23616188804231886,0.24188745082750818,0.2837289305516395,0.4915449668771146,0.8212227320081296,0.8942906831436128,0.5895705787596495,0.3023345469873082,0.20259013078908472,0.2229807468502205,0.22673275264392956,0.227957297792718,0.2455169772926531,0.3415556638540942,0.6380525435493658,0.9308494906286533,0.8253585839319657,0.48998716686249355,0.27348937793188943,0.22370994261200794,0.2514890303528625,0.2506535175718636,0.2624637038686337,0.27279452665507886,0.4149055469695484,0.7316874790386907,0.8090679001249923,0.5105351302736254,0.26081631261822547,0.18006896221647106,0.2156870958208874,0.22419550978480407,0.23322246069701125,0.24918101609790155,0.36642577284018274,0.6841548570685219,0.9655131717051615,0.8301284055195148,0.4875620021581568,0.2518916970936249,0.20255104533179735,0.23261287191735502,0.2372608143329098,0.2492561196837646,0.2842974989413054,0.45423159795584267,0.779488046709423,0.898578508180431,0.6134092453842823,0.3235600373136378,0.21003310103496586,0.22889132033735793,0.2530187251282714,0.2583576377798591,0.2734513203959774,0.34104957013463943,0.6243828675748746,0.8757875482847635,0.6982228973370852,0.37344508946607835,0.21160067411048122,0.2212473811111555,0.21877234248805788,0.21620069041722756,0.22110904151229738,0.28940246776302403,0.5596847629806168,0.8820696304745004,0.865969001278305,0.53664496252175,0.20892507359962242,0.0,0.13884355121002123,0.4454783923879657,0.5546631284985233,0.3074592686791402,0.18653279995339989,0.1739336339842541,0.17276073871198872,0.1825254128657614,0.14553920648755914,0.16967141077901915,0.32258823717716334,0.5030450586617021,0.31785312033303814,0.23251711168022782,0.21235327522524283,0.2118704424760356,0.19526663342321116,0.14103648295337323,0.17305127047911828,0.24879882127791753,0.4598995586252166,0.3500392862796411,0.23523786171785988,0.20645314981587481,0.19309980616932632,0.1884166018444493,0.14938321830033585,0.1627077279819047,0.32813106900374955,0.6135531332653852,0.512920071498058,0.2644085906713922,0.2004201897453768,0.18965085889393718,0.1784566619579533,0.16234009541609384,0.12399857996811114,0.17032088982070737,0.35774574204885057,0.4438388829909343,0.25547214759368964,0.22583927298976025,0.21726473111600808,0.20900540036112347,0.19216026185491475,0.17911990318212911,0.20595720844406662,0.44528112797154895,0.5589114983928745,0.3176575538234554,0.20854748722725325,0.18527653744285155,0.18287990449328118,0.18575737188096686,0.14388743041886398,0.16253739552882185,0.2759977745906075,0.5353232094455653,0.42632527980474033,0.23989949321982862,0.20058482544916378,0.19429088293003005,0.19736818834239478,0.16485679777556173,0.1818528167702793,0.2487075012859239,0.4970893235464644,0.4350064779709537,0.2668076837916564,0.2302187275417653,0.20872160638962933,0.1939225259046291,0.17089672224781882,0.17499981710773338,0.211790803817701,0.4667335598995179,0.5994091423056047,0.35261516451535635,0.20958809415310764,0.19449563476052867,0.19367256013087086,0.18418248057965814,0.1410844433246472,0.17715703733899457,0.27946228477437685,0.49179213622835394,0.339458271735396,0.2211740309754484,0.18659043507523987,0.17598279881057022,0.18781307075873355,0.16328476939228587,0.19374528807931446,0.33173198020302963,0.551845068734534,0.3780770861326719,0.22661458873231966,0.20314924335538187,0.19224063988169315,0.17626257678372714,0.13614576558094305,0.15676719289791952,0.28630070331919555,0.5524337649634159,0.4395554883108852,0.24189268240661144,0.21525715315649396,0.2068701164883917,0.19748801176524555,0.15666654106617184,0.17348774145018453,0.24027764171621846,0.4677981883404845,0.3612555509574531,0.23093102577656754,0.21584235253519446,0.2116334627254568,0.21606407661682514,0.16984637363097232,0.22130564824655297,0.25973877462893924,0.2521422316367168,0.26342315964904106,0.3088612587220405,0.5562046005747274,0.8517155117296868,0.7797652709040799,0.45533728483504854,0.2515179231900839,0.21596343530561657,0.24153726309359724,0.2502984811577711,0.26144522248910995,0.32274701710126097,0.5989508633472009,0.925427412931813,No
0.9929460774171761,0.798166461193718,0.8331917009030332,0.7995452248842381,0.7589287262330298,0.8149636110694445,0.8150321802557405,0.6104521470953821,0.744269287885365,0.7946274322054592,0.7528858647833641,0.7886980494119635,0.7469715121064855,0.7117451586861541,0.7610656414243917,0.6807878060314607,0.5453916578319915,0.7889996269599324,0.7062459400807901,0.6927996033000907,0.7211685692297913,0.7034610943636186,0.7047431605218919,0.7336626627527556,0.5529775429310892,0.5941883404900281,0.7693335922298292,0.6477828881008763,0.6725143332716099,0.6252376411705858,0.5768270927975658,0.6072715714316077,0.5039864353281374,0.30389047144300196,0.5777058851410812,0.5585986473740205,0.5254367360360384,0.5721704924316482,0.5788511554690636,0.6505316838884649,0.7461331859211451,0.6291531206161478,0.7577713412888607,0.8788549831332171,0.890677893521628,0.9970506816092342,0.9459464237763844,0.921326959262025,0.9999999999999996,0.9001605399356749,0.8016471897614381,0.9799831013171878,0.8533967050722895,0.846367624738666,0.8093888693131124,0.7216252352684371,0.7744526419920006,0.6935388139648966,0.5855376494070419,0.8195804834301859,0.7104236585962838,0.722712047598173,0.7374259840039188,0.719411416044768,0.7842110983591866,0.751365061857086,0.4678462573022535,0.6211899231168112,0.8297300745159579,0.7120514728381035,0.7514214248758688,0.7212501503783999,0.7194545995741035,0.7550082636932807,0.634701105495115,0.4199582018576482,0.6685245701303515,0.6826466808995733,0.6388947066654329,0.5991589798961998,0.5618942968126039,0.6191574908218636,0.6267052701668869,0.4080295941265719,0.5659983312538674,0.6826629687699737,0.6582971263341495,0.7340031298859642,0.7683707465273422,0.8402349253126902,0.7972016328941716,0.5941704662105787,0.872375566835875,0.9496726484806324,0.9013316807822016,0.906537636476966,0.8390550408908828,0.8832040565851216,0.7717418221349561,0.5512622296483949,0.8175443535962224,0.802628645121942,0.7509728608110198,0.7671295602232977,0.6976225519022132,0.7575327036105697,0.739123747304113,0.47279065232610185,0.5795724069872743,0.7825976466388251,0.675095181007058,0.7065578603113205,0.6764738592768831,0.6072949558416663,0.6109757224248096,0.5661963578549671,0.6341513237484482,0.5045109010938704,0.15358067078032178,0.4209026063833692,0.6703821946687554,0.6169402020799888,0.6388225792285476,0.6699061566041911,0.6386804863252866,0.7598847859521056,0.4627060812136756,0.3774130038979333,0.7199991166298991,0.784678301601732,0.7527129359933622,0.8291327081771187,0.7951430842017597,0.8665529049352689,0.6634222070589892,0.34638168599461183,0.6186068086956449,0.7584315531680765,0.6897951542499716,0.659889136476218,0.5984134294689549,0.5340826481827525,0.5845444337706605,0.26257186548476863,0.2564149554576671,0.5333197756199675,0.5189522940087219,0.4769771788419197,0.521144481136234,0.5294032290150814,0.5817081413465521,0.4803731017126154,0.0955548124694321,0.32074822526760904,0.6355484076722004,0.6472789379138275,0.622975924961751,0.6518088406341298,0.6058797532032036,0.6902859298889643,0.5217923952280721,0.1379851499055622,0.38228850950700677,0.6814900939605137,0.6744347923186025,0.6264782298763794,0.6580145916831786,0.588320070695997,0.6352018364904466,0.6374680480995236,0.3603065734428763,0.5748365773622792,0.6875301257577835,0.6319276821027819,0.7203980575664142,0.7601579654422896,0.731548397706733,0.8533181707793043,0.6455529175687094,0.6813179315392968,0.9026163589041736,0.8456945686188222,0.8405932176913136,0.8998928239790258,0.8344907271123208,0.7551530196799212,0.6815536257068802,0.33693471274846987,0.5081675275383981,0.6456612755987101,0.5358993683938986,0.4819030121289698,0.47017343126208955,0.4305319454144225,0.4086163200453825,0.47712654161531676,0.07492280141880547,0.0,0.40142586569955885,0.5113725054005549,0.4737625960682075,0.535064134706773,0.5747026274644207,0.5451339214447417,0.650079649520428,0.4072039016116773,0.3588133319682507,0.6219966479898713,0.6377577891750899,0.6021163549267103,0.6319189297351575,0.5968024962325553,0.5855689934517443,0.6800755641305498,0.38089508122783533,0.47065692474732046,0.6664201555089098,0.6388846138581399,0.6323343978050753,0.674554074072617,0.6638701328561973,0.646009114631676,0.6880196919103012,0.3560245006454057,0.49572867733649684,0.7211243871718129,0.6840204493069102,0.6933191853472587,0.7313113635359163,0.6835576743314138,0.8090099359102831,0.7610748147746906,0.39015616607212156,0.6101052631909814,0.8505357113966037,0.7926129655867169,0.6289487774108653,0.5751107357815122,0.5604373460812502,0.5354755047167923,0.6457711166044029,0.34593547001869007,0.4022934815706649,0.6639397517908745,0.5387448095771887,0.6502789235558555,0.7579777651949144,0.6418905988139372,0.6644103754708048,0.6679000612313124,0.7811651244591111,0.9194450528656666,0.9117546827629468,0.6513209688846668,0.8274905952782445,No
1.0000000000000002,0.9454678224921385,0.9209398789040393,0.9058545785337844,0.8982601165608266,0.9603441828417492,0.8466364410090608,0.6745091080399732,0.9232481983801464,0.9499307381308626,0.9469079466515267,0.941135176834148,0.8756784086138769,0.858103122691326,0.8699923309217878,0.862609438169373,0.8530159987329917,0.5335129616970904,0.07808314284602069,0.15182013061823052,0.6184533436562674,0.872794839681333,0.8438597448155101,0.8116848707951456,0.8338317432962448,0.8453031528676875,0.872011914241672,0.84162684487109,0.4467287883133335,0.04794581190781377,0.2673126708010014,0.7268063273664016,0.9063094633021123,0.844358770094513,0.8270719892148659,0.8461975499893881,0.8474933866460279,0.856186680923033,0.7280356531122736,0.2648630898767168,0.0,0.367864800421442,0.784005385695034,0.8699640513751785,0.819503191201395,0.8581678859161148,0.8694473361073418,0.877246131670127,0.8727830759317328,0.5149573831234193,0.076983704780617,0.2074630455248847,0.6749288436350673,0.9011361345805173,0.8473660459532455,0.8375389799059068,0.8790365198856878,0.8631226764470481,0.858723503934516,0.8193924816972922,0.42225991034002397,0.027639480466968402,0.2511082146093244,0.7139142626016934,0.8792489783468123,0.8089074228953288,0.8218332704680564,0.8279513296951218,0.8299601261912304,0.8488655630839352,0.6099539179250588,0.13793481121494655,0.08929070074941481,0.5406056066081895,0.8447661662489845,0.8410252717758782,0.8108061144697778,0.8693609821166162,0.8763245458626636,0.8757966100452068,0.8176730568984765,0.4019909270988782,0.05408655735297474,0.34441016444251216,0.7766829105752795,0.8858910101204753,0.8218905170642772,0.8506412581163032,0.8748799637913847,0.8774634109660318,0.8782651187137078,0.5485018071693439,0.09610433728744949,0.1773599531120451,0.6436600793129761,0.8797539943075197,0.8238209226456192,0.8186697777460281,0.8514716635249167,0.8487766193358717,0.853901301067644,0.6724516540534216,0.19753848945010644,0.019316514394464912,0.43497640916018554,0.8053943508250325,0.8352350463107576,0.7798206342722691,0.842564196771155,0.8570653785539986,0.8483812454818789,0.8055547411639183,0.43213699803645067,0.046790796141327196,0.2744917767825592,0.721061276088568,0.8722032089660761,0.8054329043012631,0.8360812856223603,0.8631914032904884,0.8790691869695484,0.8518473220815685,0.46404901816356325,0.06879939643916066,0.28651907923755804,0.7336434153982043,0.8856801981145532,0.8303116538534445,0.8653390335472742,0.890151493863381,0.8754375525055156,0.8322680157683593,0.4407067313446926,0.018982721221437515,0.19929139969727738,0.6726868723989601,0.877760602108036,0.8054069433146396,0.8185539589170288,0.855971239909729,0.8539334854486069,0.8733432327488397,0.5873007965072217,0.10468847791281832,0.04487691228738955,0.4886093746717626,0.8304424147740297,0.8699013971462024,0.8196277324862702,0.8719262857355659,0.8851472800625759,0.9072747081361621,0.9851133445335398,0.9744580901945274,0.969394475478168,0.9212955022732949,0.9124293592871922,0.9487405296582099,0.7490023183789567,0.5734382761717685,0.8832661124861685,0.9556786482677084,0.9353838706273716,0.9288108953846239,0.8727962870062187,0.9242695902083147,0.9237428610916669,0.7131119279144558,0.876183403473078,0.9717003391584196,0.9637827712807427,0.9612788506581083,0.9067753546535118,0.9528889079144311,0.9492079964396847,0.7061340370345099,0.7721322905024162,0.9766495869132219,0.9448373061736819,0.937347336327121,0.8991860721494078,0.900070927820692,0.9465824900935405,0.7493830960864469,0.5738187891123945,0.8688778790567604,0.9423051825020832,0.938003155251051,0.9415800333316555,0.8895789631278774,0.8927714071103001,0.9396878497533028,0.7932169026472604,0.6053911040029285,0.8808128834144677,0.9328903800858395,0.9291898732189205,0.9246037234434457,0.8866211931770989,0.9348547528499169,0.9483600250897652,0.7105377460111597,0.8080679829920256,0.9857748094052112,0.9509646723610949,0.9457313229820634,0.9164246320021008,0.9140099578034471,0.9789090736649471,0.8676595290413258,0.6215083138711,0.8599507774725204,0.9760440338522784,0.9590998907134061,0.95244277935007,0.9071969045460875,0.9123051586767084,0.9245088241779753,0.67436827230359,0.5674413048694837,0.8882643910633672,0.9174522026356213,0.9122466580080795,0.9102578488529651,0.8790948177222264,0.9310245336774747,0.9242809272650019,0.6524652177529535,0.7265181907124909,0.9535928617427942,0.9369226879834327,0.9530382008875418,0.9517505306225649,0.9167372763381365,0.9744162668293923,0.9132954032138347,0.672589724833837,0.8663104488473101,0.984938927134934,0.9563489688723961,0.9455189853387738,0.9201781435412457,0.9120358275953271,0.9564274189522337,0.8289293561230677,0.6603860230913148,0.9196792651331933,0.9418819021223779,0.9270965621904594,0.9180392325967335,0.9002424749435483,0.9448714711423707,0.9705774996577128,0.7674505252359036,0.8263153991089471,No
0.9336083186753934,0.6374961188931831,0.527687244404099,0.8104210702503185,0.7875611128027862,0.5996605784090463,0.5816418948093847,0.6332235052010657,0.6887019520363149,0.7293359861140578,0.7590659642551594,0.7097018611429524,0.764232155391789,0.82331218738335,0.6965506227272453,0.40842382769850216,0.5574459519035875,0.7908827181868714,0.77090251366014,0.7949433180233865,0.7830788681700371,0.7840650357058048,0.7999893812800292,0.7461636116860122,0.7210789303633987,0.770571427835191,0.7545795423935251,0.4959059891658446,0.4435806759465364,0.7717598585450205,0.8370913930369344,0.8173833459349982,0.8358531210441018,0.7986167115441549,0.7778726651877883,0.8023114145141037,0.7666812989000886,0.7419330648449545,0.8282904201871466,0.8114982738911658,0.5339864612431977,0.46868468800552243,0.7582852675975342,0.802362642582765,0.6774737607916246,0.3745850633634358,0.07020657758164761,0.15443445222879815,0.5421627225384937,0.7791665573232376,0.7411524891704682,0.6669722328867023,0.7259145533128128,0.7255699883615976,0.7206445504088423,0.760900091836402,0.7729954990874259,0.7449186671264103,0.7302357801584582,0.3998024526225683,0.06744474348128571,0.21187056659537307,0.557039768151314,0.719154944558877,0.6975442615602021,0.647860994057325,0.726425249689479,0.7419963332664368,0.727716123564947,0.7385553722215732,0.7345766705976615,0.7110730685272808,0.6273935427560269,0.255117398860768,0.0,0.2585802603074876,0.6344671164881721,0.7631838414660421,0.7005856036120963,0.648409752495346,0.6936455114493119,0.6620213103920645,0.6133543139257258,0.5700471090834496,0.5159717587520396,0.5419827672799027,0.7256896141100189,0.6586385373421415,0.2886296287444019,0.20968075630067218,0.5654528109019199,0.8831195176349953,0.9178425066213427,0.8055476425564094,0.8123506476554143,0.8168869673698123,0.7842120792873948,0.772447749548099,0.7672609829135402,0.7381701907855895,0.7281046782866638,0.4205353867505248,0.0674726538087016,0.16897280893094946,0.5576702704110776,0.7787793125833418,0.7314459794966726,0.646219605793521,0.7161762955105675,0.7292150577933068,0.6827640564049946,0.669919620040698,0.6821464282765592,0.6428820506237238,0.6733684865515646,0.4536023686590316,0.06848175476968876,0.021429722058857292,0.38642158085054645,0.6692794311699799,0.6921996591697963,0.6631386051079031,0.7457646219299234,0.7753325989853008,0.7852019096988296,0.7825915517630542,0.7633995212395135,0.7299808089512991,0.7289912868388737,0.41941265059670974,0.07460059639593375,0.19940116092125382,0.5859045418783044,0.7856157778520203,0.7490078489362906,0.6623014592764696,0.7088437062298087,0.7378936151073494,0.7825843752024195,0.7956183618699744,0.7780405852546088,0.7296686961740311,0.6663225207583363,0.3163760799042734,0.0358738422078293,0.25870886828179485,0.6226438718619403,0.7406912632104106,0.663833111057798,0.6535355778466156,0.7335173173453182,0.7336023278258554,0.7657709418946794,0.7639498298783356,0.7223659545570602,0.7294976499120633,0.4547451035648742,0.07394040299452742,0.08310363808586207,0.4639823589392049,0.7477161253875748,0.756859125236399,0.6614657356383651,0.6899968572339001,0.7025698539064498,0.7104512872320317,0.7356016140890549,0.7518270438259913,0.7173181759448233,0.7350431240002104,0.5083768301643168,0.13568854564639143,0.15594720774587634,0.5327103132194055,0.7633655671776349,0.7430489490391796,0.7141132333216207,0.8117044462556786,0.8362728062413647,0.7093716468383817,0.4489866044165316,0.6327471884573044,0.8291950254128808,0.7773603868574492,0.8036137956341898,0.7901816270483055,0.7635169874038308,0.7530162318734588,0.7473633473124817,0.7326291886552181,0.8171806924348053,0.8031690991949312,0.5447223126211318,0.3921474523732922,0.6919683439648785,0.8101669450367519,0.7906998763611301,0.8285421928555652,0.8178912297778489,0.7929436646724921,0.7893684726214738,0.7074211096858376,0.7403340912652758,0.8017548924925293,0.6749718608553026,0.36455237966848064,0.4550719955310949,0.7541468311827426,0.7971835931654787,0.8405308143017372,0.8496422237730539,0.8376223520559745,0.7947433807627149,0.7703197813639491,0.7248804397381305,0.8068664971900883,0.8489302113240098,0.6968248993187467,0.40692883609316644,0.570692268965542,0.8166136460037337,0.7912225967156428,0.8217717448693296,0.839393660701478,0.8350816490969242,0.8314853639167057,0.797258303028811,0.7166995522141071,0.752586355219071,0.7427992505746486,0.502092067407151,0.3786648229780183,0.6699917952043453,0.7320039854339997,0.7334184832729465,0.7434987759474676,0.7356922051184385,0.7534809736465333,0.7967174252502394,0.7609318702849648,0.7159148467536973,0.8123134863769617,0.8315850157769888,0.5940868160789348,0.3976743672587033,0.6816421317354875,0.8257838859852689,0.807362235247443,0.8296410717920006,0.832686537309858,0.8458908073389366,0.8843716728308919,0.8552353087106359,0.9046767862444842,1.0000000000000002,No
1.0,0.8744010872727255,0.7446659552298178,0.9267899269582465,0.9302227008875643,0.9136098084676689,0.8986054548542837,0.8728969696987472,0.8155671262593738,0.7781082220578179,0.6532755032843887,0.6091158509732459,0.7988206379627782,0.8101541812114252,0.8221643237207095,0.8297522293847532,0.8212822319911846,0.8424575820446307,0.8479115883341002,0.6989263679220956,0.6668378736799128,0.8539527751533784,0.8399606530714914,0.8407238951590479,0.8413565512001433,0.8127090081835635,0.8350678720685114,0.8322753375548015,0.6698566314797294,0.7053746921659909,0.8316870335054802,0.8329956508989613,0.824814396716983,0.8164583253566844,0.7990156838438767,0.8323945229463596,0.8253165200120076,0.6481364372668423,0.6504091335386204,0.847651689705923,0.8522556901105449,0.8442785201298377,0.840094882083068,0.8342796835777133,0.8763722826364462,0.8628166911958541,0.6620201492934268,0.6231578633704002,0.8204998091076985,0.8075631668071843,0.7814818282732883,0.7635491388770363,0.753784873472692,0.8199740634860044,0.8598107797983163,0.7138659367563747,0.7595097033197757,0.8575350187818274,0.8158485697477622,0.8393157769766204,0.8643492503326353,0.8641039580552698,0.888133032212473,0.8338393514643692,0.621460060324442,0.6661183190831792,0.8952612289669892,0.9257873481334911,0.9812650824758085,0.9442976742990026,0.884717562545313,0.816057321731581,0.7254696940126277,0.6217622432609355,0.5433423876783028,0.6778829274569125,0.49779006078324883,0.15535194771700866,0.0,0.27939057103351095,0.54769176529999,0.6710937269149149,0.7593858899162227,0.8183031878236899,0.8795209096157748,0.9212141106995881,0.8582062004517323,0.8399207229880274,0.6022588509129287,0.25180388599301695,0.2520363482042407,0.5904690948955416,0.8083266128628799,0.830334304574003,0.804936403918505,0.8094722038417643,0.7690965385337882,0.7569859612136889,0.784313444626741,0.5532456311076646,0.21982176151010835,0.2910806139971083,0.6362885124210689,0.8070226028785221,0.7554351366583589,0.6924062447948376,0.7024772687077081,0.7259131187782075,0.7500177538420001,0.7507108268226139,0.4960579987616729,0.16902379488138153,0.25644946784659095,0.6071940882464322,0.8201049229772857,0.8199699689858593,0.780114872456465,0.788614406600576,0.7934681462576714,0.7965903832920154,0.778068624392354,0.5124799257570021,0.18413561517580646,0.26980545407804746,0.6137149225900476,0.7822101700884807,0.7687753410042424,0.750337291042563,0.768210017827397,0.7777104600476414,0.7781624940216827,0.7458127242152932,0.4613049906426898,0.14371593770435775,0.26218319245591903,0.6104876987057439,0.7842660561586872,0.7746620371658173,0.7529855664946945,0.7873045197679496,0.7889484312214619,0.7855516204569408,0.7932722535939707,0.6276216646676516,0.27537791486592345,0.20644309201056132,0.5341459313511783,0.7755325907302701,0.7926173502202909,0.7660935376506639,0.7765923074626127,0.7725132837529485,0.7582365903814237,0.750105615756449,0.5701351944606736,0.2119702537585444,0.12519683993584918,0.4471829316122595,0.6982177547785198,0.7424666974166356,0.7919017165079567,0.8374729035853923,0.8529179070961153,0.8586962468183306,0.883796441715847,0.7562271279946471,0.4193725525088283,0.28320468918292274,0.5706932797084738,0.8601816619030007,0.9322471397368675,0.7761591624940749,0.5837928780308561,0.656582629762527,0.7735508742981088,0.8104193298612676,0.80215291074038,0.7652258417609865,0.5550832274952753,0.1960574125895853,0.11346704126930951,0.4366318494334125,0.6857500180634806,0.694825788137976,0.6525298259488848,0.6995160947826848,0.7598524291396118,0.8315510047291257,0.8453090323659473,0.795576210193188,0.4880085629924167,0.19945706364437177,0.36030278612332745,0.6948576342311115,0.8307864099218956,0.785344438401343,0.7723445295068216,0.7943115093282773,0.7913822160456747,0.7873293558436365,0.794917090331219,0.6270536260223969,0.28469955470906183,0.19921414991147346,0.5192203296067779,0.7579277347505851,0.7765373298076972,0.7343495137794582,0.7484892676099311,0.7561104089227915,0.7581766241734766,0.7487501186073464,0.6975348059557038,0.3771615562378434,0.1358808368983082,0.36968055736780525,0.6903417140720136,0.7228436031873544,0.5703091970406249,0.7633602251142642,0.8242115664031655,0.807710997676611,0.8065378648416961,0.8043919403593816,0.7915257054576346,0.8294344723627962,0.8158587422277828,0.6332773466667518,0.711934170518352,0.8683113299108036,0.8450262739222354,0.8458483467486966,0.845544351148865,0.8238656170151724,0.8467849307566206,0.8901440142256225,0.7854768209340655,0.6394403987689965,0.8461814647253572,0.907232038860317,0.8987535430777756,0.8344400810110135,0.7654748625187506,0.7106948362435641,0.7431908783749546,0.7525742242130864,0.5803857709697333,0.63935509426431,0.8267189524529155,0.8629303705483069,0.8608894588421256,0.8079858471102106,0.6878055440114261,0.671860101763565,0.8888547875006578,No
0.9745812635836789,0.8699477682316624,0.8823861338599662,0.8696078960819863,0.8502251652544083,0.8298465838922172,0.7109724019933549,0.7774679464537019,0.8810629732922223,0.7463088200878728,0.6780497124703392,0.8990200009442996,0.8740637261565302,0.8676311467345236,0.8758126305359925,0.8592283997865883,0.845066955376136,0.8247898165550639,0.7154352073170126,0.8176338422748145,0.8942335263621398,0.7244569771445909,0.6593835635269653,0.9132930098530837,0.9399887141795343,0.9072965787817974,0.9271294454876876,0.9091071363937574,0.8910585254058451,0.8579672560283832,0.7614047991524971,0.8715356484485338,0.9034068163316943,0.6879270448094713,0.6986080979402552,0.9389927969717798,0.9141039898782571,0.9120077887704264,0.884537094049687,0.8539516261091723,0.8605442886001003,0.5766300904867748,0.22382655429881515,0.13018050660200386,0.4379203728854454,0.7706085811663294,0.8683017161097665,0.7411930315900944,0.7447622218127495,0.84527824953099,0.8589868420504198,0.8789400021951524,0.8746236732497653,0.8555341413933654,0.8666306674980252,0.5844201645290593,0.22632945169608631,0.07383145545214875,0.35526108718668137,0.702458193979839,0.8461082454447361,0.7216433295298755,0.6770590685792582,0.7953094183475943,0.8086465964204884,0.8275144137329243,0.8407539760231667,0.8099897955623573,0.8387342321159744,0.7384625019999916,0.3963322076131871,0.09636906971272985,0.2135697336070359,0.564491412962472,0.817170639523792,0.7660083740269664,0.6446987206436777,0.7505440968439104,0.8076863261833217,0.8266027759113287,0.8413986350343253,0.8174982733270629,0.8689093896488499,0.8303039431679008,0.5050622689958576,0.18671599174999753,0.24583601479607564,0.5845807541807223,0.8874074515030349,0.9096802919542227,0.7388400889701391,0.7341565060527736,0.8155501324320019,0.80989089388733,0.8202789508797158,0.8083619632028208,0.7999254691145911,0.800079442589971,0.5059529656638267,0.14949121081651962,0.0,0.28413787032052507,0.6319733141506855,0.7932417257898444,0.6778960957503827,0.6336879634131948,0.774954527991136,0.8165214858571855,0.8561091298195064,0.8649464361953555,0.8273560120165088,0.8630502681124185,0.7221897218794143,0.3800746428370262,0.12835615208580975,0.32391506024584826,0.6724525373993208,0.863770004694688,0.7714855281342946,0.6761174233551289,0.8002358679303335,0.838798463766166,0.8527614693647393,0.8510871676288548,0.8085266124112732,0.8531985916602413,0.7042723606600639,0.35468028307486243,0.11466259993912487,0.3239490681427355,0.6658195490634412,0.8503273405432675,0.758919212627743,0.6915491358026068,0.8080338812852256,0.8275412818548126,0.866163856162964,0.8716931811222924,0.8366152351390664,0.8522741240340354,0.5910136205704092,0.23516771351008192,0.08759829080112957,0.37134610754869257,0.7053342593480795,0.8389693207525711,0.72192992353522,0.6993774256486504,0.815547533801562,0.8279455921609559,0.8447041236034644,0.8298620679553846,0.8031231889716307,0.8400034005786797,0.5948198172880556,0.24056465967557172,0.10288197629870743,0.39104301078190706,0.7269146025513135,0.8351610685643797,0.7001829392946529,0.6999985282462723,0.8209699186687206,0.8311713006763982,0.8437776942000662,0.8327630543408205,0.8158022153723027,0.8192609395315377,0.53252993196328,0.19315609121501431,0.1724008221240071,0.5020134455530428,0.790273725189735,0.7915626072542371,0.6679795004093837,0.7633912488288043,0.8286491179954517,0.8558494478150737,0.8475477281259877,0.728379036827245,0.7840809837132249,0.8777354502031743,0.726777285546916,0.6028070523850569,0.8445562073068699,0.8907927649463875,0.8633970020484064,0.8820654683089754,0.8719500931487,0.8663766911880334,0.7948852737526072,0.7182663881212753,0.8551325259722998,0.8606100818931345,0.6160264636292428,0.6033889127193107,0.8748874456037231,0.8841571391750599,0.8565352247259158,0.8842117266116823,0.8772859531623073,0.8668394870443755,0.8069099886262,0.735785131218193,0.8607567566005226,0.8514670104091006,0.607821421028445,0.6640602721702334,0.9148181686802149,0.8980151003845199,0.9074604137907752,0.9141951320508416,0.8779670963807987,0.863700825445021,0.767136270213581,0.7695812556757428,0.8919167300702721,0.8173138323718746,0.7377561014572195,0.9196692103262786,0.8694385583962135,0.876883023010128,0.8907461627838443,0.8808591066086789,0.8742632459720819,0.7841825413271665,0.7544593520532418,0.8906331215556208,0.839637088597872,0.6305671247295938,0.7937989940591482,0.9309560690312654,0.8740688530482351,0.9036008499469045,0.8989996436356699,0.8642485177651459,0.8312216397933206,0.7174077862344982,0.7050126303669971,0.8348381320650072,0.7714524909866766,0.6205097282053403,0.8270472638079119,0.8878918176334686,0.8468128502878117,0.862058127312696,0.8510277781844061,0.8470017606722514,0.8385155985140625,0.7556420242345087,0.8920965303643796,1.0,0.8427504755324219,0.6672401032753091,0.8834882232142204,No
0.9418592950259921,0.8393703239490375,0.8402147215408253,0.7843759660247973,0.7974131300657832,0.7679056209507027,0.722158619070671,0.7405088075671227,0.8509739364560951,0.7093474127381332,0.5359974383613473,0.6971868835030324,0.8319876774289656,0.9028453214852283,0.7020992455470823,0.8734579729348226,0.7755061456484262,0.817261133709446,0.8623728650507596,0.8603981197329778,0.8247551355409262,0.8351669062330975,0.8345476937750997,0.558923036676001,0.4142349014668594,0.5991014232034186,0.7473138351293258,0.7467058882751756,0.7305506449818875,0.7644117791452367,0.7269401466897762,0.804660309034336,0.8338756114599573,0.824212956546774,0.7888070422179911,0.8145266287914588,0.7255360802962141,0.4874102200975239,0.5847822173486814,0.7370459683246313,0.9200120443366533,0.808744123906942,0.8704885658211237,0.8263606108747426,0.8966263183468626,0.9179818547521492,0.8914683190587316,0.9156368933382475,1.0,0.8853120316086738,0.44616215270089343,0.3058380539917671,0.531478965450427,0.6821264623030268,0.7789354890629911,0.5150925590028326,0.6885814920533,0.7258368287499386,0.7448696546934181,0.8113437150580722,0.831443866902283,0.8315346006473172,0.7765029147609779,0.8075761848791285,0.7584733805608819,0.4983273439283975,0.5659543758765149,0.7303671986725035,0.9053203333943518,0.7799323337919284,0.7137372646799589,0.8577876887497129,0.7913270273240611,0.8153503638100674,0.7632999462671175,0.749437478363677,0.7644806351649143,0.8272452452119565,0.725430710241052,0.477501874608504,0.6002097293919402,0.7824447755464421,0.8828873059742484,0.7835512867518628,0.9111971704110342,0.80358806073313,0.8362163124313726,0.8483449808904786,0.8583801676099112,0.853023295113271,0.8326929052170806,0.8921814970448754,0.7741600627201257,0.5063431746324474,0.6228531216081135,0.808988991101574,0.9680544624374336,0.7682856103489484,0.8777425781639687,0.9316366084713801,0.8356929115493243,0.8636200419490119,0.8696306066587636,0.8382252222383682,0.8181708477924503,0.8572100115259,0.6478895262083366,0.45802174818228325,0.6314941378990078,0.7556488531194083,0.9053305376881204,0.718358738270239,0.8114023017005612,0.6959161126566098,0.7043364176458411,0.6642198522846003,0.5827428181016834,0.5852200075721306,0.5881960237907546,0.6326546360266674,0.6104136235353264,0.15236784017762783,0.14050993821332414,0.586653128103042,0.6296190507705388,0.48819121978950575,0.3283302522268352,0.5651095501935948,0.7569750032825069,0.726299452713377,0.7599422809107299,0.7819187572016557,0.7637292975348422,0.7313698135233868,0.8382130472873399,0.6135754773294662,0.16404787383643482,0.4216912764837031,0.7337657177282289,0.671218737539816,0.47122339141521286,0.4140126182133592,0.7090766245071132,0.7841795043388919,0.7380386941747554,0.7549010257321269,0.7597801200564334,0.7605330288387746,0.7194558016449766,0.7342919470973639,0.7015291141087534,0.21522975545606338,0.2044005702169338,0.637549185516324,0.6674710240170265,0.4699987920235005,0.3699447336933779,0.6327148573446366,0.7180068802561852,0.6702392518366049,0.657094211173801,0.6852472806166419,0.7231316073470504,0.6929205925022974,0.7194749192351995,0.309972026815164,0.21746652927015475,0.6326072880402309,0.6517158391144267,0.5073650932632705,0.37286462903406115,0.6118936028572648,0.7310727487228479,0.6740309192961829,0.7133213919756365,0.7361381967592902,0.7116875116536749,0.6264798334487978,0.6197560070691832,0.5325187613494191,0.04627761449894985,0.11329257230476042,0.5166153438895811,0.5062771037176099,0.2941161253178368,0.18501734809354398,0.5435738914685753,0.8930763742698495,0.8606290421678908,0.8091639419963523,0.7975606821580499,0.8202368293189921,0.7933595681632926,0.716352615724122,0.7153048951318435,0.325029601022091,0.33443541922981224,0.6686267884816623,0.6162043736170557,0.4561100472952293,0.38575494778491537,0.6420555070189997,0.7212590625341204,0.7004654903590417,0.7265303569141004,0.7325797103416023,0.703330374483254,0.60867592119271,0.6433714249280351,0.47789797564975167,0.0,0.1771795666784488,0.5563129914293001,0.5341146009030848,0.3586906120859701,0.33671966108288665,0.6404673918651902,0.7571974207495895,0.7166063510262566,0.7510659428142112,0.7656701845790361,0.752876562897804,0.6774893799183705,0.7172534928708192,0.5699061967634336,0.15764320269822374,0.4305792317988395,0.7015467500878181,0.6379075505467537,0.439060368623577,0.5018180228078242,0.7453953863326861,0.6832187529254496,0.6239305969822393,0.658465808885409,0.6849516357030785,0.7002939599130489,0.6685154728676963,0.734372022369012,0.33166266039890857,0.24735955605448634,0.6912712468006652,0.7259574237412805,0.6000042972637383,0.38994559335356627,0.542176067578453,0.6521482335296409,0.6206491517413721,0.6826175777076293,0.7172067406551381,0.7398220655547139,0.5264576740015015,0.6040219903913484,0.7864257601977118,0.944323139543314,No
0.981260761075415,0.932292338573531,0.9395283671545359,0.9362770901894225,0.946358134271425,0.9066844425139179,0.9312046499877519,0.8588027841360649,0.7156174383964139,0.927773342325147,0.9238780163196115,0.92069358221932,0.9427279742062985,0.952992482623492,0.9397830261175325,0.8995804146566718,0.9531791751596453,0.931404900008593,0.6383703664755777,0.6302409623303061,0.9303178292161028,0.9737110494842226,0.9566581937741517,0.9579099861869068,0.9434371191111274,0.9341812946637839,0.9003029186813701,0.9427750938408704,0.8710650275264588,0.5669647273346287,0.5806407055893986,0.8971159323031245,0.9760005816723466,0.9704678940369852,0.98894933766405,0.9917636244208928,0.9693311661150709,0.9145251882237689,0.9511482975667976,0.9123466723965986,0.7010197448391496,0.8870733128220555,0.9927756403308509,0.9565498676114078,0.9781973894360084,0.9658678935694139,0.9645003893800684,0.9045973889579039,0.9129713281316248,0.929900204987279,0.7146683974077795,0.7047692577301957,0.9355560706773057,0.9179689737755442,0.9469580377419383,0.9556671131866933,0.9420971657097846,0.9285333456676329,0.851322541167357,0.8861728573871289,0.9256254902792868,0.6906611372791202,0.6049888543531347,0.8834032879269994,0.9423664354225604,0.9280141932587697,0.9221764843619608,0.8823740747597916,0.8444000435652507,0.8553048939709235,0.8819310684955189,0.8681173668279697,0.8589953516707155,0.5681984560640053,0.18961881793932311,0.037701543930963255,0.3350326665307185,0.6666507979444368,0.8241289474921921,0.7997814746733295,0.8586405490389045,0.8942300624607261,0.904161854291828,0.8960211805196109,0.8649328099359489,0.8490224533069025,0.5465788594274624,0.1743242754627483,0.08197246665877844,0.41224257043823653,0.7579607787993631,0.8541390078474506,0.847744097090699,0.914272736241193,0.9157194505744565,0.921646101293078,0.8956428778630979,0.9044780940361273,0.6521483224615475,0.27691714686433666,0.13657905522419944,0.4442632762249821,0.7870851934282926,0.8771456305689352,0.8648749893812319,0.9280647770070313,0.9333244007912914,0.9341805379003024,0.8933632551348624,0.9005444098393122,0.6463209852201038,0.266252456829009,0.05054462667804216,0.31023707068713025,0.6814605677472446,0.8634735637805718,0.8490904289702695,0.8851236329247264,0.8942573523062033,0.9137901313564719,0.896972834735709,0.9215769010585725,0.8138395143434317,0.4543503240544705,0.12660799234133524,0.22627604084041164,0.596684992340648,0.8611137042820788,0.8529557585829249,0.8645487768821599,0.8988165910325899,0.8851326366763309,0.8652756050989204,0.8469477452988919,0.81961901593188,0.4974136395087837,0.12037539265329966,0.0,0.3188401037827412,0.6894620228721903,0.8535651777512415,0.8578741898822347,0.8879955294224743,0.8725281676804887,0.8857331263062537,0.8683924824574619,0.8481457258639445,0.530852013020875,0.15417804902511334,0.02003728992798648,0.3325289561917272,0.704240061108618,0.8732099733196997,0.853736986781397,0.9000955793990167,0.9295852634286609,0.9447985361858969,0.9057424403453039,0.880085695081915,0.5820685888693223,0.20067456992855293,0.005694350581472385,0.281307190979332,0.6502037007175917,0.8198017424895369,0.7991385420380365,0.854946262901442,0.9203574410183776,0.9387296536814073,0.9210246253500617,0.9138607514600164,0.8464033806430097,0.505927552240507,0.15506561446664924,0.11189478860523416,0.45702783284311876,0.7961733815071169,0.8633298018176255,0.7979364498996476,0.865583135409573,0.8801262397009558,0.8903367760180866,0.8626020873288919,0.8257521519835825,0.833144454412598,0.5388578085781054,0.16044646459268241,0.004077829580106718,0.3008464082905805,0.670054442671579,0.841776309132109,0.8400078656194173,0.8779496413175257,0.8866760520367666,0.9057291793210561,0.8875302347611477,0.8918873257990351,0.618227352514909,0.23761483477935896,0.05459909543409025,0.33923639234431113,0.7112677416539331,0.8833867015195255,0.8627967375229192,0.8929560587542561,0.9421225249425523,0.9118403026999838,0.9458539758838628,0.9548128630040263,0.6863587898156746,0.5749602404915116,0.8693032793800551,0.9799994211769428,0.9415510464143567,0.9550485182130556,0.9334533466069826,0.9376023762392952,0.8931074138621725,0.9060374311010028,0.9098675272852829,0.6674603906015798,0.7016861657196692,0.9267939940641835,0.8933245093898025,0.9324313556034748,0.9485127677678523,0.9320362011834157,0.9295912980740214,0.8561928278624026,0.8994936719428025,0.9613428203351401,0.8282982282515653,0.7919162610689486,0.9862680745416111,0.9587562450414385,0.982139058618195,0.9882207670695137,0.9558575882501269,0.8764041604005176,0.8622029361327269,0.914880625156227,0.7938295718212584,0.5382596028312988,0.7320673302540012,0.9626618845623057,0.9602207983028374,0.9999999999999999,0.9826409500328063,0.9632462833373406,0.9084466469406302,0.9327851195516134,0.9572898729214566,0.721152892749184,0.6020889849675574,0.8834521580833471,No
0.9828200668085758,0.8555571054311004,0.8820777430635198,0.8559228761692261,0.8458890643745645,0.7456983331240776,0.6899022594601223,0.8251484717335815,0.6957790968539093,0.40880611701509273,0.64944867886584,0.86500396505479,0.7731420147707682,0.8014379382844217,0.784489193394275,0.779463625329273,0.7086560730211042,0.7119555110015079,0.8803551078454013,0.7832534276035621,0.4486684910368435,0.575270110256537,0.9329157864178415,0.901460936613411,0.893662275567324,0.8813478197716065,0.8485237216325583,0.7706205578043615,0.6458869793250064,0.7834631430313341,0.7867523780629382,0.48294892084792984,0.4327780738154019,0.8484848486976819,1.0,0.9212878894927323,0.9277553591747463,0.8749024848755429,0.8432705536351799,0.8937097150634714,0.5930558492015456,0.12186373228422398,0.09032402840445397,0.4981619203846406,0.7373162085291707,0.6263204626363583,0.5755767289294043,0.7440060085144506,0.7874845620436424,0.8199344214849971,0.8006655803328901,0.8460691963968205,0.6520030886035695,0.20625039669560397,0.23645388025668335,0.6466517626353121,0.8147177648177877,0.6440048854248124,0.6083866440624526,0.7054638900809969,0.7137121249402489,0.7364088689653232,0.7012644857569295,0.739788630750986,0.4992929579781058,0.11929979845501593,0.3168218346916887,0.6928791233593401,0.7342407632170587,0.5701491623587511,0.6671937482344128,0.7710259829012149,0.7893702315190665,0.7955903175598014,0.7807328432245684,0.8157965730858776,0.4374011613528619,0.13028001890970353,0.4358408500730784,0.80165602515557,0.8184533059609667,0.617270096383606,0.6809622123117745,0.7647183219939828,0.7825920982460666,0.7815935558088327,0.756228311206752,0.7567483652892708,0.3634798356049398,0.07225111552601704,0.3877234076319036,0.7465382057628935,0.7650122918264883,0.6138486982416427,0.7120384073135306,0.7976713970567983,0.8063493639047317,0.780520496280015,0.8089893713088494,0.7725513938879018,0.35631848030525015,0.2870290489069727,0.6686070934984873,0.8166113053639821,0.6663553932094417,0.6630409457942785,0.7958335580375708,0.8079047647360853,0.809029795671445,0.7397996346050397,0.773826657075448,0.5845816718673214,0.17006452393690563,0.27678203581595007,0.6671446152181599,0.7515964104239266,0.5860750175650957,0.6428008684027682,0.7669090209235674,0.7921083883670232,0.7928889463692173,0.7761463987438537,0.7966923285115572,0.4050067821770198,0.08986607239176236,0.3920050368302128,0.7730720639241868,0.7943349753230802,0.6306537459983859,0.7401888325556425,0.8209674966164795,0.8221575888241333,0.8052203446970614,0.774901554225714,0.7552600796549962,0.34571539047126754,0.13300395057292835,0.47721782694353543,0.7725852191760723,0.7050154066712255,0.5812520960602545,0.7281213401143352,0.7753734415771194,0.810232812517576,0.7912103721153634,0.8492991139661319,0.680194893103871,0.34725409493086934,0.579216670076788,0.8669695841350094,0.7826065586325832,0.6536565527668996,0.7799414761742693,0.7756218065845397,0.7369871235363652,0.671429796712721,0.6675583930522477,0.5133849840892615,0.058686472668797895,0.0,0.4078151428614012,0.6452620692190187,0.5435129925757551,0.5256128818702552,0.5788674696903939,0.6497740881124758,0.7614937674896245,0.8026047316127998,0.7094744456858253,0.6851611331492768,0.6032770565407217,0.6601888514373062,0.7298465795407094,0.5016963550244942,0.2937946200429933,0.6294780767883763,0.7824501290586485,0.7356163248438596,0.808170025862982,0.8381854251946828,0.8672143179000695,0.7505889718922596,0.8324474223868563,0.9516888886458386,0.7378856654506336,0.6085852869438861,0.915528220987512,0.9350794762498875,0.8830771779166868,0.8783921924577842,0.8488233767898228,0.8126375465440776,0.6701389721873694,0.7799496907266992,0.8561215968043614,0.6113464253499044,0.44404913210946817,0.7854797768773301,0.91542770377391,0.8467302618283794,0.8975695986888907,0.8948741480720614,0.8773606077594267,0.7369300727868056,0.7929762769915345,0.9199969745806884,0.7375334441957802,0.4641131318207232,0.7529148855556267,0.9600965385310434,0.8501987105227,0.8748933934940619,0.8659437620219057,0.8558514709015177,0.7686155845729119,0.664348451338205,0.8203287749809283,0.8104528245612594,0.49042493843499324,0.4644495166744851,0.8269726522362455,0.8645014055750506,0.8237869730679419,0.8902777070665775,0.8839653925367736,0.8800820050960079,0.7708633271946734,0.7461736963250614,0.8957267875986288,0.7891239191177939,0.5104129204636756,0.7503926952925721,0.9672149773946446,0.8604790810620919,0.8744136825948754,0.8791870408441347,0.8723153388553593,0.7778100582536229,0.7061314819361826,0.8569132893905547,0.7854923306197148,0.4415616147915,0.4912822418272458,0.8748983254520786,0.8718274434501541,0.8419425623815866,0.8648683725117707,0.8427507754432289,0.8025394077050163,0.7014057553986848,0.8693865743996607,0.941833973909671,0.702960474463763,0.5160502813602705,0.8527309686842077,No
1.0000000000000002,0.9542274391272922,0.9468151371656917,0.9280909465466503,0.9274971458118688,0.7978911118889338,0.7248301006000284,0.8665705937337038,0.7940043568774067,0.48789697095655665,0.4736074151215554,0.811366744705593,0.9885940562392264,0.9605047663803643,0.9582416192186796,0.936393194174993,0.9421282796504526,0.8626480588777292,0.7110175732574564,0.8405559363603285,0.8867345127301169,0.6505313839016902,0.5790938801412269,0.8813021373801841,0.9934601035891144,0.966247766269706,0.9660528471543623,0.927689707118164,0.8984217099231298,0.922366813637121,0.9265317142917076,0.9305255994984805,0.7912776088109312,0.4330882893691618,0.09233702319547493,0.08346026028022696,0.4308661552881819,0.7658795679532084,0.8310247679163294,0.669379277197562,0.7455491348155776,0.8953759960591745,0.8941547844224669,0.9165113956879682,0.9170653660272832,0.9211302628741824,0.7366726626080644,0.40347585862349794,0.07708913129150813,0.10078050574884873,0.4552036456191875,0.7757375317263586,0.7964996474423607,0.6472859239700723,0.7677441628539563,0.8877392941179401,0.8902547507202485,0.9089012825249974,0.9126485668558313,0.9060231385901056,0.6296176329717753,0.2600922647711,0.0261553123601182,0.23615951771669236,0.6085700463751385,0.8618994764654011,0.7881650191696832,0.6338243865408035,0.7757499475763612,0.858882147253077,0.8706994151811758,0.8967256024077221,0.9019122576187755,0.9055481416986515,0.6592565176170937,0.28065233144081553,0.0,0.1798123523230371,0.5517249343415607,0.8244920886187397,0.7681380537225482,0.6336983686705011,0.796817077697068,0.8999588986999809,0.898374353870792,0.9159134758317029,0.9142612338223759,0.9160100480354116,0.6750362024390466,0.30313521298220086,0.023374055160618357,0.20364300296401355,0.5740012818024416,0.8337776288139429,0.7719882816762904,0.6454364545606233,0.8150730283860284,0.9120310597387151,0.9123894085129365,0.9248058403040749,0.9178442992669058,0.9140009182394748,0.6686210206254171,0.2998477321675345,0.007210271291940518,0.14741499226154448,0.5019845869235469,0.7933418125502805,0.7769047915248832,0.6311127517112616,0.7731457377754265,0.8879884701210663,0.90380622332969,0.9266536551833684,0.9177472119744832,0.9264670937635284,0.6970161969936912,0.3202437397277285,0.03573198863444421,0.20086198453195475,0.5439810189233458,0.8315866553377582,0.8079644756298263,0.6567982348354382,0.7909739515237459,0.900894203375199,0.9033881170101323,0.9185899928507262,0.9150221103973373,0.8522988178446615,0.5255698796985773,0.1514043322997886,0.025117083926157913,0.3348126927418907,0.6905644255572216,0.8402411662527347,0.6992889225629431,0.6630436136433195,0.8556216420912954,0.8907505431042688,0.9011873705477629,0.9050582041367106,0.924057654239862,0.7461880809636245,0.3844007762913841,0.05304972402686475,0.13172715539328422,0.49525890487650365,0.799126149536868,0.7918315501548323,0.6267859707765331,0.7466955503528914,0.8940703852349048,0.8956223856487389,0.915865319442893,0.9144018442584023,0.906418149716985,0.6370573966744888,0.25766739871553007,0.016584952452497415,0.24678661610445424,0.6162864862544071,0.8381856399473737,0.7336195605749019,0.6484011475908966,0.8251467130573811,0.861531275413961,0.6006600993233386,0.440462597622397,0.7281817558903207,0.9770976074095874,0.9606945681079302,0.9562193642599084,0.9377454182528582,0.9357855834567821,0.8363816376088467,0.6808889688027591,0.8183307873005186,0.8756423041578785,0.627108696944632,0.3665448428242844,0.5676802654548097,0.9029085138222714,0.9802616263741553,0.9475261961828472,0.9367527764974344,0.9287571819036899,0.8943829919046593,0.7175123144208218,0.7798462987323411,0.8939234698915408,0.7243735509607383,0.46938404394125194,0.6517141884048665,0.9407621203300855,0.9689439729669982,0.9547904475582556,0.9448810601691042,0.9407384199613913,0.8463110531006415,0.7243452642078534,0.8682384117358237,0.8874817288102512,0.6212484151732183,0.46347348737607236,0.7527125423802659,0.9859725143647886,0.9636320764325248,0.9647878234235683,0.9462449545503053,0.9279915151630045,0.8430344039423365,0.6885874832614587,0.8161370738461344,0.8578849360263856,0.6265628152951133,0.6167385821153186,0.9162975711604748,0.9828209143310098,0.9631006665244533,0.9608045263744367,0.9494957119656331,0.9486583774036386,0.7938424701011075,0.7341467692075827,0.8845528349412941,0.8170787168526246,0.5047172285403121,0.42051027414157444,0.7455411462124502,0.9778548449590743,0.9585642950036886,0.9555168045265545,0.9434680171411345,0.9403797849143165,0.8920368129147773,0.7126519448310162,0.7923532653275978,0.8882388771461283,0.6843104287038331,0.4321138618811023,0.6352300066302627,0.9368630119056229,0.9611157116062752,0.9432962733520185,0.9223427972401157,0.8967992459966467,0.8876348577798698,0.7547214163265348,0.7427332003576161,0.9062699427296381,0.8231830303836429,0.5248185725975021,0.551551044989975,0.8750610181082226,No
1.0,0.8186705297107254,0.5576549217017589,0.584191662792854,0.8583108333762884,0.9735766297748235,0.9212194709598039,0.8959235022297501,0.8677126260615998,0.7953748442857508,0.7970173315202976,0.8208091085309305,0.6334356931726434,0.5547054315406478,0.7886080733844768,0.8964426033176341,0.8799802255462098,0.8779972783943658,0.8654903415462606,0.8130969468128305,0.7723528900525564,0.8404154401947922,0.7159651389107704,0.5067056438873134,0.6343981419270887,0.8696129440751793,0.8945047724722156,0.8755154975821294,0.8641143135178792,0.8549683249655543,0.780069716159116,0.7735563592805911,0.7779080406681796,0.5747636514467559,0.4415342406475996,0.6658736470873456,0.8476849514441575,0.815270516510464,0.8128687570305267,0.885425486753537,0.8907071101483116,0.8002105157738008,0.8461370136032252,0.8449593062030439,0.6346387273001995,0.5720104576241121,0.8076271022596863,0.8842546573523674,0.8669582238261043,0.8804930668551932,0.8694715334311073,0.8232751673588264,0.8139316822882748,0.8442489889161918,0.6713682926728456,0.4093683349462576,0.44247885000991494,0.7251758619575969,0.8900519217242701,0.8898364072095811,0.8956950375700264,0.8684129337417993,0.8513048320326876,0.8415143507996151,0.8670921602861964,0.8533420088109674,0.8230265727417386,0.5949243706339313,0.2978071298398892,0.13552535106428162,0.3280169409180509,0.6222770801319989,0.8073192442411116,0.7706580415045549,0.7931888153948471,0.8429458423930064,0.851829857028812,0.8340787552999512,0.8417786620694948,0.7283715961267652,0.4421303171579225,0.17942472114508465,0.21324357046739215,0.4887142969703012,0.756517387571268,0.835552590804277,0.7543440922639609,0.8300969850453096,0.8637877654849283,0.7939659023867046,0.7735014469639306,0.8035960712322031,0.6431503254941896,0.34349562541988854,0.09268726901193977,0.1892654298189755,0.48371703624332507,0.7257832581334631,0.7479543111232847,0.7185902091522696,0.8158492562561858,0.8343535083560846,0.84435246686785,0.857670548511528,0.7638943639731847,0.47862748435742997,0.19918026140618897,0.21300496390426607,0.4959091071832935,0.753602127579924,0.7902675830327973,0.725291097871626,0.8103316719151193,0.8406331581261234,0.8522646229302816,0.8466756977314914,0.8224759765510546,0.5820131451001638,0.28000841039451274,0.12707048005946378,0.34029199504164354,0.6325607106095166,0.7962175456007344,0.7399582147649993,0.7733540625118142,0.8406766630596189,0.8676942808492766,0.8856965201516848,0.9176248483753396,0.7310101806964562,0.4394645788864273,0.2325447743877028,0.3598188004140691,0.6292691744800144,0.8886921328718081,0.9584200011855687,0.7781428803910261,0.6398362975032887,0.6797418559311055,0.7293845865021437,0.7546150638274128,0.7827221633577123,0.6303034320743217,0.3314249256169445,0.08247839314810398,0.18320974029736167,0.4791868440020429,0.7265436935300389,0.7479155003731209,0.7257649761073617,0.827563723077554,0.8571894671165957,0.8570602239423685,0.859974362203742,0.7409874937839895,0.44901266500806425,0.1818411233633935,0.2346520738023913,0.5227498467981974,0.7673313459352643,0.7830700970278585,0.7506121242962924,0.8334695200042014,0.8389537961372168,0.8454659819322666,0.8502005880146065,0.8151149575194289,0.5575545010442072,0.26108772441999484,0.1809206137916716,0.4369327149383686,0.7201357909290039,0.8333312156193976,0.7706663924893603,0.8253840170213559,0.8302157486530429,0.799419223329834,0.7686861662827299,0.7165185175291174,0.47223402834949135,0.20510994247637174,0.0,0.1207718153315255,0.411252648666497,0.6636913364915003,0.7863496891272156,0.7837672607540623,0.8645732511107448,0.8339846594998824,0.8120196536127259,0.7883669434810386,0.6976232898386996,0.4349748995572056,0.1516244898299167,0.08506870135554115,0.34665621406619895,0.6396288113086177,0.8688323399159782,0.9492958047670598,0.9724739342951806,0.8926616571023956,0.655215876831654,0.4174719738674135,0.5210498897110174,0.765050883652365,0.8219900395055807,0.8404975211015039,0.8547935012845004,0.9027781247576864,0.8381448287291956,0.8213049359666117,0.7522277217466647,0.5504669842198157,0.3106507952007945,0.4034080887817897,0.6815153585746323,0.80164584145993,0.8122364621628372,0.8406352715501401,0.8706988130079304,0.8297054674205983,0.8331081760253264,0.8623419004249885,0.6816760447049622,0.4924200977203559,0.6687142357147173,0.8942025308778722,0.8899271032363577,0.8735399120683177,0.8690575094538994,0.8664939229758436,0.793802623706897,0.8069195920574307,0.8264026594581696,0.6232007916394894,0.4000156506691652,0.5389360890576758,0.8146475054832011,0.9014639098519054,0.8885986873106791,0.887815130789969,0.8660956902628113,0.776447980550789,0.7754251376818281,0.7827345259841588,0.574333471526264,0.42092046821183127,0.6326567260836427,0.83065737127211,0.8042474564596941,0.7733372560449067,0.7271458868339982,0.685988011582554,0.7489194095270086,0.9504820656639462,No
0.8329214659585071,0.5602290250062514,0.8829717215837141,0.8397751872899342,0.8101901883441589,0.818815024988615,0.6398292931740595,0.7180726942645674,0.9108970226918358,0.6516445905795027,0.6021532364411315,0.8411651260143982,0.8391650643021684,0.9077299508972274,0.7970130811107365,0.6885574574283142,0.7790715640223946,0.5125925871649621,0.5371363454200724,0.7829082261699241,0.7976664891920007,0.8426384438330814,0.7107482635500135,0.7032783894042951,0.8739589641817713,0.655486902449772,0.6696065163944058,0.8113994669977536,0.8105638415489178,0.8533307338527858,0.6902681174196075,0.6301987462178831,0.8318364071477831,0.7199167869828953,0.5471437185368391,0.8315198283066363,0.7658618781127728,0.8148075334880498,0.7854654117134081,0.6095752461069228,0.7704869293653931,0.8438392718415324,0.6367989482975331,0.8226949681203832,0.7891053916514981,0.8511576733918762,0.7745555619618423,0.5912547249270697,0.7726863978226799,0.7676436577806025,0.48024239819894854,0.8235548959791017,0.8463035554841052,0.905119411951544,0.9146621247951572,0.7451759411712326,0.8920733045596387,0.9761404350640897,0.6439180342168846,0.8930412804904018,0.9064110802408218,0.731136201769027,0.7510427106369639,0.6081957708162822,0.7157373245105738,0.8178957193851324,0.4821795616750806,0.5534253961889695,0.6897151329943125,0.7148147992034644,0.7666599244241974,0.61978851780413,0.6942022464348048,0.7952392223821314,0.5381063406721287,0.6836844775365551,0.5922211726398219,0.135977440106676,0.25960786674382774,0.5833685724865467,0.2161417966118666,0.17257630980432825,0.6095301390152792,0.5829122097819086,0.49594567334949646,0.6726138668613517,0.6334853796325182,0.5563484507174912,0.40000504719359675,0.0,0.39868130248751665,0.6541562298756403,0.4783868689604249,0.5985321416953457,0.6423565398093283,0.7156915480725594,0.797677080266161,0.33059313304759064,0.44628200115520045,0.8239273061745416,0.6782565051508587,0.7149737370111988,0.8366818449568596,0.7498138813590951,0.7362886631636902,0.3662748727646017,0.21875648234194633,0.6405243762859554,0.5522420826879064,0.5151134203426957,0.7404198662585602,0.7373629808036926,0.6783610780889617,0.6116183497818026,0.1736854106438659,0.44945190495140164,0.6760736291061575,0.5062772076420599,0.6526465884450925,0.7283024358433656,0.640419973634025,0.7099734887152112,0.4032230859838961,0.1435852713160246,0.5791577291539198,0.5991516969605466,0.500460386003613,0.7158973158655302,0.7556777751361374,0.6770719328881674,0.626986529198704,0.18836688932978563,0.41264143925052643,0.7131045373181277,0.560482102993427,0.6624508881191762,0.7510633659051962,0.6762781896939427,0.6384793161637865,0.2049400064345237,0.1815675427618979,0.6215267572380436,0.5977854321333664,0.6657750190276897,0.8199896526213104,0.7492384173362412,0.7136040521214513,0.45268967553790906,0.1727990118050613,0.6049721582848409,0.6634170818453446,0.49904102471071266,0.6740938480324319,0.7171864374778578,0.7185056463723423,0.7488701953543653,0.34602901668425945,0.3527053092381274,0.7548363227819572,0.6283891734807043,0.5756015513901547,0.7381994706424049,0.7315080584518108,0.726521441635045,0.5437645036863099,0.15755064147043285,0.5633275095794454,0.7203898387185128,0.5671309149682142,0.6974336177877478,0.5814956755292604,0.5141977408407126,0.6518794306904776,0.4663052703681494,0.24883894405922735,0.726221884921979,0.8017194691287055,0.6467872669486887,0.8058548315874248,0.7965557693893164,0.7405834995334173,0.6384716031738025,0.2038212737809988,0.4963179504657447,0.7057756879751458,0.5146995499505809,0.6145135547924108,0.7200288308737721,0.6719573943273192,0.6738535215760826,0.27783613599501766,0.23817301049472528,0.6493625121523503,0.5314549951887773,0.474069252190628,0.6549623124460568,0.5903615085494325,0.5038723740445437,0.5470802609920575,0.10811796558968378,0.2345162600059707,0.6307966514981396,0.5974524339220264,0.6756628832660074,0.8873131550156783,0.9007548952966768,0.8446608911710975,0.925297856654201,0.9941779094315675,0.968431868832019,0.7507405060382566,0.7148743017000245,0.7914188181600581,0.541259199767397,0.5475291716732729,0.6865708665133479,0.6301315069244069,0.7354061963564322,0.6955425433420817,0.5686071946256961,0.772910245387664,0.8363952989002126,0.5321035846361735,0.7927663670321645,0.7863618896956597,0.8015338460857735,0.8013457263802266,0.6125931958700099,0.737908872861651,0.9522742541405815,0.7056524463934339,0.700753254676135,0.858553545725103,0.8761796605527623,0.9227407767306093,0.7808904792088565,0.8318774162522975,1.0,0.7417011444233848,0.5891544893189957,0.8140021967963937,0.6347973461142558,0.6460592140912,0.8385545364083962,0.7136082207850629,0.7767449283394243,0.9036563489768361,0.5848957305466111,0.7223907459291037,0.8599581891981267,0.8309801183531729,0.8375780219810016,0.6894195761846755,0.7173982548217075,0.9564102079455776,No
0.9749185291622506,0.7416246429355082,0.7964523531074237,0.5098332968375914,0.563420623809475,0.7978382433051099,0.7913309022462718,0.7819288089949854,0.829437974403783,0.9115875250536947,0.9051962549726724,0.8644460166196071,0.872804224512798,0.6748304818448299,0.5966290493191098,0.9265558863054055,0.9601795901094761,0.9110264822010699,0.8759187781191935,0.8549454415334967,0.8367695473324304,0.806098832494401,0.7535792808574788,0.6641454268334828,0.34147785634200556,0.49096185994083275,0.6077463705395978,0.5498440281720951,0.5962168464841415,0.6311785344586811,0.6557652909593559,0.708165435367393,0.7316175108300591,0.7152285658690261,0.6913603548716001,0.3317916022299032,0.38859775263230745,0.583894489490886,0.5879999265979761,0.6072878539572271,0.6222995048357225,0.6977260967033283,0.8035409978558441,0.9101437121017364,0.8925776882955487,0.851775391929527,0.5264798275610847,0.7257288593581714,0.8477758988037083,0.765569476568845,0.7021445722551611,0.7044832248789419,0.8100387614430362,0.7665947766652321,0.6075334155823873,0.5203994391202986,0.4801928442706105,0.48717388482763546,0.5885169791863625,0.5966405723715198,0.3373132228568769,0.13810060438641703,0.5729463868034559,0.5941967108547566,0.6718235908735295,0.5715819457156144,0.4979067421242451,0.3825168175913376,0.37542173203929874,0.37014875005884296,0.30650722911758077,0.2950891464264229,0.0,0.23960148961131456,0.39944574140426603,0.4799835195257405,0.497729744193407,0.4777950604606884,0.4226977234977731,0.4079788305602845,0.3725318117048939,0.34685181878367555,0.36212677625370926,0.08200604661707533,0.22944873098245733,0.4566844863303068,0.48661558835836427,0.5788815595152936,0.6259073173291867,0.6091017489224715,0.6317535854744252,0.6695573975880462,0.7247657893052768,0.7195733069342225,0.3948230847827938,0.34051921722215184,0.601629327284753,0.6036020050031432,0.6818835701734383,0.6836228062421643,0.5945464970559113,0.557300331877209,0.5657712776654709,0.5914726905334415,0.4580413536140391,0.08716836054108867,0.3757048389856008,0.48489691300698823,0.5078420812307325,0.7730709336291834,0.7896347097487748,0.7360251079518685,0.6229764608896824,0.541330275764885,0.5811912495649212,0.4900490567431781,0.1555549724507328,0.3945496053163673,0.44560982016071904,0.48262760000308536,0.5192531838219985,0.5274077822700711,0.46832908107855165,0.40318807339749085,0.4375562161375841,0.5465577761491476,0.5616684067473994,0.5412681911044768,0.340080813184362,0.234777025580847,0.549195993090394,0.5212325912559983,0.5641226505220791,0.5377851099041981,0.5513489150442474,0.5004152405749185,0.4705927435201547,0.535947282140973,0.5423059580401635,0.515274679523686,0.38007743172964137,0.497713199131292,0.3395929742675232,0.4830508601349637,0.5119609051920797,0.4838286692039633,0.3552374521973185,0.281151258864357,0.33328476815654984,0.41545950593345005,0.3866304707955317,0.2995883188852435,0.20732709514473058,0.3249470966378025,0.41906533725234585,0.49208704117635804,0.4835195242733583,0.5065040138264107,0.5875157507559825,0.647527907593612,0.5790027159282101,0.511668223926173,0.38758960102358486,0.45566356071137015,0.5956029030567009,0.6889786665791355,0.68387676015948,0.6161846550978654,0.6542280703343062,0.6653573120099319,0.5825597733248422,0.5226725383187603,0.47948056290387164,0.4551024766566121,0.5396116936275908,0.528702948294633,0.38575464060925846,0.32030203959079984,0.36481888314537425,0.41288731158711744,0.4154960763364066,0.29870216594902654,0.49277371094935507,0.5986042999575378,0.5655156638331658,0.6782009962268116,0.6487147628092957,0.5765803074694791,0.5932103109296989,0.6876821068283974,0.7671120012485471,0.7661719916391156,0.7649952157838289,0.8191994466296366,0.767108019171741,0.9010678003561523,0.9009427752783763,0.869753071591524,0.9060922508785749,0.9202995832699834,0.8636219950200061,0.7586600767744773,0.6734435274183044,0.7886714175833669,0.811753699881888,0.8762342173975144,0.8328146184512715,0.7258360978151268,0.7490222642264506,0.7549442230990175,0.6724703726910626,0.6018196313296968,0.537762882232113,0.5380571006901089,0.5593055651154222,0.6390399332014134,0.6401558445705371,0.5617509596870871,0.5272600617098115,0.5981787146929198,0.7160398084516979,0.7473025674325937,0.723015942540373,0.701890274695633,0.7363975196897075,0.6864351552051549,0.7774734703181903,0.7661463096140633,0.7236695347583417,0.7143097353264034,0.7608051871955697,0.804150285657582,0.8047698158306096,0.7787616650928433,0.7780179100519762,0.4958326126534871,0.6274551830930823,0.8029764723607284,0.7867174419964487,0.7675368655042902,0.6909561963023512,0.6479906068882082,0.7003127644430283,0.748207799715499,0.7666540989259207,0.7634309211526826,0.758145738126375,0.6764159914680397,0.4178381557539046,0.7080726484934816,0.7857938665260598,0.8086259711728081,0.8700398886335998,0.9747310196231256,1.0,No
1.0,0.9812949768829584,0.991606617296237,0.993587729002382,0.9856464391308439,0.8267154663886738,0.7111062088365676,0.8787920657548671,0.8950097619080757,0.5943746895540547,0.4853964023746711,0.8168277082058784,0.9344296276172717,0.9409438091421296,0.9431834170876066,0.9204492443866381,0.9211551399533637,0.8886614940897894,0.7111052690589956,0.762147825443104,0.897442880890519,0.7504145099892932,0.4097755671814287,0.4437126402291698,0.8139404597564395,0.9317177451219465,0.9411193475003348,0.9489597417663866,0.9413871981677919,0.9624983989276521,0.8500414770413975,0.7185088410268918,0.8712712951168216,0.8928928480283806,0.5825771989634747,0.36317185305123423,0.6616812420847997,0.9393604291245035,0.9288993730134527,0.954904445357613,0.9504294672194153,0.9479215830141665,0.9525222714630617,0.8099669045900382,0.7451523960036857,0.8801907244673077,0.7988325268832268,0.4769772696125272,0.5104169145841124,0.8552845307274164,0.9131469450817784,0.9323832001650474,0.9306504264518112,0.8959240797342691,0.8470478874215217,0.808275702946996,0.45798771348874245,0.08275191912201796,0.1624799294976894,0.5553732528362911,0.8205017990693129,0.7368935223888986,0.6812135576458149,0.8676592480147658,0.9062925956584511,0.902673216325006,0.9096935315415839,0.8777207126409736,0.867667909043546,0.6561505308433544,0.23778467135111292,0.0,0.2838793739013714,0.685126284172348,0.8643393715485976,0.7154827142798268,0.683382241352402,0.8824653249247321,0.9068516330754528,0.8950710296187427,0.8991898351972534,0.8619906992209514,0.8551116747171257,0.5526185020438401,0.14608228433539672,0.09472544727866927,0.4598055669452239,0.7857510922145339,0.7891657505615006,0.6281726378525947,0.742454148128538,0.8710910230545972,0.8722515424265185,0.8882601637006928,0.9059593983699608,0.8601629562577362,0.8227151291493693,0.4745341240909535,0.07589109005581718,0.0775853628577351,0.46680287277600896,0.8141414761332324,0.8179640990989261,0.6437816005634183,0.761766770597526,0.9361962867116698,0.946030602800862,0.9438138996861103,0.9375108480269694,0.9174636372088261,0.8214024987112138,0.43027602238961804,0.07918925036922031,0.21552416091060023,0.6172199520694788,0.8893287919314086,0.8049180024175886,0.6796395855399437,0.8471366120568145,0.9166597873328666,0.9007383457299467,0.9023916058558916,0.8752309661302706,0.8665659025541903,0.6432560468701503,0.22760260483607153,0.05133726414199047,0.3736566605974152,0.7444429025705659,0.8190762939868526,0.6629417839109961,0.7442076377998825,0.87514491336562,0.8829229427989138,0.907203320577497,0.9113425437907847,0.8898345047644951,0.813478397903294,0.4377406226402245,0.05896883777841533,0.12986009051428682,0.5279871842582107,0.842062382623342,0.7954005924617555,0.6489965663684396,0.8066022259190941,0.9223762038197749,0.922922351663076,0.9324461606469479,0.9162962399975589,0.9010988532569231,0.6728312874854938,0.26840497711285183,0.043098460733159816,0.3341868794980236,0.7163932647363427,0.862994748965735,0.7097241019499787,0.7021729773949277,0.8585746269235377,0.8701473386799863,0.8785355346823607,0.8674072603841805,0.8564588631995806,0.754563050743221,0.3565369861091119,0.036348483740831106,0.2250684012103279,0.6260391072741625,0.8541304015827313,0.7340642780686006,0.6858391168620335,0.8803117551546589,0.9140621096554511,0.9241708956165902,0.9367478735860277,0.896643643185085,0.8946386721621289,0.6128812578238609,0.19663622013454063,0.06639060829164056,0.41352295165463326,0.7882054864707679,0.8560758154394918,0.6778547171678126,0.728317764073624,0.9074565739344318,0.9302618424595526,0.7649763760478998,0.7669511725917875,0.931153905301056,0.843198492847071,0.5307139139879955,0.6340909496236984,0.9430104439016858,0.9577872864617463,0.9808192078574509,0.9737330153738837,0.9579210929831585,0.9564267479519675,0.7890458978707877,0.7482317391755418,0.9045759168612051,0.8248765005449654,0.49819001925965734,0.547149136331939,0.8865143654607843,0.9259960149146642,0.9228491381379402,0.9252493443656651,0.9165648601663445,0.9037141741661796,0.7524330473772569,0.7893453864073021,0.9289169801001422,0.7801855637136554,0.5119820445714616,0.7284039923860959,0.977112622222948,0.9656785486921842,0.9799257230069074,0.9708084421641323,0.972694747434945,0.9210126766961981,0.7267305162036941,0.7908239097669203,0.9276896419977929,0.7613611211815454,0.47554051918833995,0.6577270890921194,0.9468415117465401,0.951537057652176,0.9650095848275533,0.9481177110676924,0.9247356036338421,0.9220466934799179,0.7884209996970457,0.7364193487285331,0.8873263649942922,0.819887076048365,0.5229513706817546,0.5842231761574734,0.8932757699842699,0.9317880423158851,0.9464173546145547,0.9520298624041998,0.9507481873955534,0.9640381727006273,0.8283403671610601,0.7648913781277573,0.9314469153499834,0.8938182606086871,0.5636437270590409,0.5126148752845909,0.8581254619276968,No
0.9578553964690086,0.7832783841275623,0.8425126751128649,0.8082703831960334,0.46816106117458833,0.6414818265548634,0.8208339972414569,0.8118180646629987,0.8477171156379075,0.8430221617981952,0.8415522436839611,0.9115155831620281,0.673356781670384,0.46611345639395263,0.8007063001616626,0.8161041670954927,0.8817695110464996,0.8993249891067392,0.852216110646284,0.9109978204349112,0.9482784617010074,0.6079147174490456,0.4058598986517048,0.8161525116358184,0.8856475645082558,0.9048502476322295,0.9253442143603641,0.8868682010793334,0.895502809490285,0.9588720056749787,0.6691511724838768,0.30148307675566977,0.6601711368704177,0.9076196269793932,0.8648524345018469,0.8803947625517408,0.8527003265366955,0.8714137063037146,0.9638115475054048,0.7015467798723827,0.512339840809676,0.8857514584606099,0.9113650530586668,0.915742275087188,0.9150044082018334,0.8468438700785783,0.9078997814016305,0.8672973632855738,0.5927812569791566,0.816222494269621,0.8175816444733823,0.5404323860517968,0.4364733341147262,0.42552238976059287,0.6588454878762846,0.6691277723104507,0.18339686633525276,0.19351600180589434,0.6737939292515174,0.8074199255146621,0.7452727834410937,0.7740986017283911,0.8103287487042166,0.7707093334197768,0.8068459737002742,0.4792523196423444,0.12949225543950993,0.5200920116163039,0.8610064577795513,0.784511801109967,0.7468091856348194,0.7602477353148154,0.7500356593228772,0.7609565236645994,0.6658257590860246,0.1490952052730472,0.10687697780384653,0.6320110759588276,0.8394684598484794,0.7652045256579485,0.7761228143263539,0.8142603159715298,0.7730751503452846,0.7755397779625306,0.4071378791144118,0.03297856954594125,0.4113085808221941,0.8030017167920014,0.7945126675322425,0.7351982952177143,0.7820781428927113,0.7674916811715979,0.71365608512107,0.6811128504854831,0.24552896231151689,0.04496211026719088,0.5204233392114235,0.7904789457662451,0.7310007127742026,0.7217062628370199,0.7308926363179591,0.7110919901569006,0.6831322900917121,0.6956110541829745,0.2785538498001494,0.05544231352327156,0.510700526878054,0.7490002332328523,0.6808639564041443,0.7417162532373291,0.8796005355553538,0.8602930008307124,0.8088380658811078,0.6707379839842567,0.18397174307788378,0.27068211146136667,0.7350326648582919,0.7930590470707299,0.7206229543555898,0.7720963378851611,0.7379099867017791,0.6938215368574747,0.7209008224518132,0.304261486693169,0.0,0.43688119555432325,0.7923583642396061,0.7479728804807682,0.7423868017512261,0.810602020550002,0.7875399714494402,0.7541103665362914,0.7858751950938281,0.44561611449510763,0.05001822348759433,0.40175683558394937,0.8164729765407372,0.7761128644580504,0.7355966545666659,0.8109022023089647,0.7809572611533953,0.7693758154477579,0.5744705675155721,0.06417430562002657,0.16285064736020582,0.6782800300420093,0.8023125638050295,0.7294337903302974,0.7814483056774204,0.7807508609537046,0.7451394149504993,0.7513146378770315,0.31860843869760913,0.0691211715918647,0.5311705659363781,0.8323092508611043,0.7559688198834338,0.7987820092799955,0.8122432306053446,0.755907914658799,0.7257942749674888,0.2587149975285308,0.07111320370161911,0.5570624699751399,0.8158700595207304,0.7329357540559487,0.7400039854237881,0.7702865775445495,0.7038308023805091,0.7281138321153398,0.5279229597383064,0.06028774924759661,0.2736843050153772,0.7286736492870567,0.7781684311186003,0.728847006980228,0.7936667510399542,0.7679317437367814,0.721951643065021,0.7152433680429731,0.24943885082800943,0.10214216364491313,0.5948063944566715,0.8291551934451435,0.7237950372994817,0.7666697749075269,0.7834149324451789,0.7602854690267247,0.8233789218632159,0.8915270253344638,0.867865260242235,0.8488455053450767,0.9159852358519482,0.5977616118683216,0.462773423092139,0.8427165357487421,0.8445219952987792,0.890014516265389,0.9029082374486914,0.8380290048288375,0.9027966041762681,0.792465513861011,0.5366225036996894,0.8203893358408907,0.8286085092901403,0.8535751334437687,0.8757927657025344,0.8420891813551004,0.9288435247218656,0.7878033273639042,0.4516413116786473,0.7504826827437481,0.8921229202448151,0.8945150601791885,0.9288171394951896,0.8626264200797684,0.9398408698977794,0.7623099163905249,0.5527945533646039,0.8731129658936312,0.8661816603498038,0.8940202105931214,0.8766333092025649,0.8748114650138468,0.9031466110814592,0.5413949183854907,0.44069201445275863,0.8455343025001518,0.8599484228363519,0.8938132298988886,0.8960251779790966,0.8418084199335829,0.9428358305695177,0.8032905754622841,0.5400693617082686,0.8677329729860421,0.91499360643627,0.9083021628035066,0.9404660763150865,0.8616512507942895,0.9063513615865739,0.8419767971056125,0.46306999356916023,0.6340740166257008,0.8698617173092815,0.8425931624554797,0.8817585292294026,0.8407333750989756,0.8531001319876128,0.9263272807758947,0.6392396034895858,0.6818784381381469,0.9436654924408163,0.9334713792139406,1.0,No
0.8162096971548238,0.21956200543369553,0.0,0.4720102266071997,0.805226844076329,0.6771708890710886,0.595848114702644,0.7977712032269606,0.8792376859833775,0.843914134383454,0.8021629239257893,0.5015580935325863,0.14796533220111296,0.5969756625156433,0.7582213992702909,0.4889619250255146,0.4760437107416542,0.7053448410321681,0.7711012115054223,0.8463918955978893,0.8310690677146186,0.5914817132444603,0.23588520918108147,0.6394938699329025,0.7642869021488443,0.4910875114197202,0.48489954281516257,0.7555335204741,0.7956167328794006,0.759047423837536,0.6420526801980593,0.46494149749833635,0.07309173675724345,0.46396749432502515,0.7330961396408187,0.5074187099956791,0.39841541485006227,0.6900158263565879,0.7966619358724198,0.7848485819952571,0.7353282822640717,0.6754136501276515,0.18166615839591227,0.312612746148623,0.6719767818456917,0.4997643196158661,0.30413280944474064,0.5734996229886402,0.8546308925263495,0.911286249394855,0.8692969818418552,0.8212159136071149,0.7107206126267629,0.2499112225085991,0.5144091576753511,0.7215161203447966,0.474484490389262,0.37434545062795044,0.6642989104072163,0.8347303960212633,0.8432807926137009,0.7718814621720815,0.7967108468046735,0.502674008316299,0.23161410840196428,0.6805120592658618,0.756748093068043,0.555236307051485,0.5669355800555791,0.46115515632340864,0.4660400324610414,0.526445746745186,0.529868967503051,0.5147897459221191,0.06362331064061433,0.18381836546568442,0.5935199082809843,0.5105587986603344,0.3795436797527847,0.6442893691482348,0.8025430010766508,0.8729454129124585,0.8700184138745461,0.8382339105954113,0.6458580289076785,0.23604687448364414,0.599703300107894,0.7245813826152081,0.4511361731996004,0.4006609548058373,0.6941266594001694,0.7558311903822776,0.7918341208523016,0.7255959813576398,0.74173543160355,0.37364240124051706,0.24509185655511612,0.6589847621876084,0.6167810581862776,0.406079393942115,0.6045141327816053,0.8105198452937814,0.7632952046151851,0.6533591707739146,0.648508128647951,0.3539145562853685,0.09761925403752203,0.5379567139379331,0.5831561651227539,0.37284199538846563,0.5531712965218256,0.7784428382233348,0.8087552032673613,0.7053351530589294,0.687377139910168,0.30549642815493483,0.08655718581244232,0.5733211142897452,0.63395781950805,0.375984119700159,0.48092310328326526,0.7442078697212224,0.8657022629363302,0.8654581739704241,0.8043460370176225,0.7322626768799876,0.26377661926743556,0.49943370128840847,0.7485632629042263,0.5217041642154285,0.3837015124130474,0.6827260698862077,0.7257591326790216,0.5033204855538593,0.7101709714734223,0.9309782242673554,0.7799380666025328,0.7359749387718693,0.961012765012462,0.9293253048916355,0.9995267890836685,0.9215216136523563,0.7580161979057589,0.5052223245348046,0.6547211430624569,0.8323924645459311,0.6252970628943415,0.4833306667882349,0.8038574969136478,0.8061553730709723,0.8973321732663906,0.8923496507345705,0.7831463453469354,0.5131590975223737,0.6359798586849319,0.7981454119876932,0.5792261987213321,0.5303002039642246,0.774624130563355,0.7547841275140774,0.8497379061107351,0.9119423570370313,0.8220905734263595,0.5480750787946556,0.6858606854701481,0.8732540476592368,0.7524112286364635,0.58649513460729,0.8718948571723812,0.8301089696230175,0.8953760853114656,0.8647076171109194,0.8151288821960079,0.5500556362471989,0.5818653848467767,0.8477476084536479,0.8853185526221807,0.7953766559848692,0.9731074887979818,0.9581084342187043,0.9813372682155879,0.9090861044643712,0.7898693688480516,0.5329622722521203,0.6073651747092175,0.7569333635011803,0.5652133003099356,0.6342894544430981,0.6773202087901478,0.6339269610076022,0.578820339316017,0.5698889446406215,0.6837171464719956,0.6873850890750886,0.8859248692812018,0.919462336448976,0.7120449068711663,0.913962603084554,0.8805240522250202,0.9403488175961616,0.9378188878177975,0.8238531071792861,0.555505256186617,0.5537855990864231,0.8234886891531588,0.8588784199651376,0.6619488897538974,0.935155262006448,0.9277453090756449,0.9989408726761959,1.0000000000000004,0.9175080706340384,0.6110375039545493,0.4476045267379818,0.7007842594299656,0.8561291239082673,0.5567540402200692,0.6578595089328632,0.874622578001599,0.8608498302778975,0.8976198530030155,0.8670035523594626,0.6542707410829118,0.5316900094583654,0.8003383021953399,0.9348549102959485,0.5616163779839614,0.5458113726577505,0.7554220987938418,0.835905590578156,0.9076145154957009,0.899375265169561,0.7501492486513257,0.5330762117866334,0.781616544261968,0.9495864083766032,0.7805910513905636,0.6948526516188251,0.9492202595530546,0.9572469421788399,0.9249273039746293,0.8325861808708441,0.7242954501489245,0.5512607738761206,0.7893239183345409,0.9145352926356654,0.6249155746812365,0.7973829388127296,0.9279263975170298,0.951362332493169,0.9733263256661098,0.890350409607573,0.7128745662792433,0.8284652716452197,0.9820987966478589,No
0.985109455693326,0.6958909648987521,0.461309007287815,0.5766212432683593,0.5328035620861271,0.22842386872851383,0.47608170133014194,0.7652016408155491,0.719468780803145,0.7440550484206157,0.7495482696688065,0.6458185971007893,0.5876392674004884,0.7368898783022171,0.5717511486835665,0.33558857555595845,0.6726906230902465,0.7866071197244724,0.71535051883913,0.7214373249791464,0.6815120939109793,0.5353810303617206,0.601792600046908,0.6693275992241923,0.36663640340542836,0.32945894622641947,0.7036636352762085,0.754948983253054,0.7771380628390474,0.7698407870232582,0.6773437236566859,0.574989405425596,0.7364223202991662,0.6881269466145052,0.35537667504830184,0.5504937334115534,0.8475843322943615,0.7306754115267313,0.6748533363738505,0.6381611224474504,0.49750836001570353,0.33893593774371333,0.5346396092556434,0.6572847079007922,0.3819513350824162,0.4496991605262244,0.8380309892093434,0.816442387830586,0.7141167820101291,0.6479870875557021,0.6735403306109349,0.5655896087112342,0.6862429905501501,0.6403115080548003,0.27295367573371054,0.3399386218816651,0.6910634216671705,0.6353317663990887,0.6379449010361291,0.7046689768873688,0.644996527508906,0.6105927013515722,0.6971754997925206,0.4536577031372835,0.19002226506939213,0.5355849800186607,0.7343725914008206,0.713380041747542,0.7519020670014405,0.721581592795957,0.556202075991721,0.6620900009626272,0.6829887661780367,0.3569926994274166,0.43286495695100125,0.7499328653041017,0.705261198426993,0.714808335913957,0.6974930122107497,0.5402098229446792,0.5940439161331155,0.6455024333893531,0.3289894620394429,0.3064257007700806,0.6790734099548053,0.6834775702411744,0.6873147063456801,0.6955432127053818,0.5922677965883179,0.5450737918945519,0.6976369359912293,0.58463764520107,0.31227961553518857,0.6121305652220468,0.8043621169140873,0.7178486078298916,0.724544098178382,0.7066489933320261,0.5340027437055281,0.5735650900964446,0.6285562804050693,0.3460153993416435,0.4248011447429132,0.6923419610854349,0.6035120781799412,0.6230902028733902,0.6801584429643064,0.5878995197828971,0.5237205584283433,0.6678711231118506,0.5143731374753882,0.2207971540326712,0.5061755682420126,0.6952465250772046,0.670852347997138,0.7087721031162484,0.6696781114253325,0.5081801581388061,0.6325538364698196,0.6418869350040184,0.33649504376000494,0.4918491133627454,0.7231966018690736,0.6349587570574629,0.6553672397983277,0.6188041312202344,0.5707311249461238,0.5970276898038611,0.5414499373720976,0.09996913281163056,0.060981819473205245,0.4816407253864614,0.5920130498927192,0.4387213279893649,0.563368310903398,0.6372239957826913,0.6064831168054303,0.6144017351868969,0.4255650281269745,0.020371899987834174,0.20064524434104403,0.5577608543642614,0.5152875921350415,0.4498437595811098,0.5909104631260587,0.5609280728185595,0.5185024092775936,0.5954915599408641,0.2951409572896886,0.0,0.31297660779201597,0.5673056839179564,0.4514132923920362,0.4815136683817174,0.6438308668134323,0.6574241288362705,0.6538085188360159,0.6843342355820388,0.30041173949346556,0.06850174636278861,0.42988790259694176,0.6160258166987982,0.46433240313786084,0.5136096677073769,0.624682503984449,0.6057360960492175,0.6022750617869119,0.48775366728005376,0.051442440055279315,0.11118100492433336,0.5112794062112507,0.5396578167770325,0.45911141989761917,0.6204154862931139,0.646083543997326,0.6264708742105649,0.6761569280839346,0.35215699439111914,0.07860240163613308,0.41739798570534337,0.6468834881039973,0.5059055995262767,0.5322689571196781,0.6835088645428773,0.6739242459039907,0.6184625890930675,0.6212360999162507,0.24556179729277172,0.034083902608393,0.41035943904466365,0.6241950921846946,0.5169743569858121,0.5927807542395589,0.6218441375162673,0.5530950924739033,0.539803801065976,0.56028529456452,0.16696998041742628,0.06074284015132081,0.4662201874652354,0.6264358582665668,0.48547948277372943,0.5698773523213243,0.5823761690223732,0.628526086706765,0.7333041219009082,0.7413330348520921,0.32861478559334234,0.18303321748321477,0.5268343678246727,0.5080918188407859,0.2779035570667878,0.3560858655708148,0.5544398196717208,0.5963443346737225,0.6325352251383156,0.7318957099772658,0.44711033606724704,0.12956610588849826,0.4250270378145309,0.6855574145156009,0.5528915799269873,0.5053163656534247,0.6746967910633577,0.7009161534072923,0.6742694019217323,0.683231879586055,0.4415700523786079,0.03638471758767037,0.2316681487813852,0.5854312829396722,0.5257331334053459,0.4551462561570945,0.6145477082523254,0.6526554852636679,0.638461080165351,0.691786201806946,0.5068169581142967,0.1275312541398812,0.32172498035858976,0.6518798904871217,0.5620802760496335,0.4964968128592011,0.6634705108829795,0.6785109534587568,0.6490261123116243,0.6666259368958134,0.40791585109630657,0.012076724510464487,0.22652239045767453,0.527806534700966,0.42468885886232566,0.46464419961007786,0.7900684416042874,0.9999999999999998,No
1.0000000000000002,0.941297865044642,0.9025108596390383,0.7892809435526937,0.8487564586574827,0.6873180857038157,0.46714871039479267,0.7795107959448677,0.853524162085457,0.833269488856262,0.8047521756918197,0.7715191110700137,0.8488915823375158,0.5863451756002138,0.654103065139229,0.9388863127287499,0.9218134507187761,0.9141604629654003,0.7867015503950208,0.8451180527031499,0.7253991216280999,0.39119522889604386,0.612595115556259,0.9125703323135113,0.8566408951574316,0.5346187462915242,0.0823059321928794,0.19010914903532083,0.647262269400187,0.7653807427358439,0.7175164327276984,0.8478696404301502,0.8452280448266938,0.8154464791342739,0.41542446397532884,0.09230257085883986,0.412506029074988,0.7560225579474942,0.692613564302778,0.7259749328189089,0.7764287490354003,0.7524293510943618,0.7765159594537032,0.4708434911334385,0.09020598954828785,0.28819449551618925,0.707742011379342,0.7286421265058574,0.7370293600375173,0.8558169864401746,0.8757784065088574,0.8759125919659396,0.5013954638424005,0.14763214815563508,0.44594838992323593,0.8146436474279424,0.7186818841169618,0.6766624308009115,0.8084907206337999,0.7985562805687529,0.7995201826126965,0.44964264985862523,0.03950669218630698,0.2599702174206435,0.6994403974157766,0.747751653070345,0.7243371191226256,0.8385806182570341,0.8305987440854576,0.8355376118036661,0.6342990032586835,0.15928496159132255,0.15630350340636112,0.6067336399755767,0.7623809967062316,0.6937300443341239,0.8109018477166787,0.8240850438803171,0.822629764421684,0.6638478350358514,0.1908195565526618,0.13160337787510312,0.5835868599102254,0.7972213653644931,0.7088930492614252,0.8207713188408523,0.8465806792057748,0.8278060709421025,0.7696367941737272,0.33802095985014513,0.0601224415458117,0.40737371779862763,0.7590098413471138,0.7159475499175896,0.7434914480269108,0.8324198223314239,0.8056573303114025,0.7912565931111535,0.4880945456462209,0.03577136214030707,0.13358197039677555,0.5931710711989602,0.7504645531335601,0.6894212579239651,0.8215953146081258,0.8418421126478528,0.8308210647418337,0.7430925428424999,0.29285062095096537,0.1506742677838806,0.5645532797415946,0.7834309528241408,0.6901020803833708,0.7997892934227082,0.8397792580934806,0.8123417457084388,0.7316712161179679,0.28784365850606797,0.0,0.35029977271576596,0.7229517769223923,0.6871011539416678,0.7382263001150089,0.8252395976859155,0.8083479495173724,0.7925007057617843,0.4321154694427982,0.0215697687185874,0.23698481235046365,0.6805365576079063,0.7474062695393116,0.708735710025947,0.823316503725197,0.8248150926889608,0.8380664791295696,0.6986427452049842,0.2341560186008509,0.18802133105275032,0.6232345948996068,0.7743935919216265,0.7305515387589978,0.839036580825187,0.8305130455170733,0.8241357653385848,0.5750093337723094,0.13081201267294618,0.12886634097546268,0.5743792991343326,0.7956225254345897,0.691016886058561,0.7900653071737109,0.816982436947016,0.8079549572430376,0.7269634222557311,0.2718863316430191,0.035044350981684014,0.42461919909995993,0.7599325163719572,0.6915525935125482,0.728519997700056,0.860058618434828,0.8086310009584852,0.7728048856933667,0.849012843709781,0.5656476517980493,0.540979109564226,0.8852410672368205,0.8898057855564885,0.8853121367720853,0.8484435094649887,0.7678945324231123,0.8644506325334207,0.6322666929494449,0.5471952117945531,0.880100094578814,0.9084818658230482,0.9118442373456854,0.8651425213387915,0.7976054275461759,0.8616715055691639,0.5832580112692212,0.5641528814032906,0.8883860452825967,0.8914987205063853,0.8990232669026386,0.8405360807711577,0.7847676735427276,0.8276079415482382,0.5221954609249941,0.5425961175149241,0.8686587199813987,0.8816073760619452,0.8885140035846277,0.8232918749516027,0.7641139870573712,0.8097440652138601,0.5132305048932704,0.5594397806535407,0.871686212377839,0.8858137521401319,0.9063925601290064,0.8474190893402238,0.7793228239966308,0.8531875562631275,0.6018020837538709,0.6778201839295523,0.9253201755299021,0.9055382754244994,0.9215513249358349,0.8675918934884914,0.75798830823319,0.8297618890792966,0.5892882582618717,0.5666146731727577,0.8701527412241712,0.8856764748865105,0.89796975984845,0.8389128593291584,0.77128205846055,0.8674594162501472,0.6170049532111808,0.5556724352235503,0.8807281405772829,0.9066047894059286,0.9199923212815964,0.8768592521546201,0.7935488259476562,0.8626696025084011,0.6094083519223594,0.5301759367191936,0.8604020466472948,0.897262217599162,0.8930224286656145,0.862502294670908,0.7680288221578635,0.8465241170569808,0.6505601016916749,0.6388226261969723,0.9169922591809392,0.9003470973223278,0.9103658108688724,0.8629305732596417,0.7753983467160659,0.8832842476096345,0.674883936808202,0.45107090668771654,0.784703031543289,0.8953269406614177,0.8786143575876733,0.8618077472794246,0.7357608953996757,0.849665522387242,0.87254958377548,0.5884657513978777,0.7961090609814623,No
1.0,0.8850760085865246,0.8986676071802884,0.8726006055985156,0.8834654159173945,0.8265585743950585,0.6660052055999208,0.6778641430743133,0.7649112140265908,0.739402529053073,0.7059595187721315,0.8240006743112782,0.7792459810566825,0.8029115328233094,0.8150107888027427,0.7967122818417431,0.7559054560709648,0.6448183274568211,0.7020877429156305,0.7921619480036823,0.7668978376805309,0.6154729164910182,0.840017891009027,0.8981693934654,0.8913943137911984,0.88601099683977,0.8207302282991402,0.7739546070134438,0.6687241286578107,0.6627235982040105,0.7935176253456722,0.8362012137617199,0.7337592158504771,0.6975070549100604,0.85234186718818,0.8506958782670941,0.9366501749517018,0.9401781831521343,0.904870696962286,0.8753694970287587,0.7762292953241938,0.7618825913563607,0.8299637613622295,0.8323328865532376,0.6888179689914176,0.859946979917293,0.8924868501715109,0.8628978806091592,0.8922319724716385,0.8688552220151045,0.9127093217205204,0.8827728217891564,0.7207122718590742,0.7602092862081689,0.8061107292112899,0.6993389326906394,0.6382456663188472,0.7942086492539557,0.7484485203453319,0.7737519338772785,0.8009236716232166,0.7968915525898685,0.7646373624450886,0.6597812626919599,0.6859172354538559,0.7400218099485443,0.6564610347840669,0.6297057038152793,0.8658331293201393,0.8559511172467027,0.8527628744017379,0.8145523871604965,0.7802451935909755,0.9020597944838205,0.9025092019365522,0.7527122190103572,0.747935877536289,0.8086331420360633,0.7825542131507319,0.7370693282935505,0.972081164893412,0.9504773972948701,0.9243788030163653,0.8654219469769564,0.8241767870427399,0.8373030526718654,0.7685096819896877,0.7388253183710907,0.8101553839532443,0.8280492974174396,0.7512582523320068,0.8680450627249847,0.8670187507239175,0.8570971683777158,0.8889999292799442,0.9129352552208228,0.9347754806330388,0.9486388012839413,0.8382336891545772,0.8283404251893409,0.7664222981304922,0.7071431229612486,0.8206559893130261,0.8189073765018247,0.7970527210236331,0.7730455458968102,0.742326469274925,0.7316314654493477,0.7410095428606467,0.3708869955740255,0.06924819553965378,0.4692872229179339,0.7051494026480909,0.6752834790858291,0.6004335646179699,0.6699709889601153,0.714091831560796,0.710374489499638,0.7565778190126204,0.7958699345434055,0.839123607924579,0.8387198017353228,0.465125940228595,0.15006801425111815,0.5179820854599506,0.6835847192994025,0.6443292632279247,0.6231325294060994,0.7546998314103068,0.773231872704728,0.6666854564600588,0.7125658695890311,0.7560391203681394,0.7590406455662859,0.7499090548699194,0.37468091495828837,0.0,0.3444731999682733,0.6089601155684239,0.6124508551499841,0.5352521256774012,0.5872569399317751,0.6790008337931059,0.6930234842270635,0.6842431757006975,0.6326362379643093,0.6376140390898297,0.6394949564264096,0.2368498991393353,0.023454805952823232,0.45197656721308466,0.6821373246967486,0.6651099779104377,0.5939420738851195,0.7343941780441265,0.8113660479759051,0.762551047360637,0.7774038157229692,0.7631980027814982,0.7614032867290201,0.7765385329585963,0.41000083553746114,0.1255503339296884,0.4991697514348692,0.7290416840702552,0.6820080552787511,0.6269545467252646,0.7328135933518038,0.772008946522925,0.8086628479919415,0.8227266323949047,0.788213696053059,0.7259913763960499,0.6603838315943236,0.2296780611526752,0.12917899019561796,0.5802802056292462,0.711229596250408,0.6355171902576857,0.5174591882146133,0.595683794892595,0.6789910144508031,0.7281788262039215,0.7850245189671305,0.7658533835278365,0.7974279437026235,0.5929838512446519,0.14053196481336583,0.27796410536722904,0.6517935838269384,0.6576888702477688,0.5663169688840584,0.5497884368511126,0.668768386415695,0.7028430832757073,0.7108850019720601,0.6984570378431267,0.6787944835242454,0.710256401788429,0.40978640702543956,0.0913917840704288,0.4597226911593282,0.6637948518208328,0.5929192619183201,0.5104130014768331,0.6518961362338711,0.7610283384956595,0.7578580238790567,0.7805522570665175,0.7663219720011925,0.8249559850719859,0.8236414796053655,0.3863612305457722,0.22825819843019524,0.6661399670058974,0.8157431184878874,0.7545776518308829,0.6396474868980566,0.7356985670176281,0.8022878329777496,0.6990398105112479,0.6645739995326645,0.6633861540276542,0.7083720752418898,0.692553155872135,0.2979435710451157,0.0654018073934095,0.46632334751710625,0.6467292581660584,0.604964375274005,0.5418585019685915,0.6849239541033634,0.7320495093760084,0.7671665208637659,0.8430629734747428,0.8774633592461925,0.8369668813242472,0.7876192417304781,0.6501889585003613,0.711259657670317,0.7546715056944895,0.676172678256254,0.6174865767721855,0.8367034303587815,0.8065912006520155,0.7711349047947098,0.7786786025526968,0.8507099103013283,0.9231306920787539,0.8002597574164918,0.7896176589064243,0.894355816348249,0.9403663047394799,0.8185608822770978,0.8511892723691212,No
1.0000000000000004,0.7192944225162541,0.7027281534385188,0.7149764210176643,0.811709930881451,0.6835053383108649,0.3656585446150289,0.59249698872775,0.8182901892623637,0.6315513555678138,0.6081368085891636,0.8812254035682874,0.6581392147504799,0.6553538002307242,0.7581017393915794,0.7543959445950974,0.6238641108449601,0.3703959621340651,0.6215433404056121,0.8294670472980896,0.6625215591400071,0.7931286695566686,0.9065225959078886,0.6681871742203338,0.7758346080988283,0.7489189673105376,0.7012864509299872,0.47685502051297757,0.33351264067287323,0.6441305071429557,0.7116184689892564,0.36967726419739577,0.5292252949117064,0.7212979051536847,0.5553628072681742,0.7023010482428838,0.7048393000424436,0.7401016528591282,0.6601672368637161,0.3499611276470236,0.5725579811127277,0.821813445133929,0.6804173581655406,0.641489173052892,0.9147296259940458,0.7232856334989362,0.7490310838606358,0.8183304694610878,0.7710234495956629,0.5950841280905532,0.26260157366427483,0.46282650378644963,0.8040863217647076,0.7662342250716638,0.4963115298542826,0.8317067112424037,0.8296303805813099,0.6683410344622827,0.7408108514349254,0.7080376189642519,0.6524785469730485,0.6111583163725469,0.6337205728552808,0.541468091181569,0.6697815941824978,0.6226826457651229,0.09686355658778512,0.3664066559065726,0.7092254880096127,0.4917689891742256,0.11305217571884141,0.2971408238293769,0.6154924349523534,0.7056898497654975,0.6864536805383841,0.5381552398505511,0.7011389597484166,0.4209465640943164,0.12631464486181487,0.5812729311371898,0.69110333729861,0.37834437888453953,0.2139420087802013,0.562747797718675,0.6348810674239354,0.609238968774906,0.5616036835475793,0.4134340310930491,0.5760517069240398,0.192096624772093,0.03749131085865498,0.5141984890214903,0.5999423250275244,0.2769406882078198,0.1781623232441656,0.5229992232296903,0.6288500340346994,0.678306459926469,0.5390417921954578,0.7151786865243324,0.5681467469514061,0.16771369168397632,0.5622165435405679,0.710873262811365,0.43438365476607466,0.20393898925085763,0.5081165252609026,0.6552772160939861,0.6659766988232714,0.5911148054498887,0.45530430322332816,0.6824607876064497,0.39510116244511284,0.1781270444237344,0.6279523973997501,0.6283375973151024,0.2895952257425889,0.2845215059444599,0.6594807723925364,0.6633016116758479,0.595991687639319,0.5555101000025386,0.6974549016837255,0.7945035911760825,0.28749898568303367,0.3894739226273818,0.7861149220229504,0.638184544301144,0.3047946634705414,0.48815487264102986,0.7315163358258601,0.717422469381197,0.7350505547730024,0.5541895996763992,0.6907693399212911,0.524142064032048,0.07297558448285191,0.43298493728995124,0.6097325345120352,0.3310722268261097,0.13520263132313337,0.5034269942021719,0.6675495460882708,0.6476672304466105,0.6027109436306857,0.5101916300616951,0.6755734590395797,0.26231242599338156,0.1562332599864802,0.6099468831568307,0.6059616007381012,0.2618909396531319,0.17609974493290403,0.5617206465354405,0.7391650360670705,0.7265966350173847,0.5403694070615583,0.592548120607038,0.5462012398616363,0.05529424151806106,0.33645960873186276,0.6142175074043013,0.37013804267408057,0.033748147580210386,0.2697568643023107,0.5301462121679208,0.5606928820361796,0.5718000682128253,0.4402832021447387,0.6177403042252925,0.4369628333918256,0.0,0.3759096367428607,0.5618735987484023,0.28532777096539164,0.1154996951632552,0.4714337137972673,0.6292783853481456,0.682616965965031,0.6945795467737272,0.6283685720052321,0.8243814918717951,0.43222675384377895,0.26754960739625266,0.7235113604925569,0.718058433887157,0.3503109880587747,0.2882028938396415,0.6612775256866104,0.7804439860606869,0.7987959062513181,0.8663493594865757,0.8705647523912599,0.6720838985172981,0.375768563444701,0.6556210919662093,0.898101582211138,0.725230514247643,0.6990423895943261,0.9917635359366384,0.7863217988558229,0.806218335481732,0.7966435866803692,0.7339045554934622,0.6094540549495031,0.28331146180898203,0.45413423908645667,0.6791927462489995,0.4942481064564763,0.42357605484888516,0.7920217586899789,0.6342814266572452,0.6351603151189966,0.6842928693826624,0.6603006473314168,0.5505310071884839,0.2100460561090518,0.3545450785779036,0.6797565996009762,0.6462197261416205,0.41947387727393837,0.788009462839987,0.7253432264419155,0.6892234921239582,0.8380314831594666,0.8424051996319526,0.696378301921643,0.3336326600555437,0.4020687454313814,0.7294725464386937,0.7157887622193004,0.4397048384231934,0.7656144048037876,0.7536677235202318,0.6548817919233945,0.7575912045233859,0.7623200606988951,0.7682448106258035,0.4741046457587603,0.3010732211433842,0.6145920289136559,0.753606864035627,0.5280094954603536,0.6888067691578112,0.8705775102626938,0.6886059602637751,0.8286165152359888,0.8299315532129952,0.8432691112504185,0.6537485142312072,0.44982887613757017,0.7576329680924458,0.9124313414957581,0.6676040415819386,0.8264957329424694,No
0.9898417282319937,0.9976053474842611,0.8493162090766614,0.567280372657415,0.6314097298212339,0.8757539775426452,0.863269678983751,0.8878569440781797,0.8710388927248275,0.7957174117786673,0.8187210022203061,0.8315675899928024,0.614000511737513,0.7350541548054629,0.9257124576016605,0.9557508183088751,0.9761096289847221,0.9702738452390908,0.9096015006195163,0.9538943008633541,0.7855955650082315,0.5593276354995186,0.7700490756914292,0.9356832086329018,0.9468078063642914,0.9449188417822906,0.9266386449514238,0.8751647525882739,0.8938257319726094,0.6673143082390511,0.5539349430834282,0.8309574240929186,0.9243647710864905,0.9308761143133496,0.9340009720696306,0.9024801881345362,0.878620187364982,0.8680190569421985,0.6147937799582346,0.622578114160471,0.8923988264778558,0.9286551418109424,0.9560554181968018,0.9579408713255172,0.907262650438175,0.9704394362483449,0.8095431870899651,0.6125035703966356,0.8499650676519662,0.99658101411703,0.9999999999999999,0.9990185468496867,0.9443300991791831,0.9360949169090697,0.9388097210501082,0.6859451832297113,0.6530423935064023,0.9253390026102594,0.9612907250491988,0.9701164576877247,0.9630121854841275,0.8931162353496344,0.9298400871662688,0.8286968493289232,0.5719062230808064,0.7170592964002925,0.9488278389458519,0.9502874461151808,0.9711861507612308,0.9320180132900454,0.8841768461105978,0.9410234784707455,0.731395555676888,0.638464130941638,0.9138024454620787,0.9757881834972525,0.9779392121106986,0.982222882578058,0.9202022365510482,0.9534284496472799,0.8717362163987618,0.6174724407459257,0.7552685670476619,0.9764076055260248,0.9755321561933022,0.9772486236225618,0.9401802581852762,0.8688667291566775,0.862691634424677,0.6188713490646336,0.560556000498971,0.8451099277484627,0.9031104597291156,0.9119791192178787,0.9314303872640161,0.8767263138615867,0.9056484240151131,0.8413246273804219,0.6206873008601725,0.7969939846524622,0.9514375547845996,0.9630584091208806,0.9679749845256586,0.9342652793217178,0.9064924753823308,0.9217767964635445,0.693438714898272,0.7028071542741329,0.96666521051453,0.988160849347039,0.9849700496527701,0.9504781820623939,0.9328693745001512,0.8567958302437321,0.5184640959460415,0.16756033829846806,0.20752105914568286,0.5726083465638991,0.8642578705688625,0.8574831682007383,0.8765479627797822,0.9175551385082595,0.8995434608344682,0.8657965100164581,0.601966550908016,0.21822110612039924,0.036507946038670414,0.32691667791315804,0.691358739322926,0.8522825483055142,0.810522177827003,0.8741837450534683,0.8635815443205633,0.8380457792741268,0.6931457414503323,0.33557515697799645,0.03224025098252864,0.14539007888302802,0.5197935646658456,0.806946219557206,0.8178636635837225,0.8779056398673338,0.9239251190178787,0.9240078885791708,0.8783795592417821,0.5755929254408246,0.206488935724351,0.1673849401561618,0.5170933571518133,0.8399134570057619,0.8821482676279878,0.890915381206289,0.9268501233724643,0.9150331414356162,0.906797094458161,0.6743838719880562,0.29836305932601936,0.1323764482043226,0.43056548838745945,0.7786868501227532,0.869313480656359,0.8358579640692306,0.907391344192466,0.9028146394407489,0.8774605384466955,0.6671655920465087,0.2829209210762921,0.0015907727962198304,0.19669235273931118,0.5637802935148897,0.8471005251455114,0.8404655344789974,0.8714955372823537,0.9140567719952538,0.9042770206492908,0.8830247889367712,0.605605518359838,0.22475001624451985,0.0883184035784837,0.4047497928289233,0.7623984138208718,0.8986812027071679,0.8585337455199148,0.9440666123895879,0.9593634459362798,0.9412662492705816,0.8389300254192239,0.4828881151844384,0.14640179056261649,0.23554714700522228,0.6047263951334428,0.8873476313729646,0.8843820970955675,0.8871771134229359,0.9198086893250644,0.8943119490696142,0.8505847112884112,0.6021530812591072,0.23175446742819672,0.08514512971045263,0.395126999562908,0.742782978542251,0.8492216769476771,0.8239445547018379,0.8862264899428441,0.8784489319757688,0.8607038809277431,0.71902760158369,0.34843144390970615,0.049118175793692986,0.21753618591204094,0.5922096674312355,0.8490099788136299,0.8222640093723074,0.8677620719294831,0.8995587044623327,0.8933962090553448,0.8763113400363493,0.6436166547778334,0.26569273371011237,0.10285735662778323,0.40213712511691846,0.7561514329001436,0.8854154624338849,0.868491154113682,0.9278054065368869,0.922457086085735,0.8860528376434845,0.7812313233002818,0.4366009070478122,0.0887488752332084,0.14325256387723667,0.5070092789707223,0.7863037926502415,0.7467809602224386,0.7581883815458726,0.8223109764126036,0.8292994885689599,0.8043941312155195,0.6625058511527838,0.2912873300078611,0.0,0.17289109230156607,0.5482613175803196,0.8633056142308216,0.9403501011867207,0.9424259440936423,0.8557060925105066,0.6417883585689137,0.35025910061474375,0.1233543081085326,0.2315873796612794,0.5286534562884402,0.7799547847236227,0.9680361444986597,No
0.03920650181694295,0.29022079414322444,0.5843697873874896,0.8372620005556485,0.9360089703821336,0.9123646999863219,0.8942161315879561,0.8999606965275949,0.8642725489501952,0.8473993484823108,0.7421117740666779,0.46025647736800224,0.16565832126694086,0.029115608566063503,0.25314316281312277,0.551788916376366,0.8206912468047471,0.9346994577446691,0.912552402952176,0.8895445921274957,0.893397821711225,0.8574632827607839,0.8610651888428711,0.6499743870553517,0.3750597538060238,0.10373721620158162,0.06717954476604225,0.29878680665517715,0.5769576073896164,0.8446939460066567,0.9605946638655855,0.9382420355836486,0.9073009294962023,0.9044583122717315,0.8625482675533155,0.8648724343978859,0.702208844195111,0.41153506619351543,0.12726678956260135,0.08562753589916135,0.35156475446913116,0.647745690531819,0.8879494860669759,0.9579364445819846,0.9327799407572496,0.9290107081110718,0.9520757313956606,0.9816900169537669,0.9574262479017742,0.7729411174377449,0.527787886657201,0.5887788539119126,0.8398708932288395,0.8965806905462731,0.917481513170686,0.9303628360037862,0.9388579378593976,0.9820729847077655,0.9605161851217953,0.7694208520797285,0.5235244516643828,0.593864867874565,0.8469752338019505,0.9019975968188919,0.9139258369592115,0.9175569146628818,0.924737857644928,0.9640214475937791,0.9313350798334313,0.7327315146517204,0.5337220733686834,0.6837953170574387,0.8762727435338553,0.885721175066369,0.9252066164084692,0.9248469119231816,0.9290562618912822,0.9628187577526836,0.902374564894381,0.6853269503782131,0.461270262751725,0.5752725575417819,0.8236158589029053,0.8757292964132568,0.9069815011421863,0.9187248264632785,0.9286431873054556,0.974757462185628,0.9356204577629174,0.721736716060249,0.5189738554659276,0.6722198942409072,0.8962828410444764,0.9067155358318578,0.9579052753329803,0.983619409361879,1.0,0.9892366939458362,0.8939233317337983,0.6580202163919435,0.5472843254757421,0.7637810211781859,0.8975304741132552,0.8843916595257149,0.902997442100483,0.8914060801248914,0.9217424625326512,0.9529175026370377,0.8620309567550284,0.6065696632739438,0.3930839017722394,0.5412288892203275,0.8135072766524143,0.9050655641671997,0.9129134953949426,0.9402811387314617,0.9424925276474133,0.9685164103306386,0.9565849073180327,0.825486070047559,0.5710111707416251,0.5423690704991434,0.792509959933814,0.900935319098611,0.9130331432795834,0.943191063113305,0.9429520160882648,0.9781474860857814,0.9723195825440519,0.8083143332994318,0.5401326180556923,0.47591964231106276,0.7266219550368503,0.9014792833370514,0.8854843421432523,0.9177926819614824,0.9077261690123061,0.9262360912560413,0.9714668581414524,0.9150549733995522,0.6951562520955762,0.4997023589433701,0.662832174577994,0.8690684986519323,0.877497952869405,0.9265638807100723,0.9266376352566376,0.9460570548076906,0.9630483670849489,0.87509856912191,0.6311151308809606,0.4707816228469003,0.6641911952360173,0.881537612579143,0.8949832897514153,0.9377061228600897,0.9289982814016998,0.9102429344976205,0.9046585867415132,0.9097591421010814,0.8528761724093489,0.8435166246242696,0.6266562649262761,0.3426144967033978,0.07301566151216933,0.08527162252569591,0.3452411402832996,0.6295380739599727,0.8672132697993302,0.9349435186747964,0.9044854558905707,0.8985429704110105,0.8967909607255266,0.8357599763713174,0.8300363192347257,0.6219434564974838,0.32591802634105427,0.060511293198973345,0.10109486942215497,0.38654323732455964,0.6765597936131276,0.8921872069208262,0.9430021510280765,0.8905994366806431,0.8825713471955872,0.885042946975253,0.845266801727837,0.8303303724474054,0.5926604678138261,0.29592379435643107,0.03988121979346286,0.11110796325884385,0.3993016349735762,0.6865474764640849,0.9070860134844648,0.9622388383446133,0.9275212219265719,0.9128810185538535,0.9011351763023735,0.8493734580288748,0.8282963204993516,0.5857147365460321,0.28832672774724083,0.057827521606470714,0.18091563370509567,0.46860438826868256,0.747020263771452,0.9190225790470076,0.9415110475855891,0.9164971375474326,0.9133135031143503,0.8814638194849999,0.8623146547237921,0.7735410092240046,0.4944913199086677,0.19744018667947688,0.0,0.168249598282469,0.4653668035022851,0.7494232954485379,0.9165237696631009,0.9101926553818421,0.8671883696096211,0.873008599363964,0.8611175375768025,0.8461945242021521,0.7857327033752011,0.5154386441789892,0.21941737007116507,0.031689015350695696,0.20308345615505352,0.4965910673824483,0.777453134775115,0.9372443746947184,0.9763994648303326,0.959423152357869,0.9497921784902214,0.8853151566499352,0.8757841139161054,0.7331944179267048,0.4448854628840482,0.15561040417222305,0.08105494315630755,0.33619447914222533,0.6341362869573508,0.8807693643703275,0.9528846367638287,0.9104990292371039,0.8919913791741748,0.8848179115988047,0.8333946864360003,0.8234828221606412,0.604094174701762,0.3236463864683371,0.060753579540267375,No
0.9690724650631952,0.8752266133568307,1.0,0.8198949199400478,0.7069070367202843,0.9644145586929382,0.851306201907903,0.8831268919324122,0.8523798826443141,0.747202480528113,0.6312711538467299,0.8331844477731978,0.7965142875906688,0.6154848103716848,0.8816423703194722,0.8083270408971086,0.8648634514621278,0.8750173059163799,0.8077104066436029,0.7440764144085095,0.8841598893407685,0.7050498589653396,0.6226109175932621,0.8581372656339652,0.7544861212255487,0.7924349418405856,0.7831790820384636,0.6975796521607722,0.6768347893850875,0.8302777370660666,0.6799773294698803,0.7581690284011109,0.8491841502526856,0.8114151675665777,0.8662555302480799,0.837035490189356,0.7465609291050317,0.8802246502828845,0.9105220493156878,0.6259523250357661,0.8430784836483185,0.93247845145972,0.8733935663069823,0.9437796182876648,0.9149915943440106,0.7624836678266025,0.8333224782267177,0.8394418453072232,0.5740955750078118,0.78148120859034,0.819917775391958,0.762568163856447,0.8188924286311989,0.8141910495748634,0.7085405294133071,0.770581901819491,0.8274907040925199,0.6054297775609685,0.81591714563677,0.8678638253534303,0.836711862700803,0.8274150566942593,0.7413318017207211,0.7094825282287331,0.8587221866234587,0.6878725891264041,0.5733685273878018,0.8336540458348662,0.7855347415468006,0.8535723179936374,0.8721154904964061,0.7892434612748311,0.7997764926451354,0.864444056073101,0.5662652552550242,0.5783991476611594,0.85891340644991,0.7805641241417103,0.8934763220017126,0.9402016451669808,0.853526953441996,0.8014655070346359,0.9451186512631615,0.7607717656010351,0.7715494358050741,0.9403278033939095,0.8427930859974504,0.804785909094476,0.7569683829962646,0.7216056200667262,0.2058007847960508,0.2833315739761453,0.7629428125993543,0.7801766424379997,0.667321753048363,0.8171968659093092,0.819644953957003,0.7056165788479447,0.7219098336802228,0.5941252630701008,0.08927447651046316,0.2913957832110512,0.7194544937759675,0.6991291345632158,0.6588565692356485,0.7714928639417344,0.754455416289654,0.6679183584150326,0.7160470693715859,0.30253687181571554,0.01440681526031895,0.4958666345984071,0.7598265283837797,0.6142827380980118,0.5980543298772414,0.7159342603965926,0.7472893794460971,0.7125311609317935,0.7830051597525101,0.3642575301356623,0.03059457429638579,0.45872212302051896,0.7368234696335527,0.6032305628102606,0.6243140894834753,0.7225567186977959,0.7140541856299589,0.6208321852033207,0.7243931556618706,0.4092751967668291,0.025492413994634422,0.4411984977728993,0.7592280086776202,0.6652287736350906,0.6942019308891356,0.8269006690979581,0.8190121947517945,0.7466646654741047,0.8198917156875978,0.4621473344129581,0.14553325305699172,0.5866305000179479,0.8209885867821756,0.6650025357342537,0.6646237832266775,0.758011381474061,0.7516088838710226,0.6747513445175621,0.7634106284033009,0.36059336869215164,0.0,0.4431782488269307,0.7177716663660125,0.5633364131443175,0.5841166617390359,0.683167792551219,0.6910292156967013,0.623111634084951,0.7310557322030884,0.4034200903281371,0.02341241238774261,0.4476144073598811,0.7856097785524478,0.6687132912451457,0.6393506440712917,0.769731477902992,0.7790020267171034,0.6829537154976588,0.760770382635116,0.4489335230014011,0.08504938859967837,0.5156192249418687,0.7722031927255935,0.5602908027427236,0.5599085260338339,0.7346220884071655,0.7818830568896007,0.7112133714709707,0.8207818059434024,0.5414891145410663,0.1438867661070624,0.5535277096676028,0.8934246210973775,0.7931235095391203,0.8020536094256823,0.8006905856920108,0.7056445895342516,0.6719582556123633,0.7444722752493753,0.631065945818384,0.11952921151936513,0.3014170311933868,0.7462672615213752,0.7179664379917381,0.5441264099518688,0.6788506653836643,0.7106508124200035,0.6878460718276891,0.73089886388609,0.6440474651152668,0.1221924227704827,0.2512543483457339,0.7057971067799311,0.6921133160178181,0.604233411781169,0.7457019213923113,0.782869246596118,0.7120182912308519,0.7607965968140835,0.5374909425807375,0.08703495710336195,0.43322194997127683,0.7929892887484322,0.7067058032033331,0.6821094970482529,0.7880861084823656,0.8017120184723554,0.7078367654031084,0.7321758353411978,0.602990008007414,0.07697589892207102,0.2486673544897,0.5558143226360421,0.6378043351557894,0.8846363125600338,0.7997109578614761,0.8899458237582745,0.8936795391197614,0.8106062776667913,0.7780942228753256,0.9111532107252138,0.7216122424177627,0.7119533532741777,0.8958438692281012,0.8042592998965437,0.8863193325982297,0.8725418367084341,0.7667526757443044,0.7465833711191125,0.8552006398133547,0.627158054778485,0.7113865844773719,0.8670375017135679,0.7982162109197732,0.8138767060989567,0.8000804941509121,0.6716397684477156,0.7921976640380524,0.873552221389267,0.629125178309601,0.8402835725337439,0.8702626546855763,0.7988380675424258,0.8151988282916336,0.8729652014500506,No
1.0,0.467293565380535,0.28518137223152173,0.3288660646618027,0.33997044029605217,0.3048402004278872,0.25789326022464376,0.3150644638563138,0.3561278279798046,0.4073594894387602,0.23247519752279988,0.17557603848303582,0.10920646250980859,0.16745250920984756,0.21588024062867373,0.18469961954814718,0.10951106630911944,0.180160372831061,0.41834666978321344,0.4836172327134518,0.244241507062136,0.18996428470614024,0.12417291836935451,0.17623862876644303,0.19261649836754113,0.17042957400034542,0.10156618486848412,0.22350966363971114,0.22992167780496864,0.34014486922296694,0.3114671425246325,0.28130101568615196,0.2364296491615523,0.18990697566740433,0.15878038111459958,0.05267180055954057,0.13820687118279018,0.16950572940165287,0.24814965924480425,0.1755042034635661,0.09789376366821845,0.12219556664235309,0.17588976898672737,0.18783802795395488,0.19407499801492367,0.1452357230092609,0.17635144127013724,0.3394169462470682,0.23830941701111996,0.19683348366771103,0.10262155374780946,0.09785457572489964,0.09742914315760043,0.13500642548197206,0.09590412315331331,0.12169153377827246,0.25234641293363147,0.35577733171881665,0.23505529191032526,0.20248021116512138,0.2189115464406246,0.21321355289898847,0.17555187352686907,0.08882684741998226,0.08603787326036283,0.18705690675741504,0.2607461455716935,0.24416269085194653,0.1869660810980669,0.13024809737589926,0.12979780151491305,0.09684010704850632,0.1256632905265196,0.06123313204147607,0.08705665717568767,0.1966486783103285,0.30462649651415585,0.16968700722453356,0.14243605814889992,0.1303753470011495,0.12383744732156377,0.122657586126099,0.08078129743739737,0.060416298627177234,0.18134790766183073,0.34451856419766447,0.29854886090546984,0.29520465398975215,0.248695660048325,0.2180131696672154,0.1978467458147275,0.16151357510502695,0.07449267046383135,0.15137802594533767,0.2305135575599726,0.1968116842411396,0.16683007706902053,0.11266754848721039,0.14239913575396468,0.13005676600961813,0.09232544477836946,0.03797063186207161,0.10978718588017511,0.34105569551897297,0.22723986283556652,0.14717578260144748,0.09900467946075597,0.11930454679541302,0.14551864520090163,0.14535013057231172,0.11111453557163387,0.2200398029603976,0.36181023467022655,0.3380258046216529,0.2654293961911778,0.21285712436486115,0.2104719121418519,0.17298188147193727,0.09340300766444809,0.08886343474885017,0.17112315151518143,0.26727150140377454,0.21945419686802126,0.15274411230291207,0.17727568715794106,0.16384443598652965,0.12341111350460032,0.0,0.08307790107289925,0.29347428526789177,0.21924494600223454,0.13674638966273456,0.08751422290163013,0.14334120213364088,0.24645805593823678,0.24395727623261187,0.2880708359319888,0.501033481406191,0.8645601738372157,0.539939488855504,0.21746988507856724,0.25339745518228085,0.31167091908331024,0.32678750827775627,0.2999705707146578,0.35467879403173885,0.4343175967705042,0.6370166631025675,0.6921329578551774,0.35125800206173796,0.25458357498006734,0.31273708816624524,0.3458841322777175,0.35768239134739055,0.3967890958670619,0.47666131556505764,0.790831568004613,0.8406072158482587,0.4032190632396313,0.2536362284798237,0.29259824557911074,0.2773070081217437,0.25805207774114347,0.26504822414748475,0.30257526717628025,0.5436508451651525,0.8747131177198897,0.5008279437639498,0.21997374430495142,0.2453875719379912,0.27586030139689033,0.28579666992393893,0.2555147610087696,0.3029274631572276,0.3740003206407865,0.6411219594954165,0.6284413410906602,0.2970925395908477,0.27537824574989944,0.3474522587881843,0.3648153415249835,0.39864135104642706,0.42812614222805756,0.43811989284383035,0.6010286279497068,0.9062410857809127,0.585026091326009,0.24934499634668583,0.23878904981812088,0.2643658220936276,0.26768547236760476,0.28090766671862255,0.2919939322390048,0.32028859994478864,0.44591048932097266,0.8261736571454428,0.6966305166174998,0.303751405737791,0.20717806836252084,0.2583124366865679,0.24838171671933562,0.27513451605881745,0.2813717393393942,0.3185859826355584,0.3879889741746494,0.5824204930172847,0.7248385179526053,0.41096574896266613,0.22674918724006865,0.304251484322954,0.33213223105684087,0.3722360801874167,0.3353996754084614,0.36024289535028675,0.43458826117923177,0.7966552213748521,0.8015784002629092,0.3514710775969503,0.24383298694016542,0.2765268323810899,0.2485747160455114,0.2388679002554861,0.24259686108749268,0.3239956472758134,0.38841100709334686,0.7207503338662429,0.7959955477774532,0.39120723445393146,0.2926553557635554,0.34255052777276074,0.302762965589352,0.3052689355699272,0.23017210979702085,0.260112685595125,0.3759377805169759,0.6170375414859963,0.6122502470942592,0.30701065937553995,0.2727104966733851,0.30646232221628633,0.3456597646446946,0.37353796590458543,0.4436067097689387,0.48375800377038036,0.6604666355963804,0.8339180048143788,0.5039333056826436,0.2598901921080765,0.30514717701438254,0.3313063064154278,0.30253863598088326,0.28835136059770683,0.36204120475029367,0.4877981848534496,0.9141928673077677,No
