0,1,2,3,4,5,6,7,8,9,10,11,12,13,14,15,16,17,18,19,20,21,22,23,24,25,26,27,28,29,30,31,32,33,34,35,36,37,38,39,40,41,42,43,44,45,46,47,48,49,50,51,52,53,54,55,56,57,58,59,60,61,62,63,64,65,66,67,68,69,70,71,72,73,74,75,76,77,78,79,80,81,82,83,84,85,86,87,88,89,90,91,92,93,94,95,96,97,98,99,100,101,102,103,104,105,106,107,108,109,110,111,112,113,114,115,116,117,118,119,120,121,122,123,124,125,126,127,128,129,130,131,132,133,134,135,136,137,138,139,140,141,142,143,144,145,146,147,148,149,150,151,152,153,154,155,156,157,158,159,160,161,162,163,164,165,166,167,168,169,170,171,172,173,174,175,176,177,178,179,180,181,182,183,184,185,186,187,188,189,190,191,192,193,194,195,196,197,198,199,200,201,202,203,204,205,206,207,208,209,210,211,212,213,214,215,216,217,218,219,220,221,222,223,224,225,226,227,228,229,230,231,232,233,234,235,236,237,238,239,240,241,242,243,244,245,246,247,248,249,250,251,252,253,254,Target
0.09111111181215747,0.0628190551997907,0.049983022265275956,0.0634398584626723,0.09394145464249615,0.12029466059440042,0.15831675913379373,0.18856247984714303,0.2140760639180117,0.2310211321835518,0.2417801048416761,0.2541155065255314,0.27403894526259,0.29408686677830165,0.2960390735458627,0.2962102725344393,0.3099244043049407,0.3209046384142069,0.3528474542896358,0.40078317853569123,0.46535051036455277,0.5179943150113462,0.5862147528938406,0.6561949028684197,0.7125924404761075,0.7751287816728607,0.8442060161778646,0.8970323261237296,0.9402494639855186,0.9266157575597682,0.8787714469814998,0.8116515822183126,0.7452256748889723,0.6919608658064225,0.6227707460674758,0.5526181325551018,0.48246541088062767,0.4123126892061535,0.3421599675316793,0.27206382852890876,0.2190087942215979,0.24567387662853823,0.280413818620195,0.2973217876465566,0.3150234630822655,0.30609611401590087,0.28908851992433915,0.25695373756890216,0.22176654466341272,0.17900374500466665,0.13219698705321425,0.08590948214554217,0.06760527550936857,0.10523839745418506,0.15195198676828925,0.18621893181242966,0.2149430365879792,0.2472400540838393,0.26980341827608356,0.2744544996096079,0.2744613217662031,0.2744612872662229,0.27406644435999317,0.2592651564104025,0.25289174110066437,0.2528823784284575,0.25284132553000926,0.24472004612300946,0.23047182796668375,0.21715385109608,0.23019210386535516,0.24399477849482798,0.252835082187155,0.25288092088526026,0.25073091406370773,0.23029728580169495,0.20698662162385784,0.1887712436589415,0.17247136056389456,0.14391946621954377,0.11067637580615353,0.07584760001416502,0.0592457823354362,0.06012176781418477,0.08576967624721332,0.12150830981636096,0.16563508658536286,0.20048790587361065,0.22639450036641406,0.25078394470729837,0.23942206145970735,0.24415327494401717,0.25533866058933885,0.2819605198132016,0.2958426786780697,0.2960402626174634,0.29604302926190496,0.29972522222537235,0.3323721328010052,0.38026460433099674,0.4332552690241047,0.4962007928858334,0.5616114905050367,0.6155036829202714,0.6850535974554419,0.754392104939027,0.8081513498673023,0.8739370687238712,0.9440298962298139,0.9999999999999996,0.9916969386883774,0.9420262979831517,0.8896694937339871,0.820704606921614,0.7505520481119112,0.680402452432697,0.6144404888027397,0.5608176399698372,0.4915200226977525,0.42136746171237505,0.35232094871026653,0.29890189040131343,0.23638363059594747,0.2360655007342789,0.2820517959778459,0.3193194122013874,0.33807295036060214,0.3386491424743556,0.32129804227865444,0.2937668099316668,0.25877619854243106,0.22135503132015222,0.17465209423278516,0.1278083210466492,0.09334889694159765,0.1074990398353739,0.14590404817901215,0.19263847856623828,0.22707352524910362,0.25046923096022145,0.2745304028668998,0.2904479892717533,0.2937221070339655,0.2761460925687951,0.2888642951978544,0.2838146486161319,0.27451399028695134,0.2744611820583307,0.27329209807793164,0.25650131619039573,0.25288522998395413,0.25281277725847096,0.24297280937540977,0.24755933739847746,0.26450254320542,0.2870329320445597,0.28182945821782557,0.28858358309369514,0.2744933044470854,0.255658375477092,0.23224164558780602,0.21867387132826055,0.19288163953235582,0.15159538080280255,0.12687542249841677,0.10538455582814388,0.10198454955372238,0.1168056506087587,0.14561584383592097,0.1747742283754694,0.19314885402240645,0.22254396230536422,0.23929855428904867,0.2526010563940191,0.2528823622663041,0.25288321984054063,0.2557005420519727,0.2725510020967854,0.2602458316095073,0.252913826729511,0.26162828561358964,0.304347867134267,0.35618058749423076,0.4206469409570541,0.4730968832356335,0.5411106316874958,0.6100177648152609,0.6625425323486493,0.729987022368586,0.7961566305709566,0.8482803363362241,0.8773142559112803,0.849394727927915,0.7966753191426306,0.7272805801976294,0.657128201746215,0.5882523099078907,0.5349913706215825,0.4682463680996176,0.39809597359540216,0.3279443225766907,0.25965205412369396,0.2069990118873628,0.16078036631660098,0.2094733136244673,0.2514068908380107,0.273504156685767,0.27372511168349245,0.2526493818206923,0.22982338726539187,0.19706044083411145,0.16873276462859277,0.13020816627452314,0.08345012599657986,0.03661850891588836,0.0,0.017984621302727266,0.06842746008910572,0.12397340859700101,0.15997107059440996,0.18912873774089833,0.21852424140972104,0.2431303315062623,0.25206485203861284,0.2357056883981974,0.23095764303296118,0.216752170715663,0.20973485949688042,0.2097233364655784,0.20780003149491133,0.19030251588660585,0.1900848796205894,0.2028595855586337,0.19302693107279678,0.2090067446515813,0.22340714273875362,0.2312649656444794,0.23130148184798838,0.22878284765308887,0.20750209059080982,0.17786033771509757,0.15341814646428809,0.12778276960358648,0.09376487612752804,0.06927331111421209,0.059745422626315214,0.07797665142524357,0.09959996672309801,0.12020459544235784,0.15491276065944692,0.18997657763885867,0.2233522080618764,0.2464561556254865,0.25398468372053085,0.28255881255212145,No
0.22492534452643742,0.22874251163850978,0.27455012649926225,0.3490402407007389,0.41868235001451204,0.4275007240623596,0.44028533339311515,0.47729799936627426,0.5245524264228738,0.5339968430389344,0.47479102902638326,0.4157911827549374,0.352454757359554,0.27436677698365575,0.22117231036151175,0.14829347500848744,0.09967466003348235,0.07470321093292398,0.07373000346635639,0.09910681465539906,0.17767088491548177,0.24429559080864038,0.30612144979352385,0.37029680524761455,0.4118666421590791,0.4239011956220504,0.48278632737116745,0.5434242207620943,0.5793531281002742,0.5990156828904705,0.6117919700396555,0.6072706387777553,0.6046072125915773,0.6063976066176404,0.6264942004966971,0.6299149238013055,0.6307565164374114,0.6613700369706588,0.696115715752994,0.6960072204459196,0.6553003660454739,0.611177963301992,0.5670836769902281,0.5336134989157433,0.550510655359457,0.5774405061532044,0.6190068729072391,0.6540404219944187,0.7085223877059037,0.7598247456407647,0.7895677537943553,0.8248268043394007,0.8271434389357526,0.7828928483531779,0.7164721622087167,0.6353020944868262,0.5580917841801107,0.48393045963458103,0.39585340760283394,0.3076450452686861,0.23000231877748956,0.156220271384778,0.07267405578836073,0.027481181573953517,0.043725960799274155,0.1082216891486909,0.18599080990927463,0.2540095560320865,0.3386920419803032,0.4109916029539744,0.4902345204412102,0.5697335032480075,0.6358914250755068,0.6861110783981936,0.7315351976833235,0.7767965320840529,0.7654291488405573,0.7565003411003768,0.7480080191778309,0.745215462494826,0.7345025326147643,0.7186372273736015,0.6901309711228856,0.6751971341832275,0.6481840060841253,0.6397944459377976,0.6281659352178139,0.6017823581410195,0.5843161899222866,0.6057860163063506,0.628761621128096,0.6667593925432187,0.7035769899105877,0.7262884540790533,0.7411991543027718,0.7312466104331814,0.7307905945427815,0.7156196246522755,0.7283934064622843,0.7332353833336946,0.753539378683318,0.7568974070842578,0.7731663694037079,0.7816029089518941,0.7661497533031869,0.7205525510814446,0.6686163854766636,0.6346776321593866,0.5912070141762578,0.5575819652003529,0.5706562089122218,0.612125076556699,0.6760790611026057,0.7363890090854519,0.780692376946797,0.8369526243451086,0.8604051435514148,0.880933644469287,0.8689737678084195,0.8091327391977479,0.7400033078048458,0.6581955556288954,0.5699843764781742,0.489556449587345,0.4182800721931157,0.33053815767516515,0.24231418855506925,0.16146698418472605,0.09058912832051158,0.012800123446108369,0.0,0.04209452249645329,0.10796647802044301,0.17783130952350978,0.26552069764078556,0.35376532531793003,0.4399622484531336,0.5079217343290581,0.5927745106528142,0.66399103325235,0.7185210004174691,0.7622232354624079,0.793968824009275,0.8066603556905778,0.7901852389481836,0.7683224585560287,0.7399772832431153,0.7311818384296962,0.7221108965168672,0.7003645485908252,0.6781081592702933,0.6554555478962389,0.6246264675588518,0.5933249864226453,0.5950342322702711,0.581347784009163,0.5805537286205511,0.6079123105331878,0.6405281906346025,0.6721450866587024,0.7011181448404007,0.6834175793285753,0.6985351375949587,0.7059072317737445,0.716022201972931,0.7309167713169376,0.7239388086481928,0.7131734805848251,0.7306458365794799,0.7311648274442697,0.7311289932145066,0.719380507613264,0.6691644646047394,0.6275411398271982,0.5784481268223165,0.5393437623174582,0.5516608462468562,0.5797550388801072,0.6235904371121044,0.6677091908898691,0.7119395537528006,0.7681597090246943,0.8227575428926612,0.8568262414371897,0.885151545897807,0.9030154224094198,0.8643657541008989,0.7911482034705561,0.719045697030682,0.6312066865975194,0.5429616148867322,0.45471654317594545,0.3664714714651591,0.27880408020660186,0.20874635897089178,0.12756843636606163,0.06429873873330783,0.06271534755319896,0.12090319438643071,0.18701769735533835,0.26551561772001975,0.33317663917509455,0.41221242261705004,0.4824851248336226,0.56349597229215,0.6239422204104312,0.6897848138567739,0.7463166368501084,0.7826912451150085,0.8064565039860958,0.8028028637810363,0.7700689581024691,0.7721940548640629,0.7576007531775715,0.7384754295052658,0.7107712982485945,0.6880843623646213,0.6603325512602294,0.6348628204479136,0.5932548493204863,0.5701465553379692,0.5415827026717479,0.5405400138967535,0.5627247547554144,0.6027069324236103,0.6398560315229402,0.6908672334839312,0.7347529047927694,0.7672083615381093,0.7843216701590028,0.8094240931860086,0.8259929609160896,0.8079291454932132,0.7955792282923944,0.7923817922816965,0.8074363065826762,0.8227235252614231,0.811908017522303,0.8301553523249061,0.8461633716395576,0.8501280907855286,0.813741512031561,0.7713329457031617,0.734508451036302,0.6998892588132768,0.6657921758039058,0.6871071980513084,0.720907304887175,0.7734736357753618,0.8200772958698033,0.864304169819651,0.9165418559655722,0.9643195418133756,0.9843339836848757,0.9999999999999996,No
0.9186311366182545,0.9375358038653965,0.9378764781993127,0.9300895069970303,0.9217810789600227,0.9077563384118839,0.9243810681062508,0.9427059439108199,0.9332121961675743,0.940157319226838,0.978970372141581,0.9990001929100538,1.0,0.998291825787323,0.9546185721093359,0.8755810459844944,0.8127787786797227,0.7347718985810427,0.6534239100197943,0.575082077316758,0.5463773630058713,0.598200849979686,0.6788531926063168,0.7381576953569424,0.750848036229133,0.7529114956381453,0.7508117324581853,0.7279292279841947,0.6556927943842612,0.5743538303144029,0.49299974366786836,0.41171295554806564,0.34309769040291105,0.32550991582097,0.3240296006593968,0.31877006541689834,0.26138251773734966,0.19604469854447082,0.1218531115179653,0.041698161909407006,0.0,0.023624613815044437,0.09179770370030393,0.16759188421730364,0.2318073977832431,0.312466655605403,0.3931068492206986,0.45735677288728915,0.5331284936074212,0.6032917705388967,0.6727373471965077,0.7524382484954941,0.8153632885176227,0.8881366012593506,0.9292982619518488,0.951636074498118,0.9541144691734855,0.9806697956303543,0.9704857778182712,0.9640888104396641,0.9765141183312909,0.9688147218539256,0.9537528232811576,0.9456437735026015,0.9302375876262854,0.9155727155307094,0.9136557530309135,0.9128021114478742,0.8839261704037842,0.8492567959615096,0.839832273390916,0.8749959645453367,0.8967277197431418,0.9164978475926207,0.9416846830008909,0.9335619491593778,0.9184805122161483,0.8908037373202253,0.9059808782341419,0.923026244242509,0.9300516625346544,0.9300722889492259,0.9301345046054927,0.9387026098433346,0.9268093512650952,0.8945149477957428,0.9078417014073619,0.9275610896683815,0.8997809962668204,0.8870343577858395,0.9172490722829529,0.9238128117426001,0.8981197474683116,0.8868423269132752,0.905222109237712,0.9074915304672899,0.9264151649267891,0.958483395585187,0.9675708103835632,0.9566518317752908,0.9716944808362626,0.9555992158390678,0.966837438406476,0.9228000385988779,0.8588506331869623,0.7784733859675783,0.7119357700959874,0.6387509773766831,0.5574431493822583,0.4760890627357228,0.39482769337325463,0.32485467429820014,0.25522603308790925,0.1739820331101063,0.0926344986009453,0.01809182162523859,0.009368325099452512,0.056929579045198686,0.12130815840226683,0.20231233195755083,0.2796807713021665,0.3428524831216331,0.42307080985639045,0.5020895396928964,0.5645194615319351,0.6438253953000714,0.7242859093244358,0.7876233168102331,0.8543634889686973,0.9018380711031684,0.9458651609020876,0.9533430795773681,0.9468969502798772,0.9431225995773125,0.9468086832091123,0.930626139619851,0.9281250775376679,0.9092596924677991,0.9067645699096913,0.9057145810781373,0.8815537909013198,0.8607350936277931,0.8540028596681601,0.8378283875303114,0.8521298468483276,0.8601674785078832,0.8685795637778386,0.8946027245425197,0.8943179439606408,0.8948359129559273,0.8943464678288184,0.8835500642647767,0.8834536550281773,0.8834531938151042,0.8817836379280419,0.8547297717541169,0.8455908005792727,0.8772896713877563,0.8859343992452482,0.8902702063430463,0.8976881099643466,0.9038427216706593,0.8852627301420153,0.887816683364044,0.8941771512123498,0.8691502689404413,0.8746387637759669,0.910577597587169,0.9284562815776782,0.9026751445811141,0.8908637241289794,0.910583044221569,0.942295098773529,0.9533632896030046,0.9598941946774784,0.9595489535732464,0.8988252195858069,0.8183490521946606,0.7534109066503927,0.6785481234190867,0.5972070058219532,0.5179008276108856,0.4554709057718469,0.3764521759353405,0.29509990240224315,0.2157260916570296,0.1532569556534571,0.07438002930248944,0.008356112341204813,0.017644549710037705,0.08144723649870578,0.16178390059233072,0.22566633097910582,0.29155806478227086,0.33960088672907407,0.4149082625260414,0.47763007768702836,0.5573379723795076,0.6272384411422167,0.6969475429929939,0.776554602072649,0.8386081385744406,0.8866749345028593,0.9139535268019774,0.9289855379770713,0.9125671586499924,0.9243012628219978,0.9246635353404171,0.9183439598365708,0.9299074577146262,0.921919350714477,0.9068650097415536,0.89189749881983,0.8835047818370918,0.884713519181755,0.8963504356050263,0.8614499820141561,0.8337287290761415,0.8185565808189152,0.8434180930588222,0.8808174507763815,0.9123742125736078,0.9154287397081213,0.9092149876312905,0.9280537438904375,0.9254165705344328,0.9076217643172146,0.9133797343045544,0.9275564597493466,0.9094890744474537,0.9231652411331264,0.9288500868431386,0.9113712936126861,0.9258912483094495,0.9461918726228618,0.9491528208204154,0.9246225689287684,0.9131854053047306,0.9143270807347927,0.8860931571283501,0.8955401577341942,0.9284437670142278,0.938744594602027,0.9549857632275915,0.9735708369685874,0.9607969031949657,0.9535197146544161,0.9649195404648765,0.9559350657375645,0.8819210437859288,0.8181953601653231,0.7416245050845998,0.6602783712669242,0.5789359909339464,0.506036208737636,No
0.05735380381194588,0.057450530497558994,0.07379616450582294,0.1259313850525361,0.1963774132587366,0.27506227826665963,0.3518403582451377,0.3996105157318919,0.43580714831957934,0.46386992017502227,0.49609404702751725,0.5033174534925058,0.5276590326489776,0.5463232942595502,0.558275422384308,0.5525705095472606,0.5312063493799588,0.5539552704065489,0.5744583171993645,0.5593216455831076,0.5581160531100187,0.5403780069835866,0.5289039261148263,0.5286414393570267,0.5107623500617571,0.49902996610337524,0.47815395939475014,0.46990706866721865,0.46989215017097763,0.4676314357195075,0.44301833987456085,0.4479237537510592,0.4834334307705088,0.4746695096029212,0.4270638440934684,0.41188493593511843,0.4337885707124691,0.4254869674215964,0.38948894804458334,0.3836716535246305,0.4039733253553779,0.38302494358251504,0.38149107595118625,0.3770213849732835,0.34290196850247057,0.3227438833831693,0.3299696408726911,0.32945351296978576,0.30341011454558675,0.2931488858050546,0.2928369403200257,0.27380036746148306,0.24843992933319825,0.23401071307173726,0.2138799036735275,0.17982172331664703,0.1761894567591904,0.1986988577687736,0.19989347268320135,0.17661351132709413,0.1752219027716695,0.1753582500055506,0.19202722124074256,0.24271831735361182,0.29268572603427145,0.3355318751462617,0.37866627995994406,0.41068645497867706,0.4424670369426984,0.48424842994015815,0.537140127808768,0.5895922157889659,0.6290828911239448,0.6759052010420143,0.7216479974641725,0.7504975328636689,0.786897831745974,0.7621560617647534,0.7086623883523311,0.6543717740748356,0.5794378442385915,0.5022742266427747,0.44785373753062174,0.37315859309366495,0.31458194253858274,0.2677088202703022,0.2712328237270958,0.3209242902966807,0.38299044880795563,0.45507077510687477,0.5113028097508749,0.5801559116428541,0.6390422309157362,0.7173751163030584,0.7866739481870679,0.8456480774547277,0.920029645722181,0.9623405772349107,0.9472734772049005,0.9454683166708602,0.979200624685677,1.0,0.9983041887607298,0.9739774318042826,0.9882381509941718,0.9790984198583228,0.952935459036711,0.9428101711832992,0.9638467954140664,0.9441478778041086,0.9409614845379242,0.9201593304937141,0.9112875167148067,0.887443457144875,0.8609307290687145,0.8345982184695311,0.8089484601589358,0.7704313668198912,0.7369571689139232,0.7104321387740953,0.6839176828561309,0.6575115827332807,0.648250884755627,0.6765365171436128,0.7153166662953883,0.7425324535813145,0.7649583039171128,0.7877075150911619,0.7940235581198554,0.7940294223102189,0.7940294223102189,0.7940294223102189,0.7937839499119139,0.7748777457298113,0.7600303746209152,0.7363050495123682,0.7158570389044847,0.7137513327597445,0.731882023235241,0.7077304142838976,0.7009055438183784,0.6775766417519034,0.6761613233504953,0.6761613233504953,0.6761613233504953,0.6761613233504953,0.6761613233504953,0.6761613233504953,0.6761804290445843,0.6841152487610627,0.6827619712380599,0.6761653549813706,0.6761613233504953,0.6730370460781883,0.6517566642658368,0.673715811501598,0.6534889951154126,0.6466982255237532,0.646694298610563,0.646694298610563,0.646694298610563,0.646694298610563,0.646694298610563,0.6471612231726036,0.6674613012210528,0.6727595859222628,0.6486154812192968,0.6557393533337317,0.6758171937823914,0.6760372751611721,0.6592716613053238,0.6337294596582046,0.5952939988216661,0.561794132687031,0.5582953711033145,0.5588558260782284,0.581567980895934,0.6139916135677339,0.6302654030223707,0.6467523942824815,0.6640451695441314,0.68010556976229,0.7042997106675823,0.7052440190076785,0.6755024714308453,0.6231622345524341,0.5479265644889146,0.4897639305054744,0.41960367338043447,0.34132024672034067,0.28324589396125965,0.21298992292055008,0.13830645366255023,0.08341595502631804,0.012949195470690178,0.0,0.037807603898394326,0.0919766318731563,0.16956185105726718,0.2342909038775245,0.2976406401546665,0.3689094711693697,0.4259914204115809,0.5042125672210132,0.582789351977036,0.6472253276313458,0.7106788263161015,0.7573258667751395,0.7364302449485507,0.7162884146906201,0.7056935129608624,0.7056283480904257,0.7056283480904257,0.7056283480904257,0.7053904647051814,0.6865814419958935,0.6840807329370042,0.6944122776895565,0.6763395425628751,0.6756957695734087,0.6541736477175757,0.6466580229900041,0.6314418943553548,0.6062578461435955,0.5810170074571008,0.5543078306627747,0.5190147488305232,0.4994753662547451,0.48382207241411024,0.47000337421776184,0.4699091622661431,0.47825176690934423,0.499039648715363,0.5112597240876715,0.5503727066243007,0.5838267339990217,0.5907404525663491,0.6152328671416276,0.6172272738706335,0.6172272738706335,0.6173699019012906,0.6330804943394535,0.6267448731313756,0.6172694091528967,0.6172272738706335,0.6171259927204948,0.6007983782824402,0.5878505341691307,0.579652242504415,0.5535983120075514,0.53014212734191,0.5411533408987204,0.5414354272363964,0.529013056562686,0.5398234871115717,No
0.7304822134890667,0.7647408469501844,0.7986509744258878,0.8360429321575382,0.864122743000987,0.8705698528250636,0.8798534442959447,0.9041369660639265,0.9077914269656877,0.9141655247138045,0.9467308261283747,0.9804916613036738,1.0,0.9978167863187353,0.9832954094525412,0.9812127915106887,0.9606073175730039,0.9453439947968336,0.9422553007210985,0.9240449935615787,0.8986689529622556,0.891503129859216,0.9149443938161403,0.9262995232904481,0.9266262109906718,0.9380953977750415,0.944870645550099,0.9318762995541325,0.9092498734397174,0.8936704138174294,0.873958069767772,0.8509398450409269,0.8335996874102132,0.821051095815235,0.8074078305813543,0.7930017367716555,0.7783740538861528,0.7795890832876444,0.7891135916812488,0.765010292843574,0.7588348688248949,0.758723976880844,0.7485185060997495,0.7406847223553759,0.7526161792736863,0.74172589731501,0.7315641318375721,0.7217362324074457,0.7285363378698939,0.7342783261044437,0.7228965601081359,0.7418261898109724,0.7583380410137561,0.75777676451278,0.7429431971741294,0.7548054512535263,0.7686378451793807,0.7642503222873316,0.7108256050470545,0.662577997601852,0.6107335223957304,0.5514761616477077,0.49218839271287784,0.43677359242859604,0.39158952137172554,0.3329310418606233,0.2736398165792626,0.214351525931749,0.1586366629939393,0.11360321835223397,0.05522736057274713,0.010260394538628148,0.0,0.03091681594531437,0.08690761277708692,0.1334431707377588,0.18719160282205083,0.24647684145036308,0.3057680667317233,0.36505929201308396,0.42399321763721165,0.4699538878627991,0.5241993833519576,0.571168790100097,0.6017810618052399,0.6466825591563854,0.696370398270667,0.7200020345662068,0.7403619864065627,0.760410828234622,0.7676365642906386,0.7593060093384767,0.7801730958362287,0.7894509799474791,0.7789108397151305,0.7933448636179365,0.7959447184411532,0.7837371610122861,0.7616042323819348,0.7777231703124619,0.7922276569759417,0.7775345869822803,0.7616766749959547,0.7587980932326768,0.7517374030341513,0.7240068931845807,0.7040979315479561,0.7049287384405662,0.7203853490123491,0.7248048923936015,0.739395514976001,0.7401931219182449,0.7392885869270174,0.7243379107866779,0.7292604454870317,0.728292611605458,0.737011223492777,0.740190839425253,0.7401931219182449,0.7401931219182449,0.7401934708136024,0.7413630947060366,0.7526171411814473,0.7429416189932607,0.7563013438678357,0.7422798260340899,0.74510690184733,0.7736765446483904,0.7765795137346729,0.7617926933666199,0.7586255385902745,0.7462908838971467,0.7402174246456492,0.7417706027801008,0.7568267034201286,0.7576573290553683,0.7429431971741294,0.7552842642817748,0.769420991198873,0.7773894939146202,0.7774267240275479,0.7701834096708913,0.7203377572765581,0.6610773059178086,0.6017902934663706,0.5468105840297048,0.5014050997706585,0.4425321861307254,0.38324096084936476,0.3239534266852431,0.26867365459504855,0.22342180165135428,0.16469584106228075,0.10584636840054484,0.06352905670899922,0.05343069854034832,0.08930340122925395,0.13491380283642052,0.18930839009870715,0.24857762543932838,0.30267869761826693,0.3489351744156233,0.4078482797161338,0.4671395049974958,0.5264307302788556,0.5854911441629005,0.6333821123528929,0.6836186443440142,0.7248054788573923,0.758135161171904,0.7738801385227787,0.7600027913255691,0.7650672584738838,0.7795664270759479,0.7950410028931088,0.7960524659333199,0.7960524659333199,0.7951684940284349,0.7806386536378191,0.7913446286388108,0.7871198600140263,0.7618101589787347,0.7748567095591077,0.773095274865315,0.7541778702289323,0.7402071237043555,0.7269932825872907,0.7215917364586644,0.7216031892125216,0.728876012416853,0.754189399201834,0.7679535284757875,0.7773601634142975,0.7774282630799654,0.7729967221738607,0.7592222373448441,0.762217303881719,0.7739494596744403,0.7600468862885053,0.7649497793077047,0.7772519702430056,0.7771532674285595,0.7644985407345914,0.7636721861776077,0.7772786649477501,0.7891968050919673,0.7743041927892076,0.767962515703994,0.7773716504292718,0.782710075516023,0.7856364652089529,0.7774789719425184,0.7774326845949617,0.7776054602024343,0.7883363243586912,0.8069508782778332,0.7988331152892947,0.7905535759751898,0.7876967078933146,0.8159172127157173,0.829136239189233,0.8110791722915369,0.7969488477534128,0.8166365455705771,0.7997510481374652,0.7518531551042189,0.692767443568191,0.6334824136249537,0.5799325421668629,0.5332083328063777,0.47422232378110873,0.41493109849974674,0.3556738864887885,0.30517927075384543,0.27431555289877263,0.2320695662267851,0.1743336346208264,0.11599390390332509,0.078005622562904,0.07888542824409983,0.11762093811244068,0.16572095701147616,0.21694942674886697,0.27619547284139,0.3349439271231205,0.3802183740290901,0.4354531367212542,0.4944666264130668,0.5416813551749722,0.5947116536344894,0.6532492729006534,0.6983046602952858,0.7474933100784766,0.7709370492162368,0.7903139226652964,No
0.7311757613696703,0.7070482165024492,0.6830454656094971,0.6520935020628826,0.6254566711491085,0.5973030205468732,0.5647146890825021,0.5431298711947967,0.536682554603606,0.48851697487638024,0.4408023382857289,0.3794977477936863,0.3405310039300926,0.2893456896753839,0.24411157397610195,0.2133763509471276,0.20346429221779028,0.2042939760424325,0.22545989043158965,0.2851957036382089,0.3365717840925746,0.380394333739674,0.4312987603167162,0.4744206878890873,0.4856513762471315,0.5071653328342087,0.553166443288164,0.5946181669578094,0.6172500605599813,0.6391256130512839,0.6667584904387502,0.6900492790729951,0.7047080926579508,0.7284084552865733,0.7512973092432254,0.7334202262561598,0.7135108002094963,0.7091826859435688,0.6919853377327203,0.6902003677691444,0.6901997528292618,0.6904405392863313,0.7033562752127485,0.7113406054959328,0.7113706118069625,0.7113994653889226,0.7196152548373775,0.7324429350627661,0.7325414707846627,0.7325414707846627,0.7325414707846627,0.7325414707846627,0.7325414707846627,0.7325414707846627,0.7328261795337645,0.7456680746840374,0.7356867360703498,0.7329219085912269,0.7484027012599577,0.7537087297169567,0.7537123297623634,0.7537123297623634,0.7537123297623634,0.7536581124618662,0.7432571523919909,0.7159668110311843,0.710488649781237,0.6888162546673686,0.6572732327621154,0.6507194114900816,0.6845267517336442,0.7073309896823328,0.7321660559247554,0.768025435148874,0.8001769595359303,0.8222150089077753,0.8563930319259847,0.8805399542788623,0.8966678050744621,0.9234333169002613,0.9363595756526437,0.8900258935197556,0.8397898531080727,0.7768524525957714,0.7287819321898716,0.6652922123948413,0.5999537775007888,0.5346762987913221,0.4795547080115736,0.4249757000868426,0.35976830682436844,0.29558516989902817,0.2696922530970838,0.29892904796495934,0.3589415956569528,0.4241596388043125,0.4790186027599024,0.5336686001687378,0.5839004130583616,0.6231699568827533,0.6701926717879672,0.7113786397965303,0.775770225869409,0.833382209660769,0.8854109005223627,0.9505702664886568,1.0,0.9804989751088438,0.9506089240698974,0.9442681816435727,0.9457376787554765,0.9628561511264633,0.9788703447001477,0.9855329817008456,0.9554177473457934,0.9192796595953321,0.8773943873797516,0.8460935615429825,0.8312018084147312,0.8096309310101693,0.7872894327214865,0.7554507772877006,0.7168601192844442,0.6906119003635927,0.6655698250679181,0.6438376090445157,0.6221177370382667,0.6063010953324315,0.6215517202508338,0.6302086303855647,0.6579966672699085,0.6916426458616165,0.7331008646015986,0.7545472459720397,0.7719952488093051,0.7748790348415171,0.7703409967568424,0.7542921472060105,0.7409768312781413,0.7193553573418847,0.7097039012716264,0.692218879207851,0.6902004858701813,0.6901997528292618,0.6901997528292618,0.6901997528292618,0.6901997528292618,0.6901997528292618,0.6901997528292618,0.6901997528292618,0.6901997528292618,0.6901997528292618,0.6899253679063171,0.6766885582188826,0.6861378470558845,0.6872241149942151,0.6704440336565365,0.669029321458765,0.6690502043535695,0.6758192674134715,0.6898365580971206,0.6776853111990015,0.6690593974822612,0.6690982416848943,0.6786265096379132,0.6900856477393034,0.6791970949022934,0.6464806193980093,0.628028086158992,0.6220428229116957,0.5894376149508003,0.5864049806495002,0.6116746079416462,0.6443489056659164,0.6707279552797543,0.6990862975550933,0.7316763689312107,0.753912155711415,0.771121493534336,0.7801038505016837,0.7954271314687631,0.780687121606729,0.7210744344347195,0.6674119125525206,0.6114331244734914,0.5462678272503836,0.49434532098112616,0.43662179374942367,0.3713095919581062,0.3086527083204036,0.26024915126393555,0.1964616154398886,0.13112302986520374,0.0658607343186226,0.012859186984769622,0.0,0.03849078554498497,0.09269134299569703,0.12459882275362144,0.1705882139411492,0.23498477332051237,0.3003238557340411,0.365662938147572,0.43100202056110337,0.4963207353576178,0.5550689635790218,0.6061519634558272,0.6711874912375224,0.7361374087311696,0.7822190133204212,0.780143801931096,0.7483073296448359,0.7328141202170175,0.7325419065367651,0.7339706155142962,0.7470325802226974,0.733592882882014,0.7316248736406057,0.7136559855497926,0.6877655122137787,0.6692800406744,0.6535191440870265,0.6126025168523088,0.5838078573721925,0.5560441110366368,0.5176921749651693,0.49629398807913816,0.4694283314837433,0.45774408350418216,0.4714776805790972,0.4806884312926014,0.5007980210710672,0.5311614194420358,0.5720094102129578,0.6055586029187423,0.6439371815908324,0.6654457447742836,0.6808602473127539,0.6917250888002506,0.7046908622672965,0.6911065013653128,0.690199923872143,0.6901997528292618,0.6902010270251466,0.6931831516448446,0.710395944026796,0.7123106155073593,0.7285620655821763,0.7325391413435169,0.7325392879517012,0.7287161881881437,0.7142096694672477,0.7324412655726467,0.7519835341194749,0.7537121505745827,No
0.6548540682378654,0.6156487487516022,0.582592848969461,0.5937776583359717,0.630765280830075,0.6636474314469236,0.7059102314847614,0.7500913101096955,0.8126217298456853,0.845203734765918,0.8504392919099901,0.8078072788876316,0.7433786597485224,0.6709574019018252,0.6028865605237517,0.5365387810197344,0.4718252670123224,0.40554907995902933,0.33908873720303756,0.3331007376060402,0.2819727746054488,0.22527950102018313,0.16109997860202974,0.09834244835358419,0.025363154529741472,0.002721057835738172,0.0,0.02461919921647704,0.06994945509747685,0.1354156608685213,0.19587305954191425,0.22520312743954474,0.2860962495717141,0.3695961467114133,0.43324522961547185,0.5125278631339114,0.5972483329744183,0.6819718152156566,0.7666952974568932,0.8509804909096879,0.8869506811025856,0.8274404316211976,0.7556421351104481,0.6870668867961083,0.632018990414208,0.6084377418667195,0.6323181404921598,0.6658750226790717,0.7015695812211398,0.6984942095566486,0.6795190257368438,0.658995641830824,0.6368202925356004,0.6350033569898663,0.6299396876140237,0.6086603954378687,0.6015567191603353,0.5794326443588487,0.5546649174119205,0.5209258461456416,0.489872812050157,0.4676289592781524,0.4355223038180913,0.4139287830940255,0.3947440293205773,0.39374024524996365,0.4424286975396967,0.47557738137755035,0.5143750923245536,0.5585831371540921,0.6120638745280989,0.6438148904405621,0.6838114515176983,0.7158618098806109,0.7282527594802453,0.748773899253214,0.7718011773348046,0.7727857948364409,0.7543827544833697,0.7423652278512485,0.7200531126788441,0.7139560640129305,0.6912713295355912,0.6690108343282137,0.6629722122643598,0.6801545010839254,0.6902255172070779,0.6902560182714765,0.6837159353230549,0.6735769404960585,0.6901321481782192,0.690259981956646,0.6903731129064665,0.7027310318889537,0.6985371623997496,0.6902824103885461,0.686328167716483,0.664447515005568,0.6629279713500589,0.6794965973049445,0.6902178614874313,0.6927805309851633,0.7154674370698162,0.7178867287843937,0.7179234733788453,0.7288299082340606,0.7453950812116892,0.7455144268965839,0.7456578187854843,0.75908874581995,0.7730545120343129,0.7692098351263885,0.7472607652917747,0.7327009409697816,0.7046107251152911,0.6753087912521787,0.64003136175437,0.6350127743716882,0.6354526084914225,0.6582462063115431,0.7032104191377293,0.7596238873939507,0.8125972851556051,0.8473012953566199,0.8306939126189556,0.8170073321574831,0.7761029550111953,0.7093340074876213,0.6248782507503012,0.5452179226058353,0.48284234303105844,0.42108048994424774,0.3475435399061393,0.30748620571233687,0.31435951090458847,0.3666142448151941,0.44989832841271316,0.5302425714316312,0.592884339148239,0.6764463707216626,0.7611698529628992,0.8458933352041358,0.9305945108276639,1.0,0.9593542296705317,0.8961787400947383,0.8139018414500248,0.7513712087827402,0.687066349520884,0.6389760478897974,0.638446601692122,0.6728928950413549,0.6901231477092482,0.6808124048629054,0.662453102055105,0.6428782232928754,0.6350252290540253,0.6306957110557052,0.609016621688224,0.60737875055211,0.6063063745608943,0.5845311554277028,0.564274797050655,0.5294828827630518,0.48081713195304143,0.4676147272340092,0.4442220816621161,0.4234696921179406,0.42694311756697445,0.44819939308381773,0.49690424371859443,0.5387422489505402,0.5744800124298832,0.6089121418928043,0.6562124310451933,0.6984070066027126,0.7356223962383535,0.7481814839613019,0.7645219974445432,0.7460938852262196,0.7455054264276129,0.7373826573608024,0.7179470902371401,0.6991283095434335,0.6871093559846493,0.6612611044953507,0.643374974301949,0.6618299460995081,0.6626327594866774,0.6626327594866774,0.6626335918605637,0.6651533085151948,0.6878412055211403,0.6931668017502153,0.7251591913988191,0.7241965709439819,0.7441750250598318,0.7454884502405479,0.7360668498028424,0.7182424228890882,0.7178872044266145,0.7178872044266145,0.7181516400718433,0.7340931384659024,0.74546298595995,0.7455110974010397,0.7396925540522155,0.7188197180584721,0.7178873233371705,0.7177593706481868,0.7006771551606388,0.7016280953473846,0.6995169373551526,0.6904323848984637,0.703834300880013,0.7178000670943749,0.7139723047405129,0.6989482943981322,0.7115903708380342,0.6648225595285329,0.6211785365571156,0.5846748247745648,0.5642787607358244,0.5361811949289921,0.5275991503692277,0.5507465356015979,0.5645682305136237,0.6178305093379004,0.6793075326127243,0.7302527491167359,0.7346656489341168,0.7181199108644698,0.7006263611923034,0.6295459632930971,0.567299866212922,0.5053018707501904,0.4259498970058617,0.34134692901073826,0.272543484841667,0.20644746212053278,0.16095860060754408,0.14213609271478145,0.1817874424413093,0.2601998654311597,0.3449197010820404,0.4296427473179074,0.5127283584230309,0.5757727512967863,0.6557917446057688,0.6951065754913683,0.6435183616231486,0.5789028327694759,0.5298206535854542,0.5249475853823151,0.5445221700715752,No
0.9093887426345395,0.9103962870182882,0.922395101756933,0.9245861981032228,0.9230697912328534,0.9118028732747936,0.9270780156615013,0.939569146263036,0.9397865945653456,0.9397829872803167,0.9366077409514664,0.9211176906936083,0.9097225066954615,0.9133469554814484,0.9351751320379678,0.9556875106696223,0.9694294021204519,0.9784877463642494,0.9853396321270238,0.9857629227007756,0.9971032201181314,1.0,0.9884381939313025,0.9812325306410483,0.9701274614032385,0.9589835356109448,0.9566082017437485,0.9691355015145389,0.9701846173172686,0.9702074089514814,0.9751672395540538,0.9759226808025301,0.9710643522298339,0.9828849839914242,0.9853820034035494,0.9853838718181214,0.9849682480300905,0.9741831936154868,0.9802721422607861,0.9853592341853612,0.9791358320718366,0.9559867709453642,0.9366766183468975,0.9140478744157137,0.8956693784916312,0.8944654014414835,0.9099028804993599,0.9335023649215577,0.9619833383618754,0.970154471183021,0.9760085178249285,0.9952210964537307,0.9867639829585322,0.9823613705296048,0.9762979683283155,0.9785261704670707,0.9366898611088361,0.8872454051974468,0.8377738372163281,0.78830226923521,0.7388307012540913,0.6893592893252283,0.6408825393336608,0.6039092843660647,0.5561422280001826,0.506671957535469,0.45720038955435083,0.40772882157323176,0.3582572535921136,0.3088846774420637,0.26837920953364947,0.22500960088818434,0.17680573755065399,0.1472936695664102,0.10697998271819253,0.057914964066700714,0.019958295932874348,0.0,0.020126738366546215,0.0644907033938884,0.10213479655726831,0.1490482016747039,0.1985177328819958,0.2479893008631151,0.29743747907087426,0.3417655151732888,0.38133373657264835,0.4306764766006186,0.48014804458173677,0.5296196125628554,0.5790911765861266,0.6284087805597722,0.669139632187886,0.7119979600427255,0.7458597324737934,0.7811271377329438,0.83032332305145,0.8797948186605082,0.9285939287215341,0.9459124493904785,0.9184793335533934,0.9094672949714124,0.9045628821762635,0.8946200082673657,0.9032907149992124,0.9007329826761761,0.9009505513845055,0.9093043284213769,0.9093884021914054,0.9093884021914054,0.9093884021914054,0.9093267055129362,0.9018022281498452,0.8941282677867926,0.8843413751479963,0.8872384076098219,0.8989488900232123,0.9149991659514187,0.9244785136791154,0.9240270154000934,0.9125571508989494,0.9153011959268835,0.9316009450240412,0.9391338793967474,0.9276477596643575,0.9235408731755519,0.9109968460019964,0.9067680690576321,0.8949768565567866,0.8962355582997432,0.9087079730026719,0.9179871587585722,0.9245506651349724,0.9245874983783753,0.9245874983783753,0.9246108881517343,0.9296454828253431,0.9302539332271906,0.9278308325221536,0.9364388459613404,0.9256025786741704,0.9358165410377337,0.9399349135810726,0.9486812455246736,0.9549494111808783,0.9503564150191974,0.9378706028504658,0.9148151013368349,0.8785707276612751,0.8594245265093376,0.852322149498395,0.867794322389678,0.884597886146151,0.9127915336332566,0.9447886882378795,0.9641187882559059,0.9705144241162187,0.9801408828458817,0.971536613173436,0.9700885812200348,0.9573750687510643,0.9233546857793193,0.8761455013067421,0.8380556097075562,0.7918735636561398,0.7424388197368277,0.6993384309511077,0.6585157717916439,0.6091913485970175,0.5597197834429326,0.5102482154618144,0.46077664748069624,0.41130530340064064,0.36359680462115773,0.3263310880731869,0.27808882677674474,0.22861790376207414,0.17914633578095596,0.12974652519530494,0.08912798375330788,0.07632519215385769,0.11087371708163318,0.151772114280754,0.19468028670519066,0.2441150214429062,0.29358590095424675,0.34179648192198475,0.37903262179931185,0.42680241655821893,0.47627376516152786,0.5257453331426465,0.5752169011237647,0.6246835055994686,0.670865551650885,0.7089567842698066,0.7579041153089272,0.8073756448423883,0.856847212823507,0.9062866479897851,0.9443959573046845,0.9257398387327043,0.9036669633291776,0.8913744539197452,0.8794668095990654,0.86927015830658,0.863834822132556,0.8683285550295574,0.8749080849430841,0.8641278225249049,0.8614727002595983,0.846332866115179,0.8241790760433956,0.8054349506943406,0.8192021029694514,0.8438292672328926,0.8643974183463285,0.8777966409686142,0.8680216882613525,0.863834822132556,0.8696217482904682,0.886624997951468,0.9065010169408714,0.9016328720728914,0.9004890935007825,0.920999303565285,0.9220229062002359,0.9102076330724609,0.9113795768101909,0.9219308083393427,0.9099855886111037,0.8936499925430845,0.8705341215341318,0.8783451993085043,0.8823487974594411,0.8840901668711338,0.8940460151145633,0.8881774736163655,0.8678568575941621,0.8693194120665346,0.8962610418431112,0.9072775955897217,0.895292233414688,0.8933034726103939,0.8813866654556439,0.8909683949156002,0.8870924972985836,0.8790896149684335,0.8789902098174651,0.878938379356081,0.8710269926047491,0.8417642474758682,0.8090347013614396,0.7926951701544618,0.802763840310246,0.8132493857238847,No
0.8014416990217654,0.8014410584436238,0.798561853683819,0.7713111129691548,0.7223001092630392,0.6581548629189866,0.5995699798421708,0.5404436897306173,0.47663281084652986,0.40274077519915163,0.34135533455335665,0.27730925323605327,0.21996358682800654,0.2729726726961177,0.3526333003237072,0.4160383140135675,0.5001592053224044,0.585421296102786,0.6568876144384737,0.727687677759886,0.8128357583015129,0.893464818252041,0.9555852951349895,1.0,0.9927681462979558,0.9333777920892112,0.9141340825690474,0.8760430555624419,0.852925488949646,0.8504491852395892,0.8348577452701686,0.8238884192367966,0.7862455542248092,0.7423887957975914,0.6875774787091897,0.65909846164279,0.6432679279153355,0.609590310725844,0.6273212371492027,0.6418575270529674,0.6841329553803384,0.6960624111034832,0.7151985304641881,0.7158302565047698,0.7335747836998641,0.7182092084052067,0.688149938670465,0.6948143543116041,0.7151522062952189,0.7155533729110575,0.7151075568268466,0.6941900573904842,0.6882139520338564,0.7134226720530101,0.7378072856843811,0.7174751235294723,0.7321836426608401,0.7414294751940682,0.717370417286161,0.6958552891732035,0.6869463272756677,0.6928833490962143,0.7145499067381751,0.7155328885112802,0.7067765680221649,0.6873688543152721,0.6869922992166426,0.701264976032955,0.7132549761357554,0.6824189074424796,0.6725607879852102,0.6787771410459582,0.641659224000036,0.6110589020534638,0.5764642222391689,0.570643565182305,0.5480679219669939,0.5567234332576572,0.594219488123148,0.6228948645850139,0.6513459082144877,0.6792091700277156,0.6904622773844267,0.716961717105181,0.752867165325048,0.7712626118989112,0.7526654445479668,0.7705430930437371,0.7717069016593259,0.7499131423609668,0.7441848725625935,0.7440750282651072,0.731251349010634,0.7021551075937866,0.6604314173478514,0.6145378096410834,0.5570583969605121,0.4782664474794389,0.3964835194913645,0.3350268849522866,0.2620809985558932,0.1945667156873867,0.13027985070432813,0.06281125590399839,0.0,0.021600754105783437,0.10608328988123539,0.19022156131833068,0.25211392664964194,0.3334391258901377,0.4187615769506632,0.5040090750594253,0.5738254078031266,0.6462284973555681,0.7304192430280096,0.7921502272429057,0.8297512793716253,0.8586770104169101,0.8774552500375368,0.8389874002095885,0.7873005606981929,0.7728515952757817,0.7708451693818237,0.7460342355228731,0.711813291594976,0.6691795987655862,0.6267415952059192,0.5948156209674877,0.5738250776857647,0.5978099543360855,0.6278288297381156,0.6419137168255968,0.6790027284579834,0.6986920264712912,0.7357282325551608,0.7296689731517603,0.7161125498470842,0.7345388427438237,0.7312146079442163,0.7427634594379464,0.7202295257476043,0.6927714501205724,0.6894491416323589,0.712127439957813,0.6954060234238,0.7129299036639916,0.7155488335145304,0.7117010420002394,0.6881365049706094,0.6863262160462265,0.6667771054962852,0.6835000749470028,0.6653986493510811,0.6582980865354342,0.6595791003469786,0.68362567840102,0.7039433168369627,0.705330084260976,0.6871529361900404,0.6869239567560994,0.6865613742029453,0.6668705517553937,0.6388242993391389,0.6296652701129872,0.6181366698905633,0.5666247183188329,0.5442003255387844,0.5493500981452151,0.5912045519002413,0.6435217526169161,0.6862868525406878,0.7331549518845568,0.7761542178776715,0.7999832677826806,0.8061981226688255,0.8423836410117644,0.8804991660166266,0.8873026134032864,0.8803998591624422,0.8594333585474141,0.858700570154598,0.8586884076627062,0.8523859828432858,0.8308887465449679,0.8238870410232204,0.7874343428649428,0.7512026982748345,0.6731907822380165,0.609997800971767,0.5437812204668697,0.47424647317461677,0.4107928668205014,0.3359629791470162,0.2743758052448575,0.21182031415889302,0.14509375472820807,0.08321010316486888,0.1127394629105245,0.19563115180194934,0.2531570405481567,0.2939036713652978,0.3677031363887888,0.4530046273340238,0.5383280072058261,0.6165537360886226,0.6808525583785494,0.7655906024585111,0.8338726136997492,0.8897176430876064,0.938419227052492,0.9723678938051012,0.9631325714778791,0.9156226255560229,0.8782603747702771,0.8473373563668378,0.804120687351646,0.7822517215163849,0.7518404421596028,0.709632304045873,0.6669316205450464,0.6326156249878094,0.6127410638247648,0.6238490470378988,0.6297153961600559,0.6440619960598797,0.6937748508620212,0.7281868816362982,0.7282079162540578,0.7501312290316822,0.7723510172091892,0.755198243456773,0.7240892411315727,0.7407578590381423,0.7202524746295014,0.7155549711211648,0.7155533923225157,0.715383827140065,0.7015741937903845,0.7071506053506518,0.7014547130881077,0.6869941499913512,0.6867936938603059,0.6762206850119155,0.6845702047318287,0.6823016332653618,0.6593871731245509,0.6583128927331012,0.6670338354087235,0.695064365050035,0.7112538219077456,0.6763567495080407,0.6662754705022316,0.6865227707288044,0.6869239567560994,0.6869239567560994,No
0.9973915874298762,0.9973976772888768,1.0,0.9945678629897352,0.9528379602134716,0.8985368847385211,0.8420029344188209,0.7896429445867921,0.7421229818807777,0.6858396851830149,0.6294453979592949,0.5828715704112861,0.5568944662321798,0.5364497804681827,0.48419929287068,0.43328260439289523,0.3844437464443746,0.33456836360851216,0.2970924262253236,0.2419388823110873,0.1863902464442435,0.14033323580503576,0.0857891327907021,0.029929964383350605,0.0,0.02393922059895881,0.07279688018353636,0.1292543853878343,0.18494526540884726,0.23098262774341705,0.28540363779523803,0.34195592509835504,0.39850990102073003,0.45426088176018276,0.5004366961875537,0.5546592848381933,0.6110842456463976,0.656572301551344,0.6912441488272023,0.740388002710131,0.7911872199528251,0.8337252988740711,0.8756644753664209,0.9112040311564842,0.9395069093316755,0.9435818449946725,0.950359343510299,0.9431947058366532,0.9306355303768625,0.9143721337847435,0.8942127320833277,0.8625280889946807,0.8247871545941079,0.788704111564873,0.7513140254578823,0.7174281447651283,0.6800872492713155,0.6440914990712958,0.6216340489757388,0.6268982769248392,0.650252881779666,0.6885143601162764,0.7308995407722709,0.7713369603116766,0.8124513410750267,0.8511336642341489,0.8827361836343544,0.8892890634261508,0.8954167501343893,0.901628223682823,0.8911407303168501,0.8824404160925194,0.8687643642409215,0.8693186865190525,0.863555566532868,0.8722940545120679,0.8759335355008755,0.8840587705936391,0.8920233324171627,0.9022251455934938,0.9027811509700858,0.9029573146483636,0.9108116279609981,0.9120817499463572,0.9090354794589994,0.9163010815844115,0.9234858519221261,0.929745530042402,0.9298131576090154,0.9308628395084964,0.9415949077879238,0.9433270616527878,0.9433152019943027,0.9394782909716772,0.9258622506988146,0.9170050972038437,0.9342707196461606,0.9559704639152589,0.9610741977516284,0.9678437114093414,0.9754541104880836,0.9768261818477,0.982541437723047,0.9604976633843165,0.9156908475116232,0.8656102832397208,0.8091296067472546,0.7553412308368315,0.7088608218052994,0.6529776194852785,0.596423547195527,0.5398692975021959,0.48336570838257287,0.4326394481411533,0.3835750495539261,0.327168075365984,0.2706138256726529,0.2140599264061458,0.15859507979516652,0.11256575957451931,0.058019313992264454,0.011358884172374184,0.0021942693022227733,0.04415557157258809,0.10057980559409851,0.15636384172869278,0.20261580480710406,0.2567292616870931,0.31328127740942224,0.3698099977872358,0.4219451470057305,0.46969912696439153,0.5259824995456339,0.5825239407241369,0.6354087829446551,0.6824979055306715,0.7339265987351031,0.7793811008494385,0.8242666846628923,0.8655670563183295,0.8948951833952714,0.9103445041725324,0.9162286490721794,0.9119154637482811,0.8998743634372302,0.8729875881043423,0.8517885108843535,0.82842886660442,0.8002599534500354,0.7712783000432344,0.7326020769577544,0.7009929647035147,0.6649182734227197,0.6323608406814567,0.6116214519374557,0.6136080134183517,0.6521337041958615,0.6932415250805413,0.7347553438836574,0.7769473175173465,0.8152181431023298,0.855010248395212,0.8903276820741701,0.9216568046149116,0.9408454657905119,0.9433262556710926,0.9430939624070902,0.9344735409339426,0.9294274429004714,0.9198864533441906,0.9144321594648464,0.9037500911298504,0.9029053490651799,0.9100853273041305,0.9164479423490031,0.9272474235160018,0.9348898124761167,0.936304548086313,0.9432339412384945,0.9433284808814242,0.9433284808814242,0.9433284808814242,0.9437200336319775,0.953150072062253,0.95683095299652,0.9552903076081383,0.9472217703832095,0.9562393023169271,0.9532944600067612,0.9326145879960319,0.9306138896957941,0.9484679197704211,0.9726350440415215,0.9925269074060994,0.9882768115970295,0.9752798775838074,0.9814255888220598,0.9905611468118467,0.9688973266474501,0.9207291485504197,0.8721228195188422,0.8157501500362043,0.7591977400837,0.7046378350510523,0.6586973891814423,0.6030485796633382,0.5464946782066622,0.48994042851333197,0.43398237005937434,0.38771078671743253,0.33378789699912015,0.2772392063771201,0.22068644599779041,0.16590649776161936,0.12006615647877084,0.06478786636954137,0.01855677556188695,0.005597532775826419,0.048539672239731324,0.0946433601401433,0.1505088454160397,0.2065272743525497,0.25331920059288393,0.30666428427208126,0.3632101463982855,0.4196938547954634,0.46977001046511435,0.5194478839405079,0.5759113685344972,0.6322253589159548,0.6800561755025321,0.7278901922853191,0.7636888651326958,0.8057244973417843,0.8435145896480791,0.8811452250006822,0.9113730723131566,0.9219183334034673,0.9178631347857391,0.9066584791723789,0.9010512111363482,0.8881549487194991,0.8673690797127627,0.8436851656632185,0.8103366091238966,0.7738558008668757,0.7389707819539804,0.70524102470864,0.6695919453429373,0.642039104639117,0.6351029303684068,0.6600079431980168,0.6947195436672455,0.7394017274729863,0.7753135704152894,No
0.8845114998329424,0.8895466351057326,0.8831512052842445,0.8811368515247904,0.866596084255868,0.848523434276625,0.8236514344944403,0.7874731627906182,0.7515598612149668,0.7173951059013322,0.674489644169705,0.6403070054263262,0.6008141000839975,0.5715458086584826,0.5580379291004813,0.558796000707259,0.5826937470337861,0.6276307887450907,0.6627006375561371,0.7001967473866728,0.7289415731569844,0.7355852767873066,0.7505494268461783,0.732370358367417,0.714592274343399,0.693455783418423,0.6447760366232205,0.5946247445745494,0.5625568454411729,0.5574133129360124,0.5573096161739375,0.5582126687004978,0.5781327498824269,0.5759316912928543,0.5648690997557655,0.5925198258397866,0.6334913528081785,0.6631718219098441,0.6680610651442236,0.6582884376587095,0.6865519151187223,0.6821968368728373,0.7117927818733358,0.7521352913220847,0.7894419717609273,0.8237555554584359,0.8633219161889132,0.8968768005150975,0.9139497758204462,0.9148280838743155,0.9056048821881078,0.8982982739042589,0.9121228007010909,0.9218249869479034,0.9220997303765435,0.9220997303765435,0.9221038307506064,0.9244813149049418,0.9345492409457323,0.939765042492084,0.947952598846753,0.9481561815969775,0.9481561815969775,0.9481561815969775,0.9481566858458894,0.9490189139644016,0.959420142342736,0.9611826187498487,0.9608681048752339,0.9532989509777421,0.9482996791361513,0.9357086949978104,0.9386693533706971,0.9599408192618215,0.9793240020725413,0.9871394391350861,0.9872613477456946,0.9917375348019442,1.0,0.9907652528005122,0.9548721363443837,0.9086451822721342,0.8599353406172883,0.8196532386230633,0.7697968399230581,0.7191659573421074,0.6685346962451464,0.617903435148186,0.567494835497909,0.5251958864653703,0.47901756532722883,0.428406616370562,0.37777535527360095,0.3271440941766408,0.27656850695783497,0.23223223360559242,0.18818479150417877,0.13764748465817478,0.08778850022895024,0.048068543448716694,0.025217836774906077,0.05182027957928681,0.10173645405859744,0.14456625766137843,0.1901500329104171,0.2407490765026148,0.29138033759957516,0.34194682576809643,0.38665485827189094,0.43031429548863853,0.48087715637719963,0.5315064134113359,0.5801836345188569,0.6206452614141453,0.6703610151870527,0.7174689088248798,0.75861755164892,0.7999642637210376,0.8411510394715336,0.8752298740200342,0.9040702721389704,0.9196081859243082,0.9159841725529434,0.9064105395525806,0.8941385306733673,0.8814493580112415,0.8661415200213489,0.8525551686894772,0.829999083076816,0.8077533424040171,0.7846010401956511,0.761097592545859,0.7412537390702236,0.7248761578944554,0.7176524171109431,0.7365569952252664,0.7624581120728262,0.7924679395584544,0.8261374014507519,0.8584584770131323,0.8844451830273621,0.9071042738523616,0.9156780910682789,0.9102743585991768,0.9161976809888746,0.910018147104044,0.9197232442083147,0.9123359069814545,0.9090826922513107,0.9090715047663269,0.9088666080792067,0.901003855232918,0.9063844429405687,0.9205386685182391,0.9220987100731173,0.9220997303765435,0.9220997303765435,0.9222099496788796,0.9291693985110743,0.9350795186493328,0.9351279559867605,0.9351278882266523,0.934685153765467,0.9233347181369824,0.9102033212358824,0.9096723001298743,0.9236288572053462,0.9418624312077228,0.9516342339819639,0.9663635444196559,0.9633689921307185,0.9570525239101371,0.9505773809933897,0.9497340503016858,0.9148080747893781,0.86580018216149,0.8237818440333555,0.777289687079894,0.7266763462232901,0.67604508512633,0.6254138240293698,0.5748449742795168,0.5308670259401838,0.4864698595080985,0.4359170052517456,0.38528574415478545,0.33465463053570854,0.2846578855170261,0.24720563593557254,0.2187631422205525,0.17120789387851776,0.12058859743119132,0.0731014968481849,0.03215795103560204,0.0,0.011527268521555056,0.05283595642376082,0.09296810953550039,0.14204215710348422,0.1926723694468726,0.2433019048895808,0.2921817976617649,0.3325846387583886,0.38216951506737473,0.43280044932145834,0.4834317104184187,0.5340629715153788,0.584694232612339,0.6351863023436042,0.6781975242059888,0.7234892585555657,0.7671262038510687,0.8048880091753063,0.8388625884573915,0.8716949267049348,0.8918119155526618,0.9010346926460597,0.9021350160172728,0.8961136146734434,0.8930684049683029,0.8808536815496422,0.8696109156759428,0.8507383605520991,0.8311538477508735,0.8019628203093849,0.7762323459375038,0.7580830200593867,0.7379834951896527,0.72772587345645,0.7452573239456202,0.7777016024290182,0.8048502996593947,0.8357130410421751,0.8698528569032686,0.8994648086654506,0.9196051523311812,0.9220914591879068,0.9192623763383736,0.9131600256230326,0.9167195680803606,0.9092663040537956,0.9141660860311278,0.9116773854661737,0.9139380154469641,0.9219237568162737,0.9238462775790173,0.9340895531581537,0.9386287718290816,0.9478204411279747,0.9484023167604727,0.9570675471788861,0.9611701562863062,0.961184407207194,0.9612016322985188,0.9642153181865023,No
0.8791588602523133,0.8791646389354266,0.8863304925533129,0.9184360405021419,0.8968217588000469,0.8609888896977678,0.8386223780214204,0.8125701686707805,0.7765530896010686,0.7582441833874594,0.7776313407792212,0.8325207456303652,0.8758082287012492,0.8875828412756048,0.9241753353144659,0.9721241507494298,1.0,0.996099605019638,0.9514952645269288,0.9192482380706029,0.8615440253140285,0.7815866055122029,0.6817415814224326,0.5938513859197725,0.5026550572668622,0.43799647959318744,0.3601673411547841,0.27179598102261604,0.20291077196061202,0.2121166271653907,0.2784908416255307,0.35400586246455834,0.4613374392176066,0.5710572276846566,0.6522548586947474,0.7525690401269394,0.8322984772333335,0.8436919458859728,0.8800760025150627,0.9154785447978684,0.9195701867699881,0.9195701867699881,0.9195701867699881,0.9189284422095279,0.8902974410352398,0.8790821104820967,0.8561674620252564,0.807221639969681,0.7952139849654252,0.761263281882921,0.7579274427691471,0.7580751131438124,0.7769329122902286,0.8289768472755652,0.8647839836489952,0.887155152122582,0.9186380533285536,0.9195701867699881,0.9195761898679793,0.927009253800108,0.9570768161410648,0.9246148223653137,0.9002166307166046,0.8501162722960292,0.8542814772947072,0.878898769649707,0.8785627482302933,0.8503789361883278,0.8420508813945009,0.875998507264721,0.8791588602523133,0.8791588602523133,0.8781147196710739,0.8390185500987712,0.7958888643496334,0.7605040987883189,0.733828212025915,0.7178389347727352,0.7460787397307858,0.8145193366794627,0.8803398111281568,0.9190785948665106,0.9196768568040401,0.9352265631678529,0.9596992738917542,0.9419766165509547,0.9062073477412227,0.8690672731595219,0.7831506252952662,0.7041869463547235,0.5956804936224911,0.5098754701382981,0.4144862978674917,0.304467529604044,0.22106758769371648,0.12314753183767291,0.033110321620917205,0.0,0.05153436857834137,0.15121074084687436,0.22856659971575688,0.3348705980762876,0.44143829972978477,0.5183272578416629,0.6263055566404425,0.7288969858902368,0.7319278551023407,0.7294556170046791,0.7662148963256126,0.7972020609491173,0.773121127718909,0.757240518607861,0.7272786624069418,0.7359879885192253,0.7877487252751205,0.77836650870674,0.7581174981918393,0.7579248806992887,0.7579248806992887,0.7520637896565665,0.7197804153141973,0.7175460503816176,0.7300338810649869,0.7593586383316255,0.7982496048271175,0.8527432841608675,0.8791082653895224,0.9021773067020789,0.919541087640785,0.9198722989699419,0.9461382027090632,0.9553100777312391,0.9222900256295326,0.9195709161183423,0.9195701867699881,0.9195701867699881,0.9195701867699881,0.9195701867699881,0.9195701867699881,0.9195701867699881,0.9194428453701118,0.8958799767338714,0.8471754683143731,0.8384028918002597,0.8125214478033413,0.7764861794703029,0.7582441833874594,0.7777063881085535,0.8296874327090764,0.8654363181011613,0.8792848396357504,0.8970501507730759,0.9194594390204536,0.9195701867699881,0.9195547021433939,0.9057348962654928,0.8112053961610606,0.7066211454256734,0.6282107055522417,0.5199506440505823,0.43211333682712816,0.3388544929502073,0.23187985314273085,0.15652889212915522,0.11263638551614363,0.1439271334740191,0.21747994401779636,0.3210867388575309,0.42923815347569594,0.5072406021437041,0.6125233431307899,0.7228479287980862,0.8052531722763376,0.8460670779738013,0.883210160411493,0.9178656767222915,0.9446920818060107,0.9559897315683452,0.9225455515267909,0.9195717389728957,0.9195701867699881,0.9195701867699881,0.9180842838305612,0.877539491091345,0.8398810794240168,0.810009657458127,0.7983463335305085,0.7983362072169635,0.8000455573009813,0.8323275378954023,0.8692574960390438,0.8814833666675055,0.9138953535241727,0.9195701867699881,0.9195701867699881,0.9195701867699881,0.9195701867699881,0.9195701867699881,0.9195701867699881,0.9138643105580204,0.8814837954524553,0.8791588602523133,0.8791588602523133,0.8791588602523133,0.8791588602523133,0.8791144871041459,0.8576621974689198,0.8218488556646433,0.7957617482971724,0.7606607174376281,0.7242869704835915,0.719104678949325,0.7553997160916595,0.7997438926109544,0.8601959327025783,0.8791351470801851,0.8798112623067587,0.908093255850928,0.913764074096429,0.8665753845834594,0.8125261502126238,0.7909303241079586,0.7355556463837409,0.6368782473307801,0.5601649574944583,0.45277737148581476,0.3427182728341984,0.2598842675156199,0.16132204566966557,0.057390537206970293,0.00010203658024376949,0.008570395693201505,0.0772467186214989,0.18606499152661993,0.2965555852986883,0.3905890940461152,0.4776873890007476,0.5858479619083097,0.6430099211058291,0.6802104293119067,0.7273954526253155,0.7688270200104927,0.8323427998828752,0.8703176444591039,0.8791496592423078,0.8809378992174013,0.9094622389243927,0.8827635740906725,0.8791616467370504,0.8791588602523133,0.8791588602523133,0.8791588602523133,0.8791588602523133,0.8791588602523133,0.8791588602523133,No
0.8152704613617443,0.8396172527914505,0.8347512781050384,0.7917285131539735,0.8001057656830746,0.8168438505807218,0.8264471850985986,0.7964390579745775,0.7626487593742342,0.7665161644532796,0.8098019530710117,0.7841663314023792,0.758742764786434,0.7663049725671067,0.7564650978917662,0.7491675360901136,0.7606155808112556,0.8046620094546153,0.8144493955297571,0.8144566232033048,0.8144570913926845,0.8162521837144299,0.840734060179388,0.8223787022003677,0.8348856933362976,0.829335558087795,0.8143950302696137,0.7943058986866802,0.7959432780038469,0.8143299204988104,0.821371224887387,0.8460356698315037,0.8471284242039623,0.84712968977838,0.8502983424873554,0.8772509861226583,0.8798002252046198,0.8794197529166681,0.8577743226742411,0.853994266318594,0.8863771413009731,0.8964755045250321,0.8636958001059716,0.8226074577663027,0.7640030615490376,0.727130504332929,0.6637525206969359,0.6072130861350802,0.539904261182369,0.47221425775781434,0.4237135114709396,0.39938037433464313,0.43006675050215826,0.48946239343107223,0.5604457030684653,0.631300521576625,0.6926812478806363,0.7507737186853412,0.8171297788481171,0.8741939486559156,0.8997932215970028,0.9039057185818749,0.8254921760705489,0.7436005024848908,0.6548935067588033,0.5564935288167838,0.4815274545571038,0.3828829627084609,0.2957607051251179,0.21212101318008258,0.12917839838953782,0.07901698736331397,0.09111001696087762,0.16556102095970449,0.24035331593367815,0.3403946555752846,0.440076443415669,0.5160851557700417,0.6094933579874917,0.6641543864150483,0.7470527751932421,0.8087429734947191,0.8583777211882326,0.8581346273518813,0.8534624081263233,0.8804725791708456,0.907232368176607,0.9065219722390809,0.879954071403378,0.8525381176206048,0.8574529306305161,0.8506535379431526,0.8471299970276593,0.8464953443406733,0.8193879075748267,0.7840964514146522,0.7759185805295887,0.75360068287688,0.7819348756048363,0.8038409584654893,0.7627999875968152,0.779315175950221,0.8015107401061252,0.7778944326354118,0.7536002512647944,0.7796390421114312,0.8026588301042059,0.7564723404511611,0.775787823553209,0.80355149448192,0.7611295307794661,0.7493476979658791,0.7657847549417376,0.7767107183317847,0.7511538728642062,0.7589492335099957,0.7740675419721272,0.7506421977862994,0.7732826928389933,0.781778494330565,0.7831647243581079,0.8098323687818763,0.8277357751306411,0.7986276890513997,0.7565437003523652,0.770699648450611,0.7817581277960439,0.7817773604344112,0.7715770500968588,0.7237570620905336,0.6588490450154829,0.5960730008062702,0.5552577254285493,0.498326828526122,0.4109782152681376,0.3621476251560596,0.3702102572406565,0.4191349768601125,0.4744189062304942,0.5421006987743677,0.6043416365937739,0.6675522222027528,0.7326442451283715,0.7813939964459431,0.8480336124255725,0.8711433460802525,0.84494145407354,0.7921760066874768,0.712524600560644,0.6114592292020573,0.5243801345936383,0.440579731928854,0.3392476342798787,0.24524574145359423,0.16795905458024496,0.06979918092089843,0.032294920549480466,0.07422237965753364,0.14926509473496452,0.2493308009702444,0.33151007496080975,0.4202319536879804,0.5100219678761766,0.563761866270247,0.6279336917648362,0.6978447333232438,0.750184175378144,0.8148753319569444,0.8670815813013064,0.9275983020735765,0.955265094700839,0.9699008977960819,0.9465697748494692,0.9703759870098265,1.0,0.9684707817039122,0.9221769167683318,0.9114927648175914,0.8859706670984346,0.854009652408255,0.86916253166026,0.8797803995974327,0.87765809911477,0.8402109404451377,0.8149426890148685,0.8144566232033048,0.8144566232033048,0.8148521565729698,0.8350811331892212,0.8397968261892554,0.8153586716618415,0.8185361197858869,0.8349260894775199,0.7892128938177656,0.752111606590061,0.767002650966143,0.7665459337588194,0.7592236782084916,0.7811123570196017,0.7628225649122236,0.7531533660890641,0.7801317095435527,0.7831769015329257,0.8081908377093194,0.8095326967024246,0.7838199496649025,0.7817866876447077,0.7849362793318937,0.8040110798748517,0.7824180591641747,0.7787553040832176,0.718536869432782,0.6571096877656126,0.6071333957663807,0.5654625874360715,0.4985842939662648,0.42273577905883375,0.38295578803426356,0.3615918706685681,0.40658092189467787,0.4592992510102114,0.5046399817498539,0.5671921620925957,0.6349648760564817,0.7027406186204201,0.7674371331416827,0.807795824800702,0.8457455562783132,0.8689964429904897,0.813887697207643,0.7135573656345224,0.634976968434497,0.5433669445364151,0.4663707695567467,0.37177113959054875,0.27180982188113223,0.19713279841334064,0.10912782680228617,0.03386204171726348,0.0,0.05148682041501207,0.15179562408408653,0.25339734848719164,0.35199540978352406,0.42682258954820984,0.5217731695861518,0.5819755218071858,0.6370595610641718,0.6999397804471048,0.7605320420612749,0.8023727445002669,0.8366092534000593,0.8189355063273274,0.836529420928974,0.7964601824139761,No
0.8882184336913408,0.8779785951002759,0.8709591408324928,0.8589696178518476,0.8474126578232628,0.821446251996369,0.7854544049128234,0.745486071997715,0.6969492411381117,0.654244342506014,0.6061530754147757,0.5534787653832791,0.5119797744709547,0.4633093567667057,0.43370378218901884,0.4258019834886162,0.43136293469444764,0.4755769530872773,0.5296129831698169,0.573301496751002,0.6205554483675284,0.6533602565911667,0.6630862113472751,0.7025847633078262,0.7059637057248378,0.6690297111494132,0.6401601042780292,0.6134758825574358,0.5841135249779121,0.5250231058174175,0.46258001066472465,0.430122469026077,0.4257220215300239,0.425663286009649,0.42678769780111825,0.4530577996391929,0.4513235948388905,0.4349904294731983,0.4634231086853613,0.5189890924610472,0.5558922430618081,0.5772510120787566,0.5734747941376304,0.596343889721322,0.5961026081661815,0.6288249218841924,0.6673203664351401,0.7185907887795575,0.7588320342696306,0.7976796116736291,0.8312170910387451,0.8588424593073665,0.8873069762208874,0.9030299085312157,0.9052899233649887,0.8947451022650195,0.8983552594693784,0.885533819421549,0.8718265698467578,0.8712735579642299,0.8712692844906522,0.8672827676696562,0.8551572981387596,0.8662159178492903,0.8738121234603473,0.8860974843877449,0.8740769046201335,0.8811367832175421,0.8713176430947644,0.856229844610152,0.8541764102861977,0.8614513212353532,0.8849483062900596,0.8884749473942319,0.8957109398093879,0.9054079950047935,0.9055518979435466,0.9068926058098681,0.9206374915572271,0.9226886200781483,0.9226901697993357,0.9226901697993357,0.9223110510656229,0.9061276428477063,0.8748196991450059,0.8490863211692066,0.822653684155576,0.805205334897904,0.8194087380599386,0.8509761449803648,0.8829012461030756,0.9147517189683398,0.9379352996745638,0.9238097084909818,0.8730795021291362,0.8191334478822512,0.7687269314107472,0.7078433442587366,0.6442288939302978,0.5909808591747638,0.5334040589608109,0.46958547870604406,0.4057347842702912,0.3418937536954396,0.2826925001942091,0.2308376243760364,0.16747087713898257,0.10362018270322926,0.04014158093288245,0.0,0.010267638145844638,0.06655247992782742,0.1172267404784062,0.17789176842422805,0.24152895120183615,0.2947294064490351,0.3522393633568748,0.40791662496855796,0.46291628278053576,0.5208878734888449,0.5737005229373957,0.6372370402496781,0.6945828344645322,0.7480485618735586,0.8113021974185437,0.862366018774857,0.8943604656254922,0.9207827787632605,0.9382670219826088,0.9380145910391566,0.9239275872933224,0.907722590781467,0.8868801872685843,0.8707243242143958,0.8465271783427517,0.8146803993005323,0.780770907184487,0.735075491517402,0.7008758976938707,0.6661545051865576,0.6342666325281416,0.6019131450778672,0.5975015538183839,0.6129380933291317,0.6450901119382211,0.6841766545305132,0.722628455783354,0.7644488851035365,0.7984432779588815,0.8388311296870286,0.8810478174350758,0.9117553340808113,0.9326197241519987,0.9442673625060838,0.959366511444252,0.9600195277665948,0.9569775407989778,0.9568101237822568,0.9469400730545137,0.9398891920615511,0.9398290404110381,0.9398290404110381,0.9398290404110381,0.9398290404110381,0.9398290404110381,0.939831493792032,0.9423351138165166,0.948060898060683,0.9399564819884181,0.9398290404110381,0.9398290404110381,0.9398290404110381,0.9398290404110381,0.9398290404110381,0.9404058766540642,0.9497954258725141,0.9438439940822412,0.9562104652428518,0.9555633583186522,0.9286780457336508,0.9010064623844349,0.8759308476977017,0.8641555678094579,0.8657201594814281,0.90161914893197,0.933645675052269,0.9655074568278423,0.9895273478394992,1.0,0.9688750198245839,0.9163631502572507,0.8587138093621673,0.7990124172366229,0.7475827602414591,0.6843254457820755,0.6208425429226292,0.5689732283058775,0.5098979386533737,0.4460615386507665,0.38225624937561875,0.3258570267827565,0.27151247313697047,0.20779763151945785,0.14530733980243982,0.09932352710459913,0.08768183386284178,0.12837614525706176,0.18146832235905563,0.24102843182487366,0.2922553247269888,0.35566239758120144,0.4190428239154649,0.4709508520865122,0.5300852888389529,0.5917481559158526,0.6420240327946707,0.7044863695913195,0.7657847896329195,0.8161695530701834,0.8748501670025366,0.9160508288795715,0.9427116938145357,0.9571200015661576,0.9626734659301377,0.9435772406757854,0.9359136348834998,0.9231450752403836,0.9119077204729127,0.88750449610371,0.8584955761993127,0.8323771066802865,0.800567719582995,0.767498611711654,0.7286333880662643,0.6962340023108893,0.6690936608386875,0.6537537600789185,0.662934924546533,0.6890516596408869,0.722831098343673,0.7646792981065382,0.802904517263086,0.8419537724793091,0.8744317344143635,0.9105989201304978,0.9382772681468947,0.9559140695612212,0.9451684055210321,0.9498026022677575,0.9406775331870691,0.9383292370593441,0.9244707476324101,0.911843202826975,0.9005901513227714,0.8888287434088671,No
0.8896624237355888,0.8560043976699032,0.8687975322526547,0.8566735607373053,0.8197030764666167,0.815955558115316,0.8017022823304396,0.7846513315882158,0.8129100514171617,0.8252604353435857,0.8314955915353326,0.8623453733001032,0.8551860356691829,0.8722310289060013,0.8989041474980444,0.9087766560221961,0.8924261372852529,0.8674872996247247,0.8484281547808004,0.8457196127292423,0.8172562404269477,0.8162605176000786,0.8595197592993049,0.8609142197888868,0.8277358402503188,0.8264644576049998,0.8426499773375964,0.828746591119244,0.8413786774745922,0.8580637292563278,0.8110787097140011,0.7722848228623107,0.729148149228712,0.712462753526157,0.7130204165136962,0.7360339080069513,0.7910326710601905,0.8248638229352037,0.8472734059967726,0.8658594773644386,0.905838670481665,0.8775673682147827,0.8443670189812762,0.7768813465347475,0.7099215289813401,0.6405438645937851,0.5673705061405006,0.5038439007805517,0.42695436493945005,0.36582778530666316,0.28881589504167016,0.20961384631809565,0.14340097201374347,0.08989984977102283,0.045180631373058056,0.0164081759375585,0.046358251439860165,0.10615249315136444,0.1719544340593404,0.23366455737084468,0.31192400497863915,0.38447611667085146,0.44848837544748754,0.5275429633490254,0.6069410383212266,0.6863387725422494,0.7644359511726369,0.8260025930081878,0.8845163823802231,0.8757973250981808,0.8780762180782271,0.8726441386490409,0.8843754399418926,0.8749109100704247,0.8913699808831343,0.8794013525570032,0.8508051763651396,0.8590307869200653,0.8779183787312905,0.8294803325865572,0.8053114356122726,0.7944779863369771,0.7450993365583916,0.7435431639717498,0.7631919537556326,0.7863906520316188,0.7779982128636171,0.7463797608705458,0.7680251652333716,0.8253131999517005,0.8476914499443926,0.8458190584615193,0.829802483159626,0.8548349643459745,0.849215670604226,0.823316193524108,0.7833430787531768,0.7596753060735328,0.7949434379041422,0.798153026877241,0.7873321161133555,0.7805126725096465,0.7606018589736379,0.7821643375165239,0.7845230777730672,0.7818186081403633,0.8133052273117478,0.8245231365740189,0.8003290839203276,0.7453956655189189,0.711643595121783,0.6953908240461733,0.6978328986038465,0.671695814888746,0.695744922003315,0.7367737996531769,0.7857844312352689,0.8274706872889181,0.8672784792110457,0.8709404050612162,0.8854183666106299,0.8665114457402243,0.8097160654479385,0.7496561676736362,0.672969219302407,0.6093095601864293,0.536391028299608,0.4582370143898178,0.39671041734597345,0.3208008804149056,0.24185894871875568,0.17857667634598284,0.10526054038870436,0.03782378992981794,0.0,0.024489490564635563,0.08726623765404584,0.15924312255555328,0.22348289687692713,0.3025518639666105,0.38060727746855294,0.44224425469013084,0.5167354413957352,0.5783097795629346,0.6495097659688978,0.711280064027783,0.7733770575700438,0.835704353101435,0.8393247270079951,0.836644926447752,0.8676424955906286,0.8402329072923442,0.8368873984087575,0.8414970225772072,0.8107978222349419,0.8180213484018051,0.8360774600078371,0.8210585634681449,0.773543047329547,0.7577174581556472,0.7563897067886085,0.7382909720286683,0.7145242936711145,0.6943043491326217,0.7323245422277469,0.7776351984258185,0.7698446819561857,0.7616575194419077,0.8011201999571136,0.8604903401653989,0.9291099811505275,0.9414169303855888,0.9592392914099364,0.999064860066377,0.9890223725994303,0.9879306659119966,1.0,0.9841250627726343,0.966522066315084,0.9248042979214115,0.9381231314515435,0.9744300092519356,0.9625295230747715,0.976787255046013,0.9932651135589867,0.9827040987457272,0.9579560569732308,0.9180918434485643,0.8954049475329398,0.8476815042099672,0.8080529022046576,0.8208159558076393,0.8405332014645905,0.8557269565299417,0.9029733468793011,0.9551076965483856,0.9798288427558486,0.9949897440885329,0.9816158164091267,0.9573836765068524,0.8995423873859281,0.8386355899552691,0.7613977783657724,0.6865688014202775,0.6243695646088914,0.5458202932362779,0.4736380379120262,0.4091706300842577,0.3301997569170019,0.25080299553545116,0.17413037507291218,0.11818241026478615,0.08760424827323288,0.12316788567635895,0.18068578511486644,0.25558161745814356,0.3168396944039302,0.3945252868803868,0.46900224262753376,0.5315165071975079,0.6085270455649008,0.6699754861702942,0.7446070422385511,0.7979271114048947,0.8598227701449717,0.9204577745546776,0.9380536608263097,0.9383109707919521,0.9344651802290218,0.9200797782392094,0.9274451558853025,0.9095665114591993,0.8923413603638162,0.8591592687521219,0.8298779631347317,0.854436336748293,0.8495100726738669,0.8105710432841597,0.78107170606732,0.7609735254664542,0.7598813555057333,0.7792254112440999,0.805474093335115,0.8176874187619809,0.8032389235247526,0.8127173981196703,0.8328511266055485,0.8642006469993948,0.8702440846986241,0.8560931561237166,0.8479740538656446,0.8440876811601323,0.7979734302826915,0.7865481004129538,0.8212228340005874,No
0.0,8.308937133971739e-05,0.017055710631420418,0.0876319632841227,0.17671727407925353,0.2808627450980383,0.38365809745144563,0.44234518714552973,0.47104976255734776,0.4421816936069476,0.4522370800962028,0.480916882290944,0.5154471315396503,0.566905233967848,0.6180971766634515,0.652347183015868,0.6876802897123948,0.7345690975276797,0.7597517003287111,0.7599999999999998,0.7601727671466687,0.7826259291350492,0.7999870451232711,0.8019532409692669,0.833996797161225,0.8399985439146826,0.8399999999999999,0.8399084592965425,0.8192863754784003,0.8197682917820766,0.8399280541675216,0.8399999999999999,0.8399999999999999,0.8400026623520773,0.8465173719366454,0.8710497625573472,0.8413557916774232,0.8399999999999999,0.8399999999999999,0.8399999999999999,0.8393010182961937,0.8076657689232114,0.7886897026026247,0.7388802816824454,0.7201237994376744,0.7201916008808968,0.7443680124141929,0.7648665630705329,0.8093601100339658,0.8407436855287074,0.8635361669839527,0.8429248523046091,0.8740394262343738,0.9083998381734171,0.9196815797914288,0.8929703067452532,0.8416997620309798,0.7995682831413431,0.734764829345373,0.6615309193636376,0.5665474532164296,0.4819541651809045,0.39805098730108046,0.30114207159693773,0.24490250476472575,0.2029342883084837,0.22776566409643006,0.2991266951769367,0.4003437701010668,0.4715827831368342,0.5710585451601595,0.6732923177698344,0.7442694476243856,0.7743570799958217,0.7683971044128493,0.8031603759554908,0.8365093490999485,0.8103660275664994,0.7756907242402882,0.7686130285844524,0.799257065136544,0.7789963271792342,0.746169850359359,0.720379957834079,0.7152897914144498,0.6806491714002139,0.6456708064017791,0.6254311590819199,0.574609676709203,0.5274888932662636,0.49228387477667823,0.47949375212711054,0.44993308421088063,0.44019938451572216,0.46415709691844675,0.4799879801584508,0.48015601371930217,0.5079472710296384,0.573019888140724,0.5996950641553855,0.6049275802893579,0.6379180868316707,0.668520512928934,0.7336117082523801,0.7943060089299792,0.8623854301707325,0.9177634157817955,0.9274967769924407,0.9592898212270633,0.96,0.9598188827434955,0.9369188492151181,0.9214269542230324,0.9521160782474425,0.9599948894260395,0.9600009207598337,0.9623714554735576,0.9952310189483953,1.0,1.0,1.0,1.0,1.0,1.0,0.9999899787069264,0.9866528104060546,0.9726620771853867,0.9680112394583276,0.958496152731108,0.9255151640636656,0.8902743413654406,0.8548785259639766,0.8097722614152492,0.8327069934478866,0.8399960314537402,0.8410383583218648,0.8732037706376614,0.9246377060350754,0.9593737992455456,0.96,0.9610869394960933,0.9909777534081208,0.9950695269300738,0.9491328322460761,0.8643312323275198,0.8398477523687191,0.8137585320016907,0.7435950362146695,0.6428007161990088,0.5713999568440808,0.47268302499421466,0.39483903663733777,0.3613385530480455,0.3833820005007267,0.4779961125092145,0.5495431589437114,0.6485489696441302,0.750817292553454,0.799464654418923,0.8120623209255449,0.8471635157393846,0.8792954197616281,0.879530558213375,0.851306275552183,0.840033397513376,0.835906902308035,0.8026004777020965,0.7995178109697596,0.7710809958356748,0.7528215923736141,0.7173049550960693,0.68127867093982,0.6458931078770371,0.6106512216655187,0.5754637351820628,0.528617548680665,0.5200033047426578,0.52000253387396,0.5261246777151269,0.5610458990797813,0.6041561525811456,0.6552711333887471,0.6588615013385084,0.646479414454384,0.6786985944456818,0.6800019200340719,0.6842193145953663,0.7193535052272066,0.760886596324478,0.7990295183773126,0.8253243196107567,0.8734762516873618,0.9074136672388828,0.9054005344829532,0.8802903404403022,0.8801124991971365,0.8970580462863378,0.9198132037545177,0.9050618778813622,0.8802405529993163,0.8799999999999999,0.8799999999999999,0.8799999999999999,0.8799999999999999,0.8799999999999999,0.8801200326908294,0.8975897099896191,0.8971889143796599,0.8801155125946138,0.8799999999999999,0.8799999999999999,0.8775525313575949,0.8440080996744328,0.8090871325159039,0.7910508422658893,0.7610968969842906,0.7600514778982372,0.772536885130406,0.8218278854287506,0.855095611507573,0.879748521465336,0.885824458337173,0.9309074473200463,0.9596117369645754,0.9586680376342622,0.9204444999570249,0.8820014224337989,0.8719222658228158,0.7884232509203182,0.7110990506321082,0.6197826191642335,0.5187214678127612,0.44779783683712715,0.3477534505152038,0.27226298899425494,0.24293428830848374,0.2817604795846931,0.36531844999141594,0.46941176470588086,0.5735382433350793,0.6665964006234164,0.7422914167963217,0.8297621874878587,0.8415982478751571,0.8735673015796701,0.9075639705294885,0.9199907781263175,0.9192926204943452,0.887543164825547,0.884753384994875,0.9176406900566789,0.9199943755135749,0.9118516021501923,0.881226344330857,0.8799999999999999,No
0.9319495229754238,0.9568948482773925,0.9795615328566871,0.9874860565996979,1.0,0.9966044080947145,0.9320259410219478,0.8573728914498933,0.7851507349242968,0.7251717563401869,0.6521589028171211,0.5899547559257416,0.5257711841811972,0.4773348426303947,0.41957825905854307,0.38340566560828604,0.3735293446250676,0.38393847746328635,0.44100868828365636,0.48529824546937794,0.4388293281353599,0.36635270553155186,0.3062225688879203,0.23348882885848843,0.16428226223440623,0.10282532182014048,0.05164211914758754,0.05508041712688616,0.1188843239078401,0.1788664561753497,0.2512261121854804,0.32114899990072754,0.3684867314309139,0.4049250415512673,0.4580990392017128,0.5185648871057542,0.5886116761954865,0.6531150759249136,0.7197927495390806,0.7941634602188223,0.8568967893000625,0.901882601186248,0.9147686444722676,0.9067219285630133,0.8928233112459152,0.8881627359188013,0.8731877597305631,0.8489470654375273,0.8260815117601719,0.7920442687073592,0.7547129891171953,0.7186958808938684,0.6957512882192174,0.673267413435362,0.6947291212223194,0.7074681048034259,0.7352458369603956,0.7759723701974712,0.8074994227539327,0.818316360402437,0.8325912231184285,0.8336457750051016,0.8312569353632324,0.8178340837890299,0.8351398354956432,0.8586783981829251,0.8569184254127298,0.8683384702038084,0.87234014523492,0.8800808468326546,0.8829268451217054,0.8646678411683935,0.8298052922787744,0.794572906084841,0.766072746659308,0.7630820937186265,0.7913872543951821,0.8320725781769367,0.8590231785341933,0.8852523867474233,0.8964175852343157,0.9012292876898811,0.908456329934729,0.9022200277276733,0.845976369719438,0.7784621071572961,0.7041310136644006,0.6410474237368899,0.5728636606864339,0.4986216870565374,0.43611082252798594,0.36726521421556946,0.29311640431641317,0.23451155753924047,0.19224028396352066,0.12394280738727881,0.05903040138601545,0.011690597094580646,0.029280304276464886,0.09240318455181562,0.15641917021673413,0.2294837580028375,0.2894915644752585,0.361878826700222,0.43469351064104833,0.4948039166755249,0.5653625457004448,0.6253816451225913,0.6885380671208612,0.752235189915464,0.8097510095995268,0.8593310840998978,0.8846265360170817,0.8752469441364452,0.8652044384011366,0.846422855003405,0.8190942061897091,0.8007023465484977,0.7899974617258811,0.7566562709261455,0.7200841417516557,0.6905614072631412,0.6690222853427046,0.6704817883322778,0.7031789219884899,0.7345887100611748,0.7703809752175665,0.8008700694378423,0.8242552686680416,0.8647837114051531,0.870470500991785,0.8698895135234603,0.8514435595073002,0.8341537898885765,0.8369314463853526,0.8408987598472986,0.8415017203139752,0.8599116084164962,0.8704263764468214,0.8789781030614652,0.8873725731572524,0.8582739701446447,0.8270819118360664,0.8062651451930867,0.781433130896156,0.7911069149346623,0.8306651347050691,0.8724382151886636,0.8995497396542316,0.9215261275153281,0.9521306452906413,0.9458083262321613,0.9384121450531868,0.9067882611719953,0.8377948274720599,0.7737839186711333,0.7066717146162289,0.6322854516843321,0.5688473174622293,0.5011267552924927,0.4339106969480486,0.36996058315285474,0.2959084947791317,0.2334249028886246,0.1646376694303595,0.1010300611937196,0.08333837065859573,0.13233131551285737,0.2063541573631542,0.2697913532234457,0.33757920507590944,0.41100898981739364,0.47108971397247856,0.5431416052789326,0.6137977362527085,0.6746486307369071,0.7400036819252143,0.7961113932478812,0.8515973116609858,0.89801456789163,0.9223761231879268,0.9098769228387193,0.9029641608564325,0.885000058040101,0.8603520397144186,0.8309040721152687,0.8100950688972945,0.7775318950173467,0.7439858437519686,0.7137940296978016,0.6902536988102908,0.6866623477803775,0.7007929493172487,0.7353528868711754,0.7726038976187763,0.8213733439123665,0.8446350850027318,0.8737118178330658,0.9002406333048869,0.922372590400919,0.9054862993209238,0.8891475352194682,0.8710490144830985,0.8536804326036345,0.8619450065316121,0.8557668042966253,0.8727561236651371,0.8891288330524283,0.8990779051163447,0.9016092673965717,0.907263593191999,0.8996097655916016,0.8596190218310409,0.8303417543218745,0.7973838537849347,0.7795188184190862,0.7908902451301105,0.8330128506383057,0.8624948079902763,0.8906647108332373,0.9078249184421234,0.9201496967611305,0.9158686953248671,0.9173910787565758,0.8642543758348991,0.8022655143054274,0.7281688536333433,0.663959091367337,0.5970414437910656,0.5224543141483635,0.4544898155235626,0.3912235923082381,0.3171203914333054,0.25409134678188794,0.1858445508493376,0.1116110648254427,0.04960179328435954,0.0,0.007183419795250945,0.07560194383475372,0.13947483539376115,0.20679956420205592,0.27817893449824815,0.3386585859167637,0.4123537770889061,0.4833886871364599,0.5440042781265633,0.6139102324682861,0.6744211319153344,0.7353014843606887,0.7913273487414654,0.8452867606701067,0.8794431585071618,0.8970151525254688,0.8913950375606721,No
0.8987654521096093,0.8586262209165438,0.8060906617548174,0.7721036124307705,0.7517034744706654,0.7647683350051588,0.8057040152739852,0.8587694143650415,0.9129618654354053,0.90353547362096,0.9276394701874047,0.9370789173046914,0.9633469958642413,0.9561927207663148,0.8728503064291351,0.7940699145892802,0.7071404543131736,0.631800079906033,0.5840210330178843,0.5053547574691226,0.4004760300037873,0.2950076643077244,0.18953929861165975,0.08560390284916508,0.027880072764193464,0.017385499624920975,0.0,0.008688487495798647,0.017545525213590984,0.045244948985811995,0.08345642747466009,0.05166993303449452,0.0656325376696909,0.1497784082890945,0.23868067081376854,0.2908561208347038,0.3193724146084751,0.3950309675147512,0.47945580676821553,0.5601035225708948,0.6393686383842763,0.7122223486573906,0.7823115707704016,0.8403577078577724,0.8930513367670816,0.9319890674336708,0.9127580165415736,0.9006907599011855,0.8696395496401532,0.8374549482122777,0.8258744502451263,0.7771737278696147,0.7344932149506462,0.6894857538275039,0.6529668789125891,0.6397393091843995,0.640043791432424,0.6624045849004663,0.7141998115225974,0.7756946522385828,0.8195383530114455,0.8544929758688644,0.8689020685502635,0.873007219281905,0.9000711885405472,0.9188097470844427,0.9343770815189618,0.9267659218573385,0.9000254994951895,0.8722950230289106,0.8689835107038588,0.8695576437521142,0.891956094175784,0.9019063645614809,0.9185511563922395,0.9328468535462004,0.8881698189710123,0.8404505345272506,0.8323600518600927,0.7921806668974911,0.7816991527841743,0.8384048276853804,0.8945562106637928,0.9278416560087015,0.9371868650766322,0.9641978537641185,0.9910493300366392,1.0,0.9936808353743336,0.9258374358653931,0.8456689040788214,0.7414551446462578,0.6483188730789493,0.5628297073806579,0.45777065984598586,0.3544296456427851,0.27957684794130344,0.2240256744274527,0.23716285647496793,0.31060697448188446,0.38368622852546075,0.4540628833081639,0.5244796321018041,0.6020985483660315,0.6798347613054592,0.7769146050095248,0.8373113361283728,0.8708319810536116,0.8983847450557043,0.8923008817653866,0.8695798646182658,0.8688470681868514,0.8522921568615889,0.8276791724816643,0.7719287753766961,0.7145076347065134,0.6788871684761961,0.6453861107666219,0.6204308882221854,0.6327044598132145,0.6599716649183902,0.7013935798206177,0.7400198677492451,0.7848230064586854,0.8270428517008428,0.8678001710053174,0.8797247638800805,0.8815661924357441,0.8690439318449394,0.8689816690945866,0.8689816690945866,0.8689816690945866,0.8661407053289558,0.8393762080295524,0.8451207384082924,0.8790008865187247,0.9014190122749977,0.8906638382940377,0.8716857808959997,0.8970920084993557,0.8935683618078691,0.8464785677863462,0.8067278986876252,0.8035093210474402,0.8140683708112268,0.849065282819204,0.8937629029046157,0.9038950565958759,0.9391953653215728,0.966668455867195,0.9647323846913549,0.9369997575808133,0.9035338048807722,0.8262032627102798,0.745784124110501,0.6413447092731168,0.5358763435770539,0.4304079778809884,0.3249396121849255,0.21978567043098618,0.13678669545069688,0.07221818666415736,0.07133883226698146,0.11837994751697334,0.19244538493517016,0.2710273582546314,0.3671858634847647,0.4461835425300418,0.5351871159199977,0.6148536965538858,0.6944381190505036,0.7788368877020728,0.8678391313494895,0.9260142893257948,0.9344882953587508,0.934497949855845,0.934295397977591,0.9147876397699006,0.8900383651545827,0.8459314041136672,0.8295832373718719,0.7783937173211957,0.7289361505808492,0.6935697134223071,0.672855097014553,0.6758051984901785,0.7160260974298422,0.7777472592244701,0.8226365814260106,0.8641512285750945,0.8804037728657592,0.9024668335719763,0.9274229700394923,0.9289795303828514,0.904092139399526,0.9248304851701707,0.9206722115050967,0.8723355187137258,0.8536016107074467,0.8477215867944095,0.8819188574632335,0.9031836816311696,0.9233978685811044,0.9067361511596275,0.9297031921892192,0.9067387182513391,0.9233935435896319,0.8979772489399309,0.8629898278765271,0.8279971031605609,0.8033932874287455,0.7800912727640394,0.7940364620311549,0.8489931850377479,0.913691077718279,0.9498540793407297,0.942362622630629,0.9178136801068968,0.9262696653989755,0.9590455889431597,0.9459121844571357,0.9560021551959306,0.9091135047063599,0.83617729228828,0.7468469053793623,0.6614811855845693,0.5564410182732615,0.4596194696536351,0.37759257695760695,0.2727835141671413,0.16749157153789085,0.09000156039728235,0.09739948213324112,0.16389013419197074,0.2422476530743145,0.3389115462447334,0.41672430805872906,0.4952484762431508,0.5760357649195029,0.6565054390138894,0.735496178297594,0.8123773550843065,0.889143187708691,0.9330838575628899,0.932904697350958,0.9066982613551042,0.902984948861068,0.9233911718201151,0.8979373730897375,0.8627508374459483,0.8147123913920282,0.7620193311264725,0.7134868629725384,0.6795185260031928,0.6724446444786079,No
0.742598046733562,0.760680217468245,0.7611749828262857,0.7786553547122779,0.7861490259621249,0.7628038530975054,0.7609258658217186,0.760925683750755,0.7613490706556965,0.7821897479041473,0.768089138272404,0.7127506647550028,0.6558226040718287,0.5814414747773835,0.520463853286425,0.4504811005735272,0.436951005503988,0.3856734043292862,0.3015583564708715,0.2170876086407123,0.13261703444114037,0.050048734134138684,0.008720237928476315,0.00020270178159442764,0.0,3.0747083989979274e-08,0.0003544245033513249,0.032414230990897686,0.06023169391761485,0.033376722044074825,0.012932111701732474,0.04933123609749135,0.13070500951420527,0.18373881303602513,0.23854762930944684,0.2622039242412004,0.24088924769725217,0.2845207266913272,0.28627188087414535,0.2798987678019973,0.3395422503634542,0.4237833766438932,0.5032849925839855,0.5289042871647993,0.5381061135880145,0.5394957966126492,0.5818205966968781,0.6414494420135339,0.7224209105167771,0.8067464575152039,0.8685766631117886,0.8227926279622322,0.7706527240331082,0.7285936518284029,0.6870664598682419,0.6584255281156626,0.6442189605248565,0.659962854547465,0.662125051294371,0.6450450782708677,0.6705616930588212,0.694173578661534,0.6737328779779563,0.6731256371419869,0.6680748022287366,0.6453049952201493,0.6452755581025187,0.6649683486439786,0.6437771912318295,0.6171563142399767,0.6145943916817345,0.614593784970138,0.6137282392537404,0.5909979617459102,0.572344789655018,0.5624339162309457,0.5897548246662625,0.6144649865106757,0.6372580669541099,0.6465534546259439,0.6710859558377127,0.6731389053535004,0.6809407506743863,0.7018020142457049,0.7019143763220841,0.681442789151478,0.6534753943966018,0.6470729709537082,0.6716189859749626,0.6754852271159191,0.6942351172602725,0.6744647198058003,0.6731266861601206,0.6731330514247968,0.6779786511208892,0.699467069638076,0.6758621955107085,0.6731283300705169,0.6731265263958646,0.6723358887303865,0.6501457149471435,0.6438696731195765,0.6438601556830017,0.6438601556830017,0.6439149344066832,0.6547351379497242,0.6548539993934348,0.6193136759630242,0.6145990318258256,0.6102369424050806,0.5872190312700498,0.6009900197130253,0.6380766581953417,0.6558211107364702,0.6730394929364625,0.6755924345281219,0.6997477175262228,0.6883737439698425,0.6895212977075751,0.6806794067359512,0.6742077018635806,0.6961796443937933,0.6818190320992699,0.6280804337698402,0.5719258078751706,0.5157701097832712,0.4603808827637792,0.4462307460976458,0.4889209282305984,0.5460476899874562,0.6250962819513175,0.7095341385285714,0.7836745212960405,0.8458659921376874,0.8332016601563534,0.7733752367281896,0.728964194781982,0.6831421940337741,0.6865480537071846,0.6829523675857923,0.6843310558826738,0.7123429509814585,0.715359078888909,0.7045260609435449,0.7235014879731363,0.7040777524371178,0.7023926830849154,0.6999353975893348,0.6757037475062635,0.684030268610754,0.7012017206632004,0.6721107614732347,0.6450622710662719,0.6510338591019584,0.6605373066857103,0.633500889000203,0.6193119888268486,0.6463361938048813,0.6649687151974417,0.6448402040089327,0.6654093395764127,0.6992997698545445,0.7193767075483004,0.7471324520196294,0.7619390488739333,0.784993678268517,0.812807297700818,0.8197796957756021,0.8398511679832685,0.8487051536113608,0.8439575254339404,0.8078012186098791,0.7655735969316053,0.7339146922529851,0.7443205321853323,0.7533667567655016,0.7347991004160637,0.758698822702315,0.7556650809217071,0.7330172290610815,0.731659429997384,0.7316656598546301,0.7364312852963968,0.7514233376210386,0.7349366902444512,0.7592325383186544,0.7608741977047053,0.7464759263162328,0.7491050581185066,0.7608895779605733,0.7609257416276183,0.7618115180544178,0.7836179587332195,0.7718458463003062,0.7439879951523647,0.731752196656676,0.7316706472007004,0.7388365483441222,0.7604067651874482,0.7753726487244323,0.7909679127660931,0.8113006001117276,0.7932260661830419,0.790489868318752,0.808666803627669,0.7959752037630432,0.7902005292146805,0.7901915148824532,0.7869741350174335,0.7342621473426343,0.6746809286918083,0.6115463624160622,0.5626228477723192,0.498378845266676,0.47752202066672034,0.5217676920900969,0.5870555241043238,0.6575081224300039,0.7419283224495858,0.823301129390229,0.8831836951013283,0.9657298216914016,1.0,0.9260081854657995,0.8635781129863602,0.810539933306254,0.7806945487050774,0.7610261532665996,0.7424676679669258,0.734261576883271,0.7584866922851337,0.7462832681934293,0.7318195951868187,0.7316587204029341,0.7285763748603324,0.7046564845040448,0.7023952422931545,0.7051658856811489,0.7235014879731363,0.7032675746575592,0.6880172705608096,0.6732944837833719,0.6731260079156378,0.6701826097550203,0.646181549003157,0.6439036732528782,0.6534185098065315,0.6479263282684249,0.6653059783636559,0.6990305017100065,0.7041744906807228,0.7437206736812874,0.7847918169134163,0.790190989167618,0.7901920092473205,No
0.0,0.0008538253722374378,0.04357471834888571,0.12186490975831177,0.22319170060248705,0.2413387466509196,0.21772264346718018,0.2358920562130189,0.2894771826944602,0.35183391315960755,0.4452836297918399,0.4913882004677088,0.547065705875589,0.6083023364955675,0.6173906065239256,0.6460410882284062,0.6512316081271114,0.6512337011592182,0.6512304289540953,0.6442977915633428,0.6196521678812879,0.6476111334332924,0.6512326693828276,0.6512337011592182,0.6517595774455325,0.6768558647859484,0.6873999107539959,0.6913114048429589,0.7258223578652521,0.7580067945566817,0.7597726550373363,0.7597727950641326,0.7608726440404849,0.7848685030351987,0.75954069654105,0.7135912203714341,0.6587010486849847,0.6136954555925387,0.5669476428883309,0.5120985727781164,0.4749586644382138,0.5007333742516362,0.5154511251281946,0.5534660191332739,0.6216716071461263,0.7062945943394991,0.7683287607819036,0.8378514206178442,0.8681125110670269,0.8923908795977606,0.9285352850006694,0.9411384398061466,0.9639530871969848,0.916303940978807,0.8373854470676996,0.7323157104276934,0.6225077836092421,0.5223199087262902,0.4384853967109983,0.32955638099948015,0.24347572662238726,0.17021101218431944,0.10038008202102855,0.07442528520284153,0.1205469950583904,0.20072451501123645,0.30922915088399705,0.4171458537843007,0.49883307699310553,0.6003610429591841,0.6814461889452099,0.7628578373615813,0.8162331299371486,0.8419084130420895,0.8675349841439157,0.8683116089154552,0.8669810121468116,0.8387328631209225,0.8320234364452759,0.8108208328039312,0.7653337718726307,0.7390477152254729,0.7150870294357805,0.679334430099507,0.6426223793547123,0.5834650897076878,0.51821395987045,0.4715646490388039,0.4265067539670131,0.37157016049901515,0.32850977927055336,0.3023966145551569,0.3198757089058235,0.3619280731173138,0.4166828536605456,0.4716456061600489,0.5325188057878893,0.5881302141589018,0.6467243525269746,0.6910108116523404,0.7319681513134926,0.7420420021394438,0.7242374741416446,0.7458775205328205,0.7401489312765488,0.6943283299379814,0.6906025223239185,0.7202317576959185,0.723587992259306,0.7153855076296942,0.7012053055063641,0.7233308626099744,0.7235942197668042,0.7276475724884532,0.7577841417822446,0.7366754937084208,0.72373683813134,0.7393270233025513,0.7480191152320854,0.7302211815965052,0.7648055356924379,0.7815313256250462,0.7467231376459749,0.7315209138874392,0.7577821666674405,0.7281828672880906,0.6845020790076983,0.6367428214667017,0.5866079810274396,0.5331014786591286,0.47848732158566154,0.4637645585340078,0.4387834387064933,0.47780370608054135,0.5300467990927142,0.5789461967450737,0.6516813264751198,0.7249358796923335,0.7976514184885373,0.8449172384109138,0.8719410429457959,0.8934083707724056,0.8689560793124693,0.8827313354848787,0.8781057439379465,0.7977663829386357,0.6889177444733283,0.6030319068017045,0.5049923762493211,0.3958278099518555,0.3108071554745271,0.2161382855513061,0.1400938952959736,0.06776184326545565,0.03871229210689009,0.0781270826538405,0.16859239424148864,0.24963726131760478,0.3543497731542873,0.46416283325615204,0.5711212234914758,0.6512398592994249,0.7308370883925566,0.7836328718911787,0.8203429250042582,0.8443756694588016,0.8679504631417423,0.8666248872915299,0.8366494966855456,0.8321290250402296,0.8224623371553976,0.7637899447554242,0.7391568520025142,0.7484107805120175,0.7001698024395946,0.6751782833073214,0.6265257971502711,0.5736237316540738,0.505849190919565,0.45950064420038395,0.41967305626008233,0.3711769973717587,0.33513647225271903,0.3278597414322739,0.3587039005706414,0.4025091835456305,0.45736412379127955,0.5122458626634021,0.5675968875543038,0.6445029841801073,0.6983094951717739,0.7472748842529366,0.7872701784751461,0.8289978529388646,0.8238874718958282,0.8005504243448183,0.829812600790639,0.8231020476375752,0.7963871437253012,0.7731912508813483,0.7495631869009491,0.7241314580584604,0.720667797429754,0.6907911396430784,0.6887547252299999,0.7161776455066962,0.7105799218569864,0.6950137420575491,0.7223613305468968,0.7235934975233302,0.7256523961477974,0.7530346839941595,0.7328284902935112,0.7444828981346614,0.7693112741605193,0.7888067595208401,0.7537695543130001,0.6894437047669957,0.6514734732262664,0.6141629742133814,0.5725907055818329,0.5444151350511861,0.5677018319153913,0.5825095183743256,0.6295114934264383,0.6991008351235637,0.7680822231400626,0.8487579940210539,0.918124552889692,0.968210913657594,0.9821488780263037,1.0,0.9774950331905883,0.9932430779427373,0.9704800909508684,0.8775981196124736,0.7902241363011919,0.6808776372974945,0.5857177316271134,0.4970152609582206,0.3876253527378548,0.29391918189365107,0.2204638474742211,0.15470737344462115,0.14786952098857498,0.2024205567747437,0.2860432302458946,0.3721701037466234,0.46927693117985125,0.5671621558856375,0.6531428975369362,0.758960955252399,0.8344143232111998,0.8814111159257498,0.9161639498155756,No
0.6947593037710842,0.6530924962545144,0.6089371051795509,0.5583786712051457,0.5059042519516939,0.4543102585249066,0.4103111413397549,0.359350996217376,0.3068744753742805,0.2548573738623754,0.21037538589000793,0.17646473377557315,0.19930929303215916,0.24243378464025422,0.29436313454972174,0.3468424473403393,0.3993149031478642,0.44930807350635926,0.49388427588931605,0.5458717918178946,0.5983485772883221,0.6493822751561047,0.6933679247605697,0.7448741005948001,0.7934702801127957,0.8362507360676157,0.8632486199935525,0.9010892418470362,0.9448640525937269,0.9704699033019475,0.9666514967248934,0.9564150945447512,0.9546191830471864,0.9434052483613657,0.9207716397300971,0.9030320595168453,0.8843466841685672,0.8814018149255836,0.8883219120336656,0.9047538166792204,0.9272326121681229,0.9515287701589168,0.9703611451033272,0.9657445164377096,0.9722063666311032,0.9608982237530481,0.945115709848579,0.9413048768343479,0.93755044181781,0.9422549026177318,0.9459977181729018,0.9455656682809472,0.9540725122952809,0.9631394423462589,0.9654455815920187,0.9480115839404246,0.9264957596810894,0.9207103868400177,0.9369548277070125,0.9643161221382983,0.9790380788951316,0.9941176444200861,1.0,0.9592393617173762,0.9081743567745739,0.8641487013647307,0.8127944801165512,0.7603296744335886,0.7110868445240599,0.6659213765244429,0.6137661301179356,0.5612872077629427,0.5096385851921121,0.46556934716468645,0.4147336759191449,0.3622576029069189,0.3101904334847685,0.26549514551494147,0.21571116069656182,0.16758662773874033,0.15455275856582795,0.18548620653429104,0.23701580514302623,0.28935786638060335,0.3355350989137873,0.3836078813012851,0.4360447635910587,0.4884663245986127,0.5361635156987588,0.5827046298458523,0.6350739622720556,0.6875529669215856,0.7393046890229147,0.7833363471265018,0.825991254286323,0.8635627464652875,0.902900925743868,0.9413297987232478,0.9619700612938651,0.9568712882269712,0.9514440195751026,0.9377855748012096,0.9127689922597448,0.8900456478578904,0.8634497742369953,0.8453386554742912,0.8294812863373913,0.8334543963662959,0.8528358595128249,0.8778956329901708,0.9046392768098723,0.9290867588464231,0.9368737257915916,0.9471571829598107,0.9474816139823339,0.9410328774966994,0.9293076538265848,0.9198920167782483,0.9257944735416526,0.9361301834198514,0.9419509203912573,0.950289694772066,0.9539323284266432,0.9360833044823988,0.9115239634152867,0.8892091575290959,0.88126868936105,0.9037601446696664,0.9220916329219688,0.9450082575978158,0.9606413573424808,0.9658756602845842,0.9310596100771193,0.879345507793124,0.8342196283674292,0.7849783309276135,0.732517564801564,0.6800664957682112,0.6315037987654311,0.5857685275347555,0.5334883418211405,0.48100887992040753,0.42856392586273473,0.38021239895274817,0.3342927283218722,0.28197966384322903,0.22950019503925012,0.17718465747287415,0.13110028384065608,0.08291747600285437,0.031348102740906825,0.0,0.02415928050198657,0.07577691480441018,0.128246226483816,0.17808900374808379,0.2227570721551979,0.2748060350645314,0.3272854052901575,0.3797521801309831,0.4294277873977421,0.4742088340708195,0.5263140508952611,0.5779135299736051,0.6220600684742628,0.6722718089621578,0.7161127679711128,0.7574098271389902,0.7986437360952285,0.8422752531167679,0.8863446647613524,0.9254033216413,0.9469750353062676,0.9440909800283741,0.9444001763578931,0.936644614696093,0.9248123538635691,0.8972399682331582,0.8756894781138667,0.8552895632062241,0.843700333586568,0.8473255098653221,0.8699333493659178,0.905858239963266,0.9267676440612036,0.9401796888638176,0.9489234044081605,0.9478937358234636,0.9394484630775735,0.9354457713818636,0.9395385414502011,0.9314328380684729,0.9365047427642614,0.9500928966733135,0.9467571643889907,0.9539459045734422,0.9647415089085951,0.9611871460215664,0.9409463281761898,0.9126813956822553,0.9025837346517294,0.9169294197519762,0.9326759895012715,0.955449388477879,0.9737206058706016,0.9922916401627331,0.9746787093642637,0.9264141017148162,0.8767221682268325,0.8319426283179496,0.7798728667005146,0.7273934489805567,0.6749139627803973,0.6224344765802354,0.5699549903800762,0.5174755395245372,0.4652803646331549,0.4202044096064572,0.37090783637048497,0.31844630549891995,0.26609405080599324,0.21970214525861675,0.17184752598680597,0.12041004239730091,0.09460570778397925,0.1204493009397587,0.1719395259323242,0.22427901090367852,0.27040667957054776,0.31853014278031555,0.3709684926642518,0.42344797886441343,0.47588677020610026,0.5238931331384606,0.5701420005857651,0.6223860839595983,0.6694468544112655,0.7160121117800586,0.7597647776956011,0.7997471500103859,0.841842584643061,0.8918932923471032,0.9343990175680239,0.9679165494846427,0.9776951071765991,0.9755356024454258,0.9722820484714652,0.9544948722205178,0.9359795795467432,0.9089114535241976,0.8923353620178947,0.8696405921681638,0.8688550709846663,0.8835522102490854,0.9123159310463993,No
0.9667656831119127,0.9841387344219503,0.9910738030784725,0.9845215792819102,0.9904635040344079,0.9898409767500003,0.9823013643481258,0.972397114092882,0.963340294072035,0.9593738399569907,0.9478964207408123,0.9178789973076011,0.9134659634048308,0.9185776853468124,0.9103195609494852,0.9100471554948333,0.9113028397929928,0.9174720877632854,0.9139877755840027,0.9182276503322095,0.9102766297207527,0.9101715343710424,0.9166451362711403,0.9117437712280159,0.9140849114080585,0.9230221199546726,0.9329536887792933,0.9370330438897889,0.9370640863458986,0.9375770870488067,0.9466018061355419,0.9388761919671251,0.936501009613594,0.9463461904293944,0.943877899568361,0.9329364915770453,0.9124853487701643,0.8841115307512106,0.8648226787031261,0.8418956774116491,0.8204321628941826,0.8059043308910943,0.8057432472425314,0.8310823243536052,0.8579798446459777,0.8832772114278888,0.9086083777495719,0.9290601002380965,0.9398751396547997,0.9342880961128761,0.9061334268414465,0.8680308875329865,0.8343958074618263,0.7954163466519493,0.7609766248671976,0.7178291318415275,0.6760525300789522,0.6423036930090746,0.5995847248470425,0.5560445646174661,0.5125118626776741,0.4722054687164592,0.43746629014293026,0.39426073834964126,0.3507204049994488,0.30718003356271995,0.26374108328200685,0.22724669750656723,0.18889439555926013,0.14539624538143125,0.10185587394470264,0.058339349040354316,0.021236870011790865,0.009125087113617925,0.03066936112614349,0.07185924011712586,0.11539853128121069,0.15893890271793865,0.20247927415466704,0.24601964559139544,0.2895600170281245,0.3331003884648527,0.37658766927165144,0.41433971043165974,0.4514141909761147,0.4948841766461418,0.5384245480828698,0.581964919519599,0.6254452128735928,0.6628113720989091,0.7002587707091585,0.7435283332475322,0.7790031375976514,0.8182305085553871,0.8535081609074455,0.8862912342986593,0.9153350043459925,0.9419021354863337,0.9602598768765989,0.9660083487194375,0.9681779753525295,0.9628956503903281,0.9595740369089316,0.9632677987981053,0.9717429200113366,0.9722557501428699,0.9809826275203151,0.9843537182387816,0.9899360605239147,0.996609328939323,0.9974011273940289,0.9999999999999998,0.9796945350339012,0.957535065222529,0.945652035819071,0.9290094928521151,0.9219811545028425,0.9125278331591378,0.911027360948794,0.9209257415290402,0.9224236785285587,0.9222343188630597,0.9138268489198598,0.9148529548122297,0.9222986064552099,0.9224246964777818,0.9236068623307225,0.933657942675991,0.934789785063235,0.9310159191791001,0.9226781779690076,0.9224244125599708,0.9224283617510081,0.9246883322831956,0.9342264741669142,0.9307526254551759,0.929266330495577,0.9242312019022132,0.92984634256485,0.9219139487904859,0.8974948327791783,0.8725300828406064,0.8479287052162419,0.8309651298644147,0.8105791947260979,0.7999705953823275,0.8143901371119588,0.8368864457504923,0.8605511821839229,0.8819484245576776,0.9079456649638249,0.9314483891720988,0.9335103733894334,0.9118633204259583,0.8767205424326725,0.8434156348830009,0.8083788925364359,0.7697891172987863,0.7301041542383147,0.6948626419940389,0.6515712658298201,0.6081655677519426,0.5722177839990077,0.5332972735810357,0.4897874776485318,0.44624789564181233,0.4043235736664481,0.3706365332580974,0.3280034609480289,0.28446331803051406,0.24092294659378544,0.19738348923391014,0.15572492029769625,0.12192664589859659,0.07913896105499352,0.03561827410869811,0.0,0.004666060478266232,0.03879218606529844,0.082196907742901,0.12462383000825894,0.1581625584289421,0.20044121778984114,0.24398096599235175,0.28752133742908015,0.3310617088658081,0.37459842350237893,0.41602316939784423,0.4499107989526969,0.4928454970470981,0.5363856884383851,0.5792592691339502,0.613115025514942,0.6518216516251718,0.6767842778739634,0.711205781322269,0.7481873729694883,0.7889959365069947,0.8228833913982667,0.8567765023104552,0.8891998472055025,0.9180873622832315,0.9388420263199071,0.948010308441851,0.9580401038130393,0.9545046678081148,0.9472952391410085,0.9470806033487287,0.9400760530280834,0.934845107768141,0.9348021101255963,0.9347910742629388,0.9311252597723907,0.9171165591112687,0.9098719734346032,0.8984364397693982,0.8817946657352642,0.8671828997437168,0.8529103358029009,0.8481895790540896,0.8481582271662202,0.8481582271662202,0.8483022794351618,0.8555925092431846,0.8508261784192894,0.8366780564159229,0.8359534242830804,0.8436299495988961,0.8481423822096756,0.8481634921162133,0.8510730151075594,0.8601720242540101,0.8607813281692545,0.8733735204276025,0.8800449932549406,0.8730242836107316,0.8729136222974703,0.8729822406002998,0.8796275461511247,0.8841430822685548,0.8741695530581508,0.8779695814221118,0.8844644533483004,0.8706995305585072,0.8515579150538091,0.8391572483703298,0.8178324547979567,0.7963883615119502,0.7879029266752069,0.8007726740048944,0.8252619703755029,0.8480890367360914,0.8750587756062258,0.9002686573070806,0.9132839917966373,No
0.8759375470083697,0.864942268332304,0.864896588124652,0.8648281294667433,0.850467036620798,0.8294970380883608,0.7966506566311145,0.7625379012868825,0.7402499597979499,0.6948626283007862,0.6518534319904736,0.622898183618287,0.5993312664608164,0.570111848137631,0.4766441034396083,0.36949738945215493,0.2623180475512168,0.15514001685621004,0.05191749934141221,0.007662678855625771,4.729382293167106e-05,0.0,1.279331914361137e-05,0.008742729613968159,0.0683981323312457,0.051552729219350724,0.018756646548827582,0.039809820395580786,0.13765422663157345,0.21284377905646146,0.2793363280648151,0.30862622101172654,0.2873686236276125,0.3440159033113668,0.33157519580634176,0.34659191562804903,0.44210514433344716,0.5487606965774896,0.6189715878921946,0.6433768973802998,0.7154694099716945,0.7676179805027452,0.8224287049328138,0.8468745645246925,0.8647757320889591,0.8652280311473621,0.8849560167441677,0.8823590997879274,0.8577914328767857,0.8312955466111305,0.8102810548119965,0.8216510287743182,0.8302944739193423,0.8303007245996659,0.8303007245996659,0.8303252367533958,0.8393600394948599,0.8640749114929092,0.864896588124652,0.8648904811381293,0.8545097919875957,0.7887133552673067,0.7200969984603773,0.6888974935759968,0.6620157084204008,0.6861751294238738,0.7140437595397628,0.7661992272552709,0.8062068822329076,0.8530651579031048,0.8686612847196393,0.910838092520244,0.9126941770974719,0.9265017810688834,0.9213276348775254,0.8999292597388413,0.9070240612396878,0.88249657769168,0.7785420425517477,0.6715120587681316,0.5841613581004923,0.506722947427118,0.449811181829487,0.3653196861647796,0.3092555429071089,0.25244205685920384,0.25108085737592933,0.3061071690237691,0.38052151058493155,0.4801868095916175,0.5588424707023876,0.6501463445791167,0.7350853192061395,0.8092797922405177,0.8317141882062344,0.8586988875941604,0.8837738364310521,0.8835421422638472,0.8651570006463078,0.864896588124652,0.8647373073452504,0.8440726785125854,0.806345996218977,0.7534090112496203,0.7034939967247524,0.6875055210955958,0.6454378475157103,0.6234366273636196,0.643883003271247,0.6681920545603104,0.7037944518474664,0.751534515542386,0.7912401559399163,0.843614218206068,0.8822714551649211,0.9272093423330876,0.9291710732862661,0.9110169764480442,0.9541166787511468,0.9671802754162764,0.9321359065368107,0.9010578078361124,0.9251090910566768,0.9340817771066998,0.9340886923708513,0.9357704342369013,0.9568054775629076,0.9105575519327935,0.9091228550807466,0.9334074218375781,0.9453728712445324,0.9483798132097219,0.9320343594046641,0.8706763684519929,0.7965897809164595,0.761632964181036,0.7611096980569698,0.7633907479563904,0.7934121946594717,0.836859417187398,0.8903858991361409,0.9317928845052208,0.9593280568881379,0.982864689705937,1.0,0.9717722086865876,0.9552130149126699,0.9365889072928741,0.94055500166579,0.8490684115028104,0.7419116850446521,0.6347385938240366,0.5362534172886173,0.45434211942305147,0.3478237080386064,0.2527022395973608,0.1878660781569037,0.20418685597304354,0.2663481774886973,0.34484545550085155,0.4443670938051687,0.5232154029293383,0.6266554281279308,0.7086904445845974,0.8016849582396954,0.8634372408128916,0.8981161857449091,0.9015744806098116,0.9286336989094792,0.9175037114945077,0.8995825202509975,0.8805192609462411,0.8632185315914711,0.8342958113760321,0.8195635498363218,0.7725284866876336,0.7363525048004309,0.7006665628223123,0.6659466168009089,0.641002336042793,0.6259735095496799,0.6573023578316697,0.7015585228399805,0.7303672861566612,0.7737577743167154,0.8014904509548861,0.8456204334878361,0.8510677909666198,0.8329485531550729,0.8599600810522467,0.8648892597408251,0.8574924566006716,0.8441324287088126,0.889847808018895,0.8991797851003014,0.8766951828027985,0.8649367052834753,0.866779775762831,0.8937195203609134,0.8993823351375081,0.8828821993792912,0.8881645289109681,0.9230530393972378,0.9134181217051021,0.8875921475690367,0.8205807384175969,0.7611463255814206,0.729411203849331,0.7346603794772477,0.7604951603235994,0.7854821352856929,0.8518873891003294,0.8998054003781455,0.9354658982403334,0.9667964958413142,0.9697710670401083,0.9922917957913606,0.9708699973922883,0.9435108376992787,0.9272808221918867,0.8514101835652843,0.7711789766833919,0.67067349907874,0.563505565298156,0.4565288973834427,0.3717982446236503,0.3154162008664292,0.3303606482137704,0.4026178432086338,0.5062120430944619,0.5859071990553248,0.6777663610482128,0.7494860033321951,0.8090383938911936,0.8759443638719571,0.899322691394679,0.8994924516496381,0.899434472467286,0.8857803168615019,0.8642355355509741,0.8382600886145646,0.8235704291968933,0.7955745633382358,0.7580279804116357,0.7063794834829578,0.6820615159746914,0.6463183868138263,0.599512362200433,0.5884365230426694,0.6071258175760006,0.631913136534104,0.6696021406173562,0.7333246811243832,0.7732139472988351,0.8202057525706508,No
0.8399040845565575,0.8323944813414488,0.8119658745546272,0.8097306987949415,0.7860113649203551,0.7811304075638579,0.761607154223737,0.7819224590799227,0.7743222423174152,0.7679047304085791,0.783070363054875,0.7879883118065067,0.8104451797078549,0.8115314111295961,0.8127359495940296,0.8344638750961688,0.8399062948629434,0.8399074654325891,0.8363999176484005,0.81356881690574,0.7995320494287061,0.7581108666680314,0.7073283791074902,0.6860640392516397,0.6716174679129394,0.6955045489941267,0.7295669431488396,0.7723460472290316,0.8077835933486823,0.8286141593250833,0.8568693929151538,0.8622712139038655,0.8041017279817564,0.755490273035027,0.7213217741567717,0.6553956022504903,0.5698798754982461,0.48986103077622767,0.4257756161343864,0.3411906863388059,0.26151348757769854,0.19724426501708026,0.12002636535736988,0.10492413063703898,0.1413535142982787,0.21823436130403318,0.30387907625800503,0.3793022434986866,0.44708448489248687,0.532597128030567,0.6182851551972068,0.7008086168903893,0.7626503026732157,0.8469202747201234,0.9149959575299262,0.8913827144408217,0.860119469325165,0.8217723710092169,0.8115582278347779,0.8112033011083333,0.7925382772139895,0.7831782082339092,0.780442128253171,0.7567921335602885,0.7363294555665942,0.7461861410187862,0.7255188554491885,0.7002208780967822,0.6867065099810143,0.646078894703956,0.614991608668578,0.6130912930813088,0.6282847579423421,0.6582080416906115,0.6951096591569565,0.7287837455031458,0.7557900238978932,0.7789616251249938,0.7831501753344914,0.7785060857009394,0.7563431152191291,0.7568079275373543,0.7786219453692707,0.7606689669989861,0.7495705762862355,0.726721884391996,0.7037895307632369,0.7165929834299729,0.7447960641974869,0.7550975414712178,0.7725003716348193,0.7598014285814023,0.7740238061629561,0.7831326461311297,0.7858566856948399,0.80938598008871,0.8049471561286601,0.7838426280894795,0.7860633980543308,0.8085058774882268,0.786358290892228,0.7584391088986631,0.7092489655912408,0.6903866991521252,0.6521996956689127,0.6528915727864217,0.6819664772470859,0.7204536973027413,0.7490949507033284,0.7776434665496983,0.8105600986163659,0.8585095998391554,0.8420747492355818,0.8179015590534768,0.785162224439508,0.7501801485806419,0.6672504799035521,0.5815632790213674,0.49915429832086167,0.43637554207999996,0.353453039269525,0.28769501685513665,0.21428330906700088,0.19409817692650888,0.2385131360352175,0.3194892186586693,0.4034552249810752,0.4667939776794996,0.5481786143892236,0.6338658238785366,0.7192861644017197,0.7884360274011075,0.8626025741296366,0.9479278746584758,0.9999999999999996,0.9543451389058872,0.9034981629072383,0.8812550355865807,0.8452685035277461,0.8251031976798742,0.8116666851034,0.8115311787370918,0.8114406596422277,0.7959055633409089,0.7820688491277914,0.7590041580585152,0.7535402964641444,0.7236384306955173,0.6820741946136457,0.6726140972475334,0.6963312773099637,0.6909827774639559,0.6732211091357612,0.7080414369701331,0.7509891623569218,0.793146400025623,0.815046921983027,0.8386894872624038,0.851853591023342,0.8722633469026486,0.8954316770342818,0.8874020874963118,0.849645998513799,0.83059465461178,0.8118904144428307,0.8086753692504227,0.7756080905637135,0.7605536633022196,0.7961120903977519,0.8114535496253272,0.8115311787370918,0.8115311787370918,0.8115311787370918,0.8117332099020271,0.8260600860243348,0.8188793781024128,0.8115486016571407,0.8107428238881487,0.7769713485130683,0.7290342353297787,0.6951096591569565,0.6574394889235333,0.6194698676646131,0.6226501222001217,0.6674988117266518,0.6969477090378207,0.7409320734536036,0.7751140987528369,0.8266783382501415,0.8581000985568941,0.8671088455343008,0.8297914798504169,0.7952437618052088,0.7369111321519104,0.6522275667330901,0.5677259156644427,0.5049994662799819,0.42353374394008503,0.3378496360152403,0.2522641486064612,0.18331417238396908,0.10954629540712402,0.051483881754573524,0.013038228450419798,0.0,0.03187811038016264,0.10916377781501252,0.19484933473541277,0.28053823122215915,0.36622712770890287,0.45183041142830804,0.5252586157002548,0.5950111412313688,0.6806052219622143,0.7662869233426517,0.8471483901726278,0.9102354381219828,0.9715816900265213,0.9329183764324083,0.8886219397846005,0.8653242225085749,0.8415397247593064,0.8195633469439678,0.8175522102070336,0.823921198028859,0.7854102748746921,0.7831023285042629,0.7711765953449476,0.7508360581952371,0.7281700119599264,0.7219774690634932,0.6950946427813185,0.6582708183936936,0.6367154592479589,0.6144227137311247,0.6210505103572985,0.6584039680631126,0.6894287459715227,0.7317201425613278,0.7723168948492911,0.791768124789614,0.8198548756578163,0.838393710919362,0.8163658035001693,0.8114478547485366,0.7959027057738317,0.7770139416837432,0.7556193250149366,0.7547732431042635,0.748192551455046,0.7275050809995629,0.746856495195027,0.7547681477061245,0.7577891721655505,0.781691384388902,No
