0,1,2,3,4,5,6,7,8,9,10,11,12,13,14,15,16,17,18,19,20,21,22,23,24,25,26,27,28,29,30,31,32,33,34,35,36,37,38,39,40,41,42,43,44,45,46,47,48,49,50,51,52,53,54,55,56,57,58,59,60,61,62,63,64,65,66,67,68,69,70,71,72,73,74,75,76,77,78,79,80,81,82,83,84,85,86,87,88,89,90,91,92,93,94,95,96,97,98,99,100,101,102,103,104,105,106,107,108,109,110,111,112,113,114,115,116,117,118,119,120,121,122,123,124,125,126,127,128,129,130,131,132,133,134,135,136,137,138,139,140,141,142,143,144,145,146,147,148,149,150,151,152,153,154,155,156,157,158,159,160,161,162,163,164,165,166,167,168,169,170,171,172,173,174,175,176,177,178,179,180,181,182,183,184,185,186,187,188,189,190,191,192,193,194,195,196,197,198,199,200,201,202,203,204,205,206,207,208,209,210,211,212,213,214,215,216,217,218,219,220,221,222,223,224,225,226,227,228,229,230,231,232,233,234,235,236,237,238,239,240,241,242,243,244,245,246,247,248,249,250,251,252,253,254,Target
0.9416123564429089,0.9290790583969006,0.9159037259557297,0.8972520412057572,0.882998116825598,0.8729191370645231,0.8615818814246177,0.8608901390506369,0.8707990440657201,0.880769179421445,0.9051193802353732,0.927293592128845,0.9403530616195102,0.9464730062850506,0.9573849655121991,0.9618254618044875,0.9717977165062999,0.9721215212719618,0.9721215212719618,0.9721203085468757,0.97048603522196,0.9612797087122573,0.9649135024414639,0.9582718846603584,0.9581649572512478,0.9587007349368413,0.9704669298154671,0.9857253733046887,0.9982123626174848,1.0000000000000002,0.9942723282497521,0.981486138365592,0.9684958819543514,0.9585480060291307,0.9593748167066274,0.9644666068500525,0.9330306936295207,0.8841865141627874,0.8320906622641313,0.7799861565867994,0.7278816509094674,0.6757771452321351,0.6236726395548029,0.5715681338774705,0.5194661883975429,0.46992050999704116,0.4285616649832027,0.37710650675481583,0.3252245757524508,0.28209082041018196,0.2347339347694215,0.18292846185600875,0.14062679246116394,0.10984879716835794,0.12280625885508578,0.16195769184123354,0.2133496573458118,0.265418163796987,0.3121335195208632,0.35586817748318067,0.40781111603442666,0.4599156217117588,0.5120192852188923,0.5624315698549072,0.6034600396701559,0.6543770804003737,0.7064808112811234,0.7570090667221521,0.7979962771897025,0.8464493815529275,0.887151026882196,0.9239112819275148,0.9428081446177707,0.940167591474552,0.9305961567718481,0.9294611455122446,0.9180952605958248,0.9050341285742827,0.8891525500257706,0.8725780049022818,0.8566493652953107,0.8394468629478296,0.826372156901839,0.8187501245885931,0.8242608342101698,0.8372777550112664,0.8552575671040914,0.8804370241860828,0.9005734237119596,0.9150951928443376,0.9300356181239142,0.9363961324645638,0.944108507389487,0.9459014564420494,0.9562661648564659,0.9465976855138265,0.9442129706495106,0.9442083932305343,0.9442129706495106,0.9465491896426792,0.950516981952876,0.9508678532669592,0.9493220076146927,0.9576488076767442,0.9513988103309672,0.9479666789732766,0.9606193347256389,0.9715689063241102,0.9722048059534216,0.9789011035209383,0.9776585865573717,0.964867752398616,0.9553097263413617,0.9458990617706242,0.9588648734812752,0.9605854898073527,0.9252919888491344,0.8748899497574552,0.8227862862503217,0.7706843407703945,0.7211386623698928,0.6797798173560541,0.6283246591276679,0.5762203218843753,0.524115816207043,0.4720168858243956,0.4235774498566527,0.3813382385534929,0.32965435751842764,0.2775498518410957,0.2266328111108784,0.18560434129563008,0.1351920566596143,0.08313382326816687,0.03779645364520068,0.002082234317635212,0.0024253089179180343,0.03806194617443537,0.08960145636214856,0.14170596203947916,0.19381046771681176,0.24591497339414414,0.2980194790714765,0.3501239847488091,0.4020979202893793,0.4458589936026136,0.49251103909847016,0.5445854434374231,0.5966899491147555,0.6482975330695808,0.6902432889429673,0.7390505403012975,0.7910365994850428,0.8352899490548233,0.8779484029670874,0.9138552947841545,0.9463530592998792,0.9579608095067902,0.9581649572512478,0.9581610495815249,0.9546763588101117,0.9419191509696658,0.9288564378434698,0.916852357444977,0.9057568903306443,0.8927726066269945,0.8780461474097205,0.8636556897173839,0.8704496277373315,0.8647504855469992,0.8845775703770633,0.9007182425842222,0.9174724234848901,0.9334528585461552,0.9534544853072824,0.9666211214355764,0.9720990546223354,0.9745712274715104,0.9766996989187342,0.9852940171939271,0.985916518166589,0.9775466704515747,0.972272328816447,0.9790587332505434,0.9773090645452387,0.9774241434766939,0.972165401407336,0.9721215212719618,0.9721217570796175,0.9728091856950669,0.9842366443360737,0.9969163423711949,0.9994822240137939,0.9911295216373921,0.9981424725174344,0.9878662826108278,0.981372999732008,0.9723651524419334,0.9764534404286935,0.9883833777063724,0.9732686666665884,0.923609694987449,0.8826181429085775,0.8320898874675484,0.7799861565867989,0.7278816509094665,0.6766471851796172,0.635471987649483,0.5855221586590587,0.5334201922208526,0.4813156865435202,0.4296844395641315,0.38806447639122,0.3389510988434854,0.2868542278549042,0.23474972217757362,0.18264521650024124,0.13054071082290886,0.07845097770664644,0.03060937677840747,0.0,0.00840337485948739,0.05311030857487964,0.09472690306699594,0.14635815004638464,0.19846265572371702,0.2503754279994992,0.2936799536339405,0.3408435785624553,0.39292411441233255,0.4450286200896634,0.497120395628619,0.5451359657344954,0.5876688184567147,0.6394900787782791,0.6915938770326446,0.7422381032786871,0.7831930408024512,0.8333024258256032,0.8741532529167129,0.9095390552028133,0.9351169020535897,0.9530953362467749,0.9550249711845382,0.9447422507680747,0.9425713870313308,0.9310814561724199,0.9201953096650779,0.9072134683829727,0.8927829323916086,0.87451595002957,0.859416381264259,0.8471606538247578,0.8519376953255728,0.8603074419801635,No
0.0,0.0,0.0005723560795027893,0.03457797902295745,0.07468210328522318,0.07706282546266241,0.08820119049192066,0.12140049134832509,0.18115412291910538,0.1924754449079913,0.17106196546743924,0.15386770829292828,0.13014281138199646,0.11559446827068776,0.11559365022023016,0.12877679547429466,0.153527958888942,0.13287484319740095,0.11559610437160117,0.11559201411931674,0.12604435463366226,0.15143899478610123,0.12141230195179453,0.1383403384165076,0.1540196572006991,0.15411450498785317,0.1587757342108107,0.19045442550307534,0.19264236431251192,0.19264313123481536,0.19264313123481536,0.19151236412523165,0.16218286206737442,0.154027541689147,0.13868010403621334,0.11401287307077634,0.08297260057673572,0.07705909310745351,0.07730680005690083,0.10152782158396967,0.13245439492492928,0.15396558532923432,0.15453143474458209,0.18181673933003673,0.1924757005487594,0.17276948535206582,0.1547451146946104,0.18480186414915334,0.19264154626205432,0.19826672050345628,0.25679799694058225,0.2915460837684991,0.35120625468096733,0.4164510947978304,0.5079504837237092,0.5738239205703968,0.6344042050796652,0.6820950034517743,0.6825194558565162,0.6300199079655622,0.5645655892034824,0.47503100296236767,0.37900674415500823,0.3122270245308547,0.22109701891188394,0.15630100945781056,0.1445770494577463,0.15409281326209356,0.15793965497090845,0.19017844151468655,0.19264819292201718,0.2031020161528181,0.2303629716919815,0.23388520283417957,0.27244856159037134,0.31041458494155716,0.3442469491711426,0.34666166361613815,0.33095716563894406,0.2982320558830853,0.2693443953086234,0.24163064239978027,0.23004712575062047,0.20072171394504768,0.20993679948145427,0.23058521138286814,0.2058340479682208,0.19265090271415453,0.192651720764613,0.2072000638759235,0.23092496078685443,0.24811921796136627,0.2695514640701244,0.2697003837287433,0.26965960781305487,0.25844754542123116,0.23180236718853742,0.25529080147680183,0.26825750496830025,0.238341019911827,0.22949270362247365,0.1981287833846217,0.15455849124309928,0.10958903676118492,0.06570264070159215,0.0388499090358323,0.03852862624696307,0.03892164426172773,0.06580645931255802,0.08307117120103147,0.11407082627315734,0.13902165914129316,0.15402601859734233,0.15411450498785317,0.15411450498785317,0.15411450498785317,0.15412227646719234,0.1675071458003039,0.2153060592280891,0.24694695014075574,0.2956774325217273,0.35804093842505225,0.41383669302749926,0.48339186494193154,0.5687062045947426,0.6424794826007849,0.7372725617142146,0.8039061129883631,0.8999991565151007,0.9608569122204562,0.9512055992570128,0.8860347518257381,0.8073330549036069,0.70854284718886,0.6226796050815624,0.5487852820062917,0.4501050101557009,0.35125325510627015,0.26999825812386824,0.19175688658873558,0.12432031344174277,0.1511878016769197,0.17106073839175373,0.19209940176898233,0.1676469256981834,0.1542763815749213,0.17584302114439598,0.19581039091549002,0.23534003091428524,0.2849956229203583,0.3171697786290659,0.34565729052684,0.3317684512488883,0.34003667714796393,0.3070972334534252,0.27087636447934926,0.26185911664308037,0.23175668297010787,0.23625102632468842,0.2676496699911972,0.2695731154205321,0.2505097457998433,0.23180236718853742,0.2614375785430898,0.2781076372493603,0.3055534997739544,0.2761731179714877,0.26970304239272735,0.2697036559305701,0.2765911575914375,0.3070616767222578,0.33337496862124816,0.3230580443931572,0.30770500221670627,0.2822082925082965,0.2697069792605511,0.2675116779970024,0.23465622226375515,0.20036737680158012,0.18385862283405086,0.13887539529476545,0.1162164884476482,0.14366742217347284,0.142415961197619,0.1308577163966227,0.16149119106884235,0.1914203694624348,0.1927252966040358,0.2123226235298068,0.2310482834097325,0.23117175748177754,0.23117584773406374,0.23861991750440925,0.26843162462496384,0.27108852805340256,0.32679643217079146,0.39518015019871644,0.4512598698473447,0.5166180918004164,0.5823691939530811,0.6503991341935444,0.7275121268388292,0.8259207396226564,0.8976604446699659,0.9638821988650239,1.0,0.9890573970125729,0.9323748425001037,0.837657662404566,0.738691975378055,0.6397262883515387,0.5407606013250277,0.44179491429851225,0.342978146930613,0.2670910075347779,0.2573380276317794,0.26963416222648373,0.26970222434227065,0.2756235032908938,0.31959169825097966,0.33475923553970066,0.33862189406374643,0.3467550798149919,0.3471267424954698,0.3737130548705778,0.40560162540614275,0.4236970091188885,0.42162618298485555,0.38994636687321194,0.3827755754181066,0.35044343966574143,0.34675906781096977,0.35239429122551247,0.38341953805767837,0.3852858534444046,0.38529055723453176,0.3928737690322457,0.4225921269442159,0.42381488871659645,0.42381488871659645,0.42381488871659645,0.42381488871659645,0.42381488871659645,0.42381488871659645,0.4237264023260856,0.4087037874833648,0.3757396665217083,0.3465175542073098,0.3192378866805452,0.2883609370616931,0.26737398642768273,0.2351902948526119,0.2164206712529113,0.19286876705582667,0.19264313123481536,No
0.7920048761311085,0.8083325817823095,0.7832904274046504,0.8076540532608174,0.8131141294650011,0.7858097587167618,0.7988879733963996,0.7872045364890647,0.7490086952900157,0.7462367296874639,0.7479893367285415,0.7808108443284931,0.8130369823683736,0.7944875508588245,0.8015453378970223,0.8007487612393396,0.7952863899401121,0.8130369498999643,0.7790991906757201,0.7025361814167423,0.6308778816988232,0.6241226904060477,0.6223948070056364,0.6062538824094545,0.5380568700565211,0.4443467644746981,0.3504349965450855,0.2565232286154746,0.16261150549226766,0.0694917552260792,0.013034718534768786,0.0007858413698293987,0.0,0.0032783345480797976,0.02242254558508261,0.10136098031603158,0.19520123850846094,0.2891130064380736,0.38302477436768356,0.4769364472730855,0.568757809035997,0.6062349957984905,0.5669398469760187,0.5127132556039458,0.5090093853482385,0.5325412505729803,0.5938311445459341,0.6855112296722385,0.7794228882915402,0.873328998835289,0.9612779403990785,1.0,0.9479181457695711,0.9007631802814329,0.8689921750696286,0.8482368321594027,0.8479579272451421,0.8306550830901109,0.8142324444576818,0.8140744683845478,0.8140744683845478,0.8140741281156227,0.8094659781278999,0.7822150533626777,0.7801545974995872,0.7801211773223997,0.7639562755762945,0.7464152258654453,0.7462345227130163,0.7462345227130163,0.7462345986890933,0.7476919067889991,0.7739704137456265,0.780153825138588,0.7801623399212403,0.7880626392676628,0.8133673856336099,0.8175774817377439,0.8459068974380752,0.8479942671896428,0.8479942758478858,0.8460381967336161,0.8177641398040869,0.8142758385160072,0.8326656598441815,0.8477156233417595,0.8266339295819689,0.8141523585592125,0.8140744683845478,0.8140744683845478,0.8139768674270593,0.7948960735872213,0.7882060082931561,0.7896130879985117,0.8071262906854164,0.7941102232803354,0.7964157482042715,0.7680262051663318,0.7358617227311184,0.7126561729306875,0.7145158761528236,0.7421462353476604,0.7625461150699255,0.7834708976654134,0.8118818851658745,0.8140742874272826,0.8140599091385328,0.8027577364382257,0.7426941498234196,0.663205393018913,0.5943960341504662,0.5110785308268584,0.45412204420437785,0.45311261430154826,0.5134182478648892,0.5928250862936961,0.6863064658391416,0.7569752605024451,0.840628483808298,0.9332127565854691,0.9732507047302121,0.9294339909595415,0.8827393384094222,0.8493122072443793,0.8246597350260014,0.8261096209184524,0.8476976402227319,0.8479745482641405,0.8365809677127647,0.8175547692686918,0.8456968399943561,0.8479942533364557,0.8476260773683606,0.8236348669463114,0.7867287863583936,0.8053930455037195,0.7887421528707677,0.802980075134271,0.7796017686904309,0.7517161420897462,0.7462397824649534,0.7462345227130163,0.7462345259598573,0.746465008991521,0.7664559740966164,0.7812739393886758,0.8070763309490321,0.8140686833260169,0.8087898334983645,0.7882724350986079,0.7900580131334074,0.7920543404717542,0.8233970792141179,0.8330608735734826,0.8195483730042152,0.8458751644390095,0.8189213271722178,0.8140790521588102,0.8137212900171269,0.7916459075117261,0.7912834137977525,0.8136586251115085,0.8009317835242706,0.7951266974505637,0.8139768741371967,0.8140741558219986,0.8098861358736347,0.782375899692787,0.7801536288962092,0.773887016759244,0.7323430196216023,0.7125126440098706,0.7123491601175873,0.7235679374039901,0.7668727299616034,0.7801305269832808,0.7808579124523769,0.8054294962178954,0.8140346824721982,0.7993794617020376,0.7427215037061066,0.6520961091955781,0.5860713385436904,0.5018070849003182,0.447481376944868,0.41333623364997063,0.45258697145051396,0.5278151558359188,0.5971486222150055,0.6904328419106474,0.784344507889454,0.876195743546984,0.9407476447830954,0.9479992997263293,0.8945736259501498,0.8636716067122965,0.8481327005697485,0.8449615425101715,0.8167390459517101,0.8165183856038478,0.839302725207018,0.8172101257741335,0.8412851914565582,0.8470737675465392,0.819929373373661,0.8140801257704116,0.8140654071804736,0.8064460943304299,0.7810290084561817,0.7651518058121933,0.7464389044471513,0.7448034825515357,0.716991080017503,0.7330292107444523,0.747445815652596,0.7733926968452405,0.7801504688210361,0.7801614651266018,0.7872413437757544,0.8132815465323873,0.8140358027696406,0.796191850858583,0.8000202772218978,0.8304095922508541,0.8479572838878102,0.8471639344549287,0.8207941350254098,0.8199969198874495,0.824321222664361,0.8132104527057553,0.7881589674310723,0.808855819288226,0.7905657046685386,0.7829561464780461,0.8113273363144273,0.7994403531628071,0.7966065626193837,0.8056637584358768,0.7809082671927143,0.7819434119714002,0.805368436813124,0.7732814214954766,0.7467984029636519,0.7462346331056064,0.7476215839234541,0.7745804876961477,0.8059168170989288,0.8140637290216981,0.8140544228684847,0.8026037004301729,0.7790749954617482,0.7247433705670359,0.6473475919707914,0.5747918757500026,0.520910250374274,No
0.8627175098602549,0.8627175098602549,0.8627127065491762,0.8582946225229304,0.8437305160968309,0.8539147876892539,0.8711304534374471,0.8822578477423582,0.8823316272027428,0.8823316272027428,0.8823310508054134,0.8789495397689011,0.8644098163282652,0.8786164908827399,0.8705627310649793,0.8637935664574368,0.8793092205755375,0.8823316272027428,0.8823316272027428,0.8831694900551628,0.8984287768089003,0.9019445917505715,0.9019457445452304,0.9019457445452304,0.9011263828586693,0.8849902931844325,0.8867348500898715,0.8952969946973592,0.8825394210546786,0.8823316272027428,0.8823316272027428,0.8823316272027428,0.8823316272027428,0.883235813107845,0.8991148648012257,0.9170399524994428,0.921654312683382,0.932017521534604,0.9434232015633768,0.955957206040678,0.9419289382667722,0.9417133883455544,0.956461847021433,0.9607834853940576,0.9615448328343597,0.9790559479786483,0.9990007979101208,0.990943091679275,0.9900878985677957,1.0,0.9966792039246566,0.9790408217418958,0.9562090189032739,0.9258581771943621,0.893340387781624,0.8824224610750528,0.8776188265072249,0.8631781073141154,0.8544291110803544,0.8431033925177673,0.8312393956534843,0.8245828899943808,0.8436202483834405,0.8565149069737932,0.8123187519707176,0.7739816694827404,0.724954009634176,0.671652931512257,0.6183594426218426,0.572463093603115,0.5312257637676647,0.47805005562581915,0.4247458073185886,0.37144155901135667,0.31862471722406527,0.28114203644369606,0.23114048174349966,0.1778386831249188,0.12453443481768733,0.07123018651045587,0.019617542673166177,0.0,0.013808531074970265,0.05145065878360455,0.10212828088445569,0.13919310198730006,0.19049925990920835,0.2283455660990903,0.27844756737579734,0.3317488376301596,0.3810362027724925,0.4191704084519565,0.4720504432622352,0.5243676018485113,0.5621558524690826,0.6105943803009088,0.6417788104162154,0.6791975582903094,0.7144052136881336,0.7398748626952427,0.7500109511137216,0.7571801366078104,0.7451661949584154,0.7450328058053288,0.7458706686577488,0.759816032615801,0.7469723348187438,0.7460876595722907,0.759816032615801,0.7464675761318911,0.7450336223682124,0.7451080071060141,0.7540392175023709,0.7646076126090611,0.7646496610351314,0.7683419125828195,0.7838081028919937,0.784247591219283,0.7754894527800813,0.7647528347039354,0.7647851612886032,0.7774222085013696,0.784973231378371,0.8000439977548748,0.8051941123226616,0.8124379137991014,0.8133707995717443,0.8234729439176114,0.8234892751752794,0.8242442342118461,0.8393616242772901,0.8431012790608925,0.8431033925177673,0.8431033925177673,0.8431033925177673,0.8430912881738477,0.8350101426013161,0.8261319520530828,0.8421941106295474,0.8431033925177673,0.8431033925177673,0.8431033925177673,0.8431033925177673,0.8431033925177673,0.8431033925177673,0.8431033925177673,0.8431033925177673,0.8431048335110911,0.845044074325842,0.8614035870645695,0.8627175098602549,0.8627175098602549,0.8627175098602549,0.8627067504434383,0.855298851154934,0.8432319326831537,0.8431033925177673,0.8431033925177673,0.8431414182460855,0.8499821254238631,0.8625460684552531,0.8606842254512981,0.8447956989857772,0.8570390037676447,0.8636309754956875,0.8790350409243675,0.8780340064946426,0.852787962549685,0.8283002204940275,0.8180303573735519,0.8106316363356649,0.8350750378807428,0.8431363556164291,0.8502736862795865,0.862673342963225,0.8734634017064566,0.8823446972229627,0.8883083468349291,0.8827632138782153,0.8406980193910512,0.7874916009937718,0.7345713524415927,0.6960225400081592,0.6471896591299218,0.5938887251073344,0.5405844768001034,0.48728022849287145,0.4339759801856409,0.38067173187840986,0.32736748357117795,0.27406323526394605,0.2207741654197246,0.17709606643428577,0.13386766377781,0.09433322908512132,0.07984920544317298,0.10077697488187587,0.14550915729995495,0.1920235678479223,0.23161806928750384,0.2690601545508393,0.31952183663418365,0.3727088590806624,0.414611339113931,0.4598325685573088,0.5131207257724255,0.5610446381224738,0.6004226640638461,0.6530994809056971,0.6926925534506916,0.7357529178995854,0.7713643954047549,0.8081570686683741,0.8425137883469436,0.860054784039685,0.8627175098602549,0.8627032920594613,0.8535593710057747,0.843202838756953,0.8431030082528808,0.8397662651847551,0.8251815816432897,0.838272501985752,0.8256231508610248,0.8234908602679356,0.8234838954668713,0.8187870226111116,0.8101224127401543,0.8232201718256604,0.8222203124804235,0.8058808139974181,0.8038766468592264,0.8039277305242098,0.8115286405249331,0.8233695371527223,0.8234892751752794,0.8239457804747747,0.8382939540361853,0.8430978206769155,0.8431033925177673,0.8431033925177673,0.8431033925177673,0.8431802101476862,0.8526961088267107,0.8776818985748056,0.8823264396267776,0.8823316272027428,0.8823316272027428,0.8819074137057901,0.8668174213664077,0.8720123939221662,0.8780282616743711,0.8632734997387743,0.8605943052496392,0.8444787377936942,No
0.7136458338313831,0.6747119524881491,0.6553676006651461,0.6319453601072782,0.6175578037153429,0.5791557454343748,0.5608983832087571,0.5406406568251763,0.5138887859906163,0.4313279614591625,0.3642231547840211,0.28838900808624235,0.21872770531880725,0.16069810489538838,0.09383255048651407,0.04472075760931826,0.007199170629678342,6.388127506351537e-05,0.01160667143637717,0.08497080348469144,0.1642971435420746,0.22244605111066917,0.2839179805139631,0.32018648274822503,0.2815010546182952,0.25153128410264536,0.19281642770094187,0.13070645697739014,0.05185191092225061,0.009077192622004127,0.00021625614883902244,0.0048668363232309275,0.04690902387642559,0.09734053903694839,0.16374929938476512,0.22520116165509396,0.21665429561953609,0.20963263615103855,0.17427184642576954,0.0902230844331946,0.019421478604043863,0.002188559968036685,0.0,0.0015117403732798351,0.016454564310816266,0.08032839578809803,0.16521191272529112,0.2093348758364062,0.2225871857936248,0.2401506777241602,0.2502428547109856,0.26990064370912936,0.27025456802108394,0.2772287685880519,0.29953692226814965,0.3002714141670637,0.30033133264287315,0.3119409639362454,0.3519583500015262,0.3806977166103849,0.41099283332431735,0.448020977255033,0.48188620340788724,0.5149219913317244,0.553304228211247,0.5939576681147871,0.6227115723199956,0.6533312347584719,0.6895276541577724,0.7242438517264027,0.7500144927490924,0.7561037205027281,0.7842533021239833,0.8216126872557163,0.8406570741726274,0.8504652291098243,0.8725041406585374,0.8971327862983403,0.9023074551239514,0.9256883449334534,0.9305542934879165,0.9110769680962862,0.8823497860400993,0.8708596651785987,0.8729584727531332,0.899159462439374,0.9265897672063979,0.930847305139137,0.9308318243232101,0.9222651126260333,0.9000336406408449,0.8671688851534478,0.793979738219468,0.7126144946467159,0.6539079018511913,0.5969704025501441,0.57089631321388,0.5882700759302635,0.6643127265756776,0.7254941003190751,0.8102085773687957,0.8966289681287334,0.9754897906744953,1.0,0.941898691702054,0.9216278605534285,0.8933361482637991,0.8644752329094629,0.8249612847215966,0.810856259121099,0.8061719484582026,0.7824437734421199,0.7803003463434219,0.760186144508415,0.7490761490628692,0.7237858729254114,0.7037291668319847,0.699508612772024,0.7060449768731667,0.6868291599181084,0.6683443691363147,0.6897384853036677,0.690630477297483,0.6934416674156765,0.7189999401684055,0.7405137760756704,0.7586898691037556,0.7801108667048,0.7807173751686447,0.7857051655852683,0.813723118348614,0.8396442148454488,0.8410737441584155,0.8609301251014667,0.8657052933574851,0.8422924579550628,0.8407658515167054,0.840397128089716,0.8205683478217676,0.8107545308719217,0.8107382179107807,0.8107382179107807,0.8107382179107807,0.8107382179107807,0.8107382179107807,0.8107382179107807,0.8107382179107807,0.8107382179107807,0.8107382179107807,0.8107523032609487,0.819455557774682,0.8355553697033056,0.7998741676099916,0.7809432300984005,0.7782571347455365,0.7533387120798611,0.7616753919874713,0.790745771776403,0.8300949533952826,0.8407009053480268,0.8278880685744623,0.8109615029436998,0.8077751816187986,0.7526613937828808,0.66769559391218,0.606297862086568,0.5245842168214212,0.46147461745420326,0.3947142719600931,0.36235024159692664,0.3808408367810374,0.44800233450917837,0.5174140402648391,0.6037839932513887,0.6879038074279533,0.7497865130079644,0.8328488356927508,0.8912568929607909,0.8485945816634715,0.813153297665024,0.8107337703177482,0.8039406151871731,0.7814686637969652,0.7654573899837365,0.7508404573774037,0.750683299823284,0.750683299823284,0.750683299823284,0.750676861600529,0.7437184024982146,0.7151834168776805,0.7005230197553285,0.7201612227647098,0.7206558407795374,0.7206559450559533,0.7215835623492266,0.7441705481555534,0.7506815125819388,0.7506981058711206,0.759713412160834,0.7657794715460309,0.7579124398961925,0.779984791793658,0.7817069184695651,0.8024127979012823,0.7839006553877574,0.8023402048318982,0.8098286382159765,0.7864527904357059,0.7807188820819491,0.7806840031991724,0.7702743906525775,0.7641012781721992,0.7792408073483816,0.7541687011070008,0.7506869022982849,0.750922375421923,0.7677186021871432,0.7596261874262709,0.775041889679037,0.760331203698307,0.7627260180099835,0.7737020314329301,0.751453891050458,0.750682553757211,0.7459983424307577,0.7217777161362964,0.6985226419632093,0.6699537799364812,0.6606658930043219,0.6716250654766043,0.700419520913349,0.7292881285793671,0.7502053886724189,0.750683299823284,0.7506589920403766,0.7402450426750526,0.6902632295806486,0.6063745722120837,0.5199439234593033,0.43926494928593574,0.3816751412658137,0.3621622055561353,0.3930883269112506,0.45035376502754687,0.521174358756129,0.6075524117147504,0.6939688651187019,0.7709786995435355,0.8369501084007469,0.8821493577041624,0.844868976266655,0.8021064943795544,0.7809948736353052,0.7807107588670323,No
0.9049357745346787,0.8907252539759636,0.8780373445491887,0.858579325929731,0.8381787460579964,0.8175249983831243,0.7977545957941046,0.7764186351773752,0.7470513166639812,0.7002640500949049,0.6622745860881865,0.6299902954968588,0.5953214301986167,0.5718034972737529,0.5629666842797294,0.5688799297151714,0.6080455778387526,0.6480215967964016,0.6799578520595286,0.7160512280119007,0.743046469580936,0.7609000395560384,0.7877470691882946,0.8144538541847091,0.8426021361183391,0.873064009802373,0.9001599617531442,0.914272305338363,0.9153633189235757,0.9169924399321605,0.9284683995729655,0.9294681389260111,0.9294683938705637,0.9294683938705637,0.9294683938705637,0.9294679220766211,0.927469559729337,0.9207620656683293,0.9293064265325506,0.9294683938705637,0.9294713018064504,0.9319679833259165,0.9429318787715886,0.9435742169289338,0.9418097559645111,0.9347005190605828,0.9433674383237172,0.9435747150964509,0.9435747150964509,0.9435747150964509,0.9435747150964509,0.9434401506688528,0.9352281036805734,0.9410747202210379,0.9434233744555325,0.9342377894467937,0.9335854411642335,0.9350289551669118,0.9304637492351975,0.9384405976307102,0.9255573489507021,0.9099220523825071,0.9105689535896788,0.9179356341067262,0.9288478799189974,0.929468338193018,0.9294682678634856,0.9285963045044303,0.9039638711988363,0.8665978309141518,0.8234867271524253,0.776282439554536,0.7386535762145567,0.6952069380219097,0.6477568611535793,0.6002932391464764,0.5529825622616074,0.5148038959474805,0.47198623234058257,0.42454556758107165,0.3792357948928837,0.34285412636913204,0.29626041399563996,0.24879690554142653,0.20133328353432334,0.15386966152722037,0.10640631204705286,0.05997589537055603,0.024501350341954886,0.0,0.01629707614656173,0.0458953342197812,0.07342047764384252,0.11554547932590431,0.16299728114397039,0.21046090315107358,0.25791098001940393,0.301357618212051,0.3389864815520307,0.38620906995359916,0.43367269196070235,0.4811316857007306,0.5252072984791276,0.5623656881613788,0.6094203305229804,0.6556991929565927,0.6918179333925467,0.7369470458442016,0.7733885121398565,0.8130852784536713,0.8450192693575458,0.8805457657213389,0.898951076230035,0.8885382145979226,0.8862620434422452,0.8748589414198111,0.873284852875106,0.8824835203634418,0.8853895713626305,0.8713274048521242,0.8555877566791863,0.8396823427524116,0.8230483388603966,0.8001099222345984,0.7781856922411294,0.7630476944770601,0.7603020708935375,0.7693078246897356,0.7938438479301846,0.8230477800823519,0.8469356825089109,0.8745251431174905,0.8927783277992472,0.8959018161066159,0.8930885767654737,0.8985133106614023,0.906091040045399,0.9152164408260148,0.9153620726446765,0.9153620726446765,0.915507973328753,0.9236977068404095,0.9294507448644045,0.9296500546188526,0.9382250574408801,0.9435628091685575,0.9446856090789044,0.9550498859586916,0.9479198180518371,0.9583218356685621,0.970347065962883,0.9717869853877863,0.9717873575482256,0.9717910303862829,0.9750524167525167,0.9854518324534287,0.9864469771640305,0.99487690480658,0.9883350926773091,0.9974468481916161,0.9910056668673044,0.9997371297668516,1.0,0.9999915838174336,0.9960633443532534,0.993416979642447,0.9967258854559087,0.9818904201833201,0.9695396918885826,0.950737403179053,0.9437434189904725,0.9516472059330692,0.9576576635573812,0.96069093894365,0.9712781360498486,0.9704651064335432,0.9430267280753246,0.9086801565864948,0.8822738477859424,0.8411506862823837,0.8013507661888886,0.7602310605594047,0.7128118955129645,0.6653487335782171,0.6198349650124411,0.583546057662607,0.537063615157551,0.49013133116172014,0.45331795549513654,0.4087758510334818,0.36131556190791514,0.31385193990081195,0.266388317893709,0.21892498013513007,0.17251687411034067,0.1370236484779599,0.10552567723828998,0.1056080614670849,0.14051532350624818,0.18130307924970368,0.22871612699999,0.27593999353904364,0.31420255009476605,0.3570110273662208,0.4044643091871005,0.45192781324571807,0.4984658950805885,0.5348011830173798,0.5802129536443617,0.627674507392356,0.6734908077382742,0.7094852406666203,0.7547385141060259,0.7907787605773842,0.8299890020890488,0.8618982595578828,0.8979833360394283,0.925512993459467,0.9226931755479004,0.9256642169174838,0.9271361992644591,0.9161394683765187,0.9160282072992736,0.9268473820357781,0.9215374424960201,0.9131925687355018,0.8915325279472555,0.8777156244405875,0.8583650682832151,0.8425889890328384,0.8268368087111733,0.8169144438152043,0.8218988530657132,0.848170186180349,0.8743902512824295,0.8939773593672662,0.9219453817859788,0.9413146165650534,0.9489697199761338,0.9478309025485032,0.9435930159001304,0.9435732549271054,0.9411823343243357,0.9302082007461441,0.9278582353906395,0.9165288154803415,0.9153625583903584,0.9153791845321289,0.9196477581808851,0.9292944511941972,0.9304696525296854,0.9432327786709105,0.9552748786928915,0.9448710002516894,0.9435754983040874,No
0.9557492663925546,0.9759239147745489,0.9629451775052629,0.9368055673453752,0.949892813540727,0.9322854531641274,0.9049679678485201,0.8999568724074458,0.9032183721239462,0.9303152163302744,0.9632549600296421,0.9263680249340491,0.8629609702784546,0.7790679983486659,0.6987711850594418,0.6338217833861255,0.5489641961693574,0.46332421230655596,0.39556782594097495,0.35003790821226355,0.39056816184023857,0.39046800025311246,0.3308102455883972,0.25385329998587647,0.21752949989251746,0.20955294571851368,0.15793827342386368,0.08261997756429151,0.05006746041583776,0.09301113918890014,0.17537244528997453,0.21063485336814747,0.21162634494443422,0.22164329538736727,0.2740501330246454,0.3593744472262874,0.44525702710757775,0.5311396069888681,0.6169963088176833,0.6921472413409373,0.7069514603650817,0.6914057077773754,0.6923808432274057,0.7176148086204965,0.7181367714851112,0.7181992341539503,0.7348137298533204,0.7951678560881459,0.8694620926255525,0.9370594909359427,1.0000000000000004,0.992566597850773,0.9644364423668201,0.9552682730950557,0.9696691692439319,0.9825088315056596,0.9773345317770379,0.9562283661071409,0.9549028436370839,0.9381556373110747,0.9252794691746353,0.9020790408532302,0.8768636552878832,0.8460301285493075,0.8186967402782988,0.7911197539658521,0.7897612548234716,0.7928690861422303,0.8195077889301801,0.8480983301300449,0.8766742462086197,0.8989478205555916,0.8999485726677681,0.8988635701885195,0.8772861257606501,0.8571397437017647,0.865033837247958,0.8555025618979628,0.8635915918061055,0.8486623919095435,0.8678128478928886,0.8723986081852657,0.8724341167582232,0.8817567388418914,0.8997060738592455,0.8997060738592455,0.8818904996561101,0.8858757928671745,0.8886314705201035,0.8717652584142423,0.8507310608722807,0.8449014992760806,0.8545038920017496,0.8558934855820222,0.8574650791651819,0.8452761319184323,0.8448713070925638,0.8516006697138248,0.8716533290533772,0.8722876810828004,0.857670181016776,0.8645054782347521,0.8550729808520976,0.845917153050022,0.8662328552665532,0.8524663901566982,0.8448764961133048,0.8448498102223643,0.8389319071199925,0.8186574834620592,0.8375990838402321,0.8445215056873026,0.8263905438846311,0.8313965356489388,0.8447671981553158,0.8451931852682297,0.8627110281565762,0.8909603608093692,0.8997837139485783,0.8826264448934036,0.8734310256997655,0.8842203209817421,0.8615152465228957,0.8451345175559131,0.8448551567705356,0.8474763059973021,0.8634154131044967,0.8267557382969053,0.7639937308626785,0.6786406660646791,0.6033704765264658,0.5340706951086918,0.4484978791785701,0.3626199653756843,0.2829881055768384,0.2176927289796784,0.13251519109670795,0.0492568809903462,0.0,0.0074808299541455625,0.06691182200877055,0.1496530779441585,0.21321857992209736,0.2961786095216752,0.382060411723232,0.46707812008805094,0.5322005092232893,0.6121646027424075,0.6962173069803819,0.7603017713440852,0.8422293967899539,0.9153738264435272,0.9111590884593981,0.8999762072334172,0.8909603608093692,0.8629039427329448,0.8614852599440899,0.8956144520129583,0.8999462396285653,0.8999485726677681,0.8999427400697617,0.8926869587693571,0.8641721188334954,0.8266122587443845,0.8066222272226011,0.7782814604937633,0.7624634558894559,0.7622135261702048,0.765001212402828,0.7914589212254151,0.8371349355838196,0.8707130602944075,0.8987746537430419,0.8999485726677681,0.8999485726677681,0.8999485726677681,0.8999485726677681,0.8999485726677681,0.8999485726677681,0.8999485726677681,0.8999485726677681,0.90017033505046,0.9151412967984132,0.9264260136374047,0.9053907416583731,0.8999580087683152,0.8999485726677681,0.8999528197475732,0.9044877628631389,0.9162384949974762,0.9002876704750933,0.8999485726677681,0.8999442954292305,0.8940263923268588,0.8737519686689255,0.8926935690470974,0.8999429344896952,0.9011323255408068,0.9186479739296423,0.8976753218903553,0.8744070716479917,0.8898609912901994,0.8997837139485783,0.8841428658098311,0.8930699396024102,0.8999431289096287,0.8999485726677681,0.8992012521265766,0.8811343123398561,0.8963760526981024,0.8999470173082993,0.8999485726677681,0.8999485726677681,0.8999487670877016,0.9011338809002747,0.9222572662018327,0.93423889796532,0.9532904163528291,0.9273490097408374,0.9010210743574345,0.9101674660589638,0.9195248703397163,0.9004144420002764,0.9053887974590373,0.9225919318797895,0.9092667798469116,0.9459230407123438,0.9577004058066829,0.8812842256236517,0.8121564713382816,0.7368931432718644,0.6510934234612464,0.5758232339230331,0.5065234525052591,0.42095063657513565,0.3350680566938453,0.2493169655780556,0.17962370473347722,0.10518281273614694,0.04940136610428514,0.061031170615744035,0.11893560844822293,0.20381354781866623,0.28932769603647257,0.3575529196438709,0.43393849492081094,0.5197966247403953,0.604814333105216,0.6699367222404526,0.7498841793877102,0.829033119409202,0.8948620678512733,0.9769851960099536,0.9945044247860211,0.9826653935799681,No
0.7804520093321701,0.7616937347000157,0.7697017488557405,0.7530224097167526,0.7479556507295833,0.7304445241940316,0.6895828949083906,0.666897131369848,0.6247806571265349,0.5759827891920208,0.509519749031873,0.4457369697219322,0.3806186382206471,0.29195738299607754,0.2218706362608005,0.1573089978983937,0.08259310697530875,0.033687344110742146,0.002426414477926464,0.00041801190605372796,0.03743636151281127,0.13034822803994484,0.20453158674138638,0.26881787998250406,0.34386942885709093,0.40787692986178836,0.4364227928795641,0.45032170680647265,0.514953354059382,0.5518910263963095,0.5408755626799762,0.520683237309127,0.5171246266288616,0.45618980940772325,0.36080012013370766,0.26501535521471453,0.1692305902957223,0.07388517181187204,0.013356378994163087,0.0006699602340276556,0.0,0.005375387260010633,0.03588151983459298,0.12396339820460156,0.2197376034886931,0.3155223684076862,0.41109544083538463,0.4860312621810525,0.5386498070843979,0.5842976245210014,0.5824937591831016,0.5567030970797644,0.5851669800298742,0.5983881098115971,0.5999770602077801,0.6524352275015923,0.6861394929215701,0.7356383983088293,0.7479233405236618,0.7310219749587619,0.715962260556112,0.73539200540697,0.7479238201274505,0.7337247234309681,0.72315763599235,0.7471436664883866,0.7443069911297364,0.7181033693355179,0.7302781500874325,0.7260272861764374,0.71325832816607,0.686715797847028,0.7110848704799162,0.7463760955190901,0.7480203503374652,0.7480186184348989,0.7401813900522098,0.6900602541066174,0.7040047310465845,0.7345727918440277,0.7225157307468724,0.7155099084114784,0.7172828120011463,0.7427500820787092,0.7442269279537443,0.7144939979995,0.6856927875493097,0.7026915443448507,0.7467186501838095,0.7478127771607674,0.7258623817153076,0.6865179995526276,0.6753891950902746,0.6326402108118137,0.6207922238248509,0.6474568585090692,0.6625045959473388,0.7202977356460023,0.7473904482283853,0.748034645919228,0.7558678320215586,0.7988549789519341,0.8393556414958594,0.8065534934787015,0.7251579309631779,0.6858120008918664,0.6968110185809051,0.691992139118085,0.6313103766560131,0.5892755528722358,0.6122283483275153,0.6627395967409981,0.7381042375234079,0.7992560397353747,0.8130381564836231,0.8133657483765218,0.8318360039718797,0.8195499975411389,0.7876475419368534,0.7563168713884547,0.7347136926803026,0.6925937887640421,0.6887514952300178,0.7115211980060634,0.6833076377071379,0.6512927965619717,0.6123797723620097,0.5857487945358617,0.5662282327296211,0.576134386114628,0.5961911675940126,0.6281852330358912,0.6739801178439624,0.7326533663816113,0.762319917789477,0.757998147787518,0.7800370088918394,0.7976401956946306,0.7892074633418886,0.7870849547494077,0.8278022354539454,0.8451200995072607,0.8246896928724627,0.8361896491894898,0.8161749184989588,0.8130679984365923,0.8117184768605741,0.7851215053381191,0.8019755770814063,0.7860383933919382,0.8021694723994157,0.8326605219994345,0.8141140412220693,0.7824802326593465,0.7983694431050443,0.7888229710269679,0.7978131625771532,0.8130057385922642,0.814359537955049,0.8391803470072201,0.8455694615164031,0.8359397551847776,0.8135326269516243,0.8256149579719789,0.8454553195483676,0.8455909210086654,0.8455909210086654,0.8455909210086654,0.845589224632306,0.8395952717023016,0.8144778399596797,0.7979092451166867,0.7888065517015068,0.8076946089060328,0.7688426935772465,0.7262607392539877,0.7422228554067276,0.7645753215129849,0.8114961836809265,0.8584098585204618,0.8780913273612008,0.8913463284883703,0.9348078386511487,0.9546563731404021,0.9554208587198696,0.8896434051306628,0.8012669162627191,0.7364290560954894,0.6895165382352788,0.6622620240654085,0.6052630388149343,0.5935258623238848,0.6365177011801881,0.7011193805464293,0.7707169195715231,0.8452380392076613,0.9187879206052463,0.9686217317013721,0.9756827667241135,0.9762587928203814,1.0,0.9891157498754266,0.9915811089324995,0.9697222651074373,0.9442515447812081,0.9421244630134602,0.9102080474112721,0.8539922098271617,0.8538038746897678,0.8624971210194401,0.820936371835761,0.7853301562344734,0.7382842679248123,0.715962669107487,0.730493729519968,0.7480420384660231,0.7667599298520402,0.8403713657769591,0.8771623481230586,0.9006563134795629,0.8823512473895647,0.8781406833411971,0.8884396109164578,0.9038900361527569,0.863224284252305,0.8549076975002219,0.8966224960977511,0.9058269608933518,0.8874890409036231,0.9097570568621265,0.9106370503624639,0.9073132603572303,0.880748011501435,0.8830123796128886,0.8995827672357022,0.858269459177138,0.8702250107013194,0.8767549096407956,0.8527659647698833,0.8786016687893765,0.9078076528489385,0.8935618464003641,0.8877170156978123,0.9044793393371489,0.8800296751781058,0.8967609734920909,0.9108051825680326,0.9279395333166409,0.9430645529184742,0.93144516213773,0.9109750493669733,0.9106178493401096,0.9006642226175803,0.8573154330481607,0.8256239085153432,No
0.8018381696006682,0.8018594861417667,0.8102963927695166,0.8191624169765968,0.8023250531489396,0.8018382166485485,0.8018381696006682,0.8008881785322863,0.7824421013221379,0.794825607242359,0.802111049880061,0.8166183005291083,0.8054726068415685,0.8018415001426997,0.7971534893650536,0.7816461211470846,0.798749099148973,0.7830315319581764,0.7788939588409338,0.7788872405421818,0.7788872405421818,0.7788872405421818,0.7788872405421818,0.7788872405421818,0.7789008825787325,0.7852917009023801,0.8150185279491149,0.8247537417871746,0.8241630384901546,0.8035838492159146,0.7802325716149241,0.7788875099982229,0.7788872405421818,0.7788872405421818,0.7788497724981265,0.7693719306858742,0.7525349197589537,0.7049856479074426,0.6457961367557683,0.5909205744688442,0.5226468678774285,0.45457767399990345,0.4020014022499532,0.3401044189784126,0.2716273651982628,0.20556591472663133,0.1665961443728481,0.1710795163162282,0.21602595121258172,0.28288241426464866,0.334005992350916,0.3977235730415347,0.4661365879335113,0.5246348320031196,0.5803171288731934,0.6487386740949401,0.714100897931512,0.7637459328429363,0.8312693609815516,0.8997620972283649,0.9677628614238936,1.0,0.9580329783993773,0.9039871918796925,0.8664578840322843,0.8220798095323536,0.7883160792128217,0.7651834147757555,0.7559084903780797,0.7424583707555645,0.7330389562294566,0.7277345383621481,0.6975816571452347,0.6871522650990061,0.6820567454941324,0.6521773039704621,0.6403968094185806,0.6172638095645433,0.5913783328271864,0.5610354199887415,0.5449637868819996,0.5273618125553265,0.5332850116359817,0.550768228065206,0.5714954453974297,0.6008861718266303,0.6399152557054308,0.6755784994761855,0.7027818483230308,0.7439750997413683,0.7695373751785772,0.7788515820741901,0.7788872405421818,0.7788872405421818,0.7788875228294634,0.7802707564462499,0.7983655216052399,0.8017986419569767,0.792223903738599,0.7790875803858319,0.779043885996332,0.7905765008609325,0.7850792674404792,0.7789002282164241,0.7761310423614511,0.757769401545489,0.7674414255632698,0.7788322799295084,0.7788872405421818,0.7788872405421818,0.7788872405421818,0.7788872405421818,0.7788872405421818,0.7788872405421818,0.7788921236333244,0.7825713604953641,0.8110993632142813,0.8176391815320931,0.8021333886900894,0.8016352195791634,0.7869036868107795,0.7789070555497815,0.7788872405421818,0.7788891205663275,0.7816018743700077,0.8008029551610201,0.8006005832090137,0.7601639730253749,0.6930843448616035,0.6438758856930549,0.5779975621978624,0.5095063359459031,0.44101356334390873,0.37252079074191435,0.30409866174514866,0.24871532596620582,0.1960127660396216,0.18254797167150993,0.20786553282775655,0.266713968371612,0.320059019330571,0.38827100276161186,0.45483455441228493,0.504547868431366,0.5707989988544688,0.6374597575985947,0.6872957032756917,0.7533268901588657,0.8218189784280572,0.8902972748082236,0.952075150642798,0.9707914545201195,0.9290683809647482,0.8763581803268141,0.8490651918157335,0.825419488123841,0.8065005364704669,0.7842756659377939,0.7788981297673185,0.7783165760157371,0.7616100964412538,0.7554087571229755,0.7400971295347345,0.7427887268149669,0.7301589425070469,0.7111349488394745,0.690464681366767,0.6653432265057866,0.6448774546168705,0.6108906762945541,0.5792259592785305,0.5723441060043775,0.572444326902708,0.5835175516452615,0.6103359621985929,0.6520588991685226,0.6938487680546714,0.7289695537157064,0.7518767446055765,0.7739983846715162,0.7795760906893885,0.7968040284193569,0.8018362876854601,0.8018413009027294,0.8049123729166148,0.817295397563365,0.8026494839017402,0.817972396224782,0.8041651378648935,0.8018386999585907,0.8017474692701452,0.7876274629496658,0.7789152996500892,0.7788872405421818,0.7792111730875599,0.7955213503915295,0.8018296547736354,0.8017666212074097,0.7888640320915528,0.7950514443398555,0.8018248292374652,0.8018381696006682,0.8009466878106788,0.7845335890580367,0.799803387744308,0.8018376820135464,0.8018381696006682,0.8018381696006682,0.8018365785269017,0.7974286256937102,0.779086975925877,0.7603526304328585,0.7558904947536313,0.7446710613274847,0.7397609341075149,0.7694512738206747,0.7788679898152648,0.7849561943327887,0.7869280163234813,0.7425305139656273,0.6792429020398969,0.6107615809907907,0.5457219396187103,0.49533415148053983,0.42823276156002876,0.35974027338385506,0.2912484759561047,0.22584159550584237,0.17565819346436795,0.10875272894164167,0.049701322682511595,0.014292108322092822,0.0,0.03462472657297688,0.10132129280005797,0.15218938826545791,0.21636601780380493,0.2848572421028317,0.3533500147048261,0.42184278730682045,0.4903355599088144,0.5588282170296486,0.626573383061027,0.6777684962811379,0.7413575432943897,0.8098447786285417,0.8750806673260088,0.9208208206845159,0.91641502010537,0.8666152393677833,0.8319735575953389,0.8040301428635992,0.7873480834225419,0.7789085570832799,0.7788872405421818,No
0.6386508511268438,0.6386508511268438,0.6374682061589363,0.614418454007513,0.5885898442534838,0.5332514230774681,0.4548102397012235,0.38730943474769486,0.3173499878339383,0.2493945032831819,0.17991174395024068,0.09960793197541218,0.04766520252570494,0.010119548301063652,0.0,0.009199633075229308,0.07616488415243028,0.1518279070335664,0.20752298118097023,0.2674281642038796,0.32600238271021187,0.3712460577555685,0.37009492803405575,0.42130174663835884,0.47610604484945807,0.5023858526520968,0.4571306129865871,0.4600633868434221,0.526387699198251,0.5940134968679338,0.676500437282173,0.7590576436629339,0.8379061763995725,0.8975780635043176,0.9782306676596306,1.0,0.9289220872643353,0.8735067351321426,0.8185798388730738,0.7745877544571877,0.734247453157546,0.706230370005744,0.6882289976620157,0.6523855584403577,0.6572471100688491,0.6517160052764792,0.6387779451760816,0.633445890286711,0.6121032927484293,0.6100340314172703,0.5889406181835248,0.5831125208249768,0.5831018182082328,0.5833263780422264,0.599039242962423,0.6264832702869425,0.6602662671830704,0.7084331535303479,0.7378904635951153,0.7720944849708946,0.7571899438442191,0.730102234181996,0.7121289981472136,0.6945108403007749,0.6988430131755026,0.7209277229820916,0.7132502356054182,0.698560603395447,0.7208515073270858,0.7219744005047612,0.7219742445987167,0.7205003465342523,0.6970985913122849,0.7045808994761833,0.715159843175388,0.6947813573116424,0.6941977757705393,0.6879955731509577,0.6671349234944088,0.6513838825912535,0.6574354979069836,0.6664019334855471,0.6664253675861502,0.6664253675861502,0.6664253675861502,0.6664253675861502,0.665601610132577,0.6465012212281565,0.662741621281759,0.6656969818576304,0.6469235668899591,0.6616142984733058,0.6472038314474595,0.6613690448961789,0.6474852629380781,0.6616572194098413,0.6631733389299486,0.6419458535623308,0.6607385478165275,0.6481881944183199,0.6582618414655297,0.6455334502584176,0.6630631519521142,0.6411327348860301,0.6301230217637332,0.5931764464333531,0.5754113093479001,0.5589775431559145,0.5818640177416476,0.5831266757262705,0.593753206959005,0.6336773899173256,0.6634932696538103,0.6450327885198286,0.6643558003474315,0.6667614380543556,0.6841233166626308,0.6560153217026921,0.61856918735183,0.5636306230045927,0.48610073222743644,0.4036090514847297,0.3344965470634138,0.2660864043800393,0.20197189521115533,0.1962884766483839,0.2360131021586378,0.2977013515740925,0.3793829403157467,0.44703108914865997,0.5169871326319724,0.5994942289028415,0.6820551220693503,0.7633797140913847,0.8245858005182587,0.9019576009423469,0.9754367107130211,0.9455943739049566,0.888679924123732,0.8403997238804974,0.7991932690430223,0.7597413244518751,0.7480088104821068,0.7231099692484877,0.6970117962297087,0.6942004828663988,0.6941107696534132,0.6774486802626063,0.6664790996244649,0.6663435510042675,0.6505250006754553,0.6386585575116817,0.6233381765873443,0.6198693702059082,0.6382962809447479,0.6471385842746384,0.6742651424413149,0.7020599107996874,0.740653494556363,0.7606760112065416,0.7368060719846703,0.709328886949443,0.6819009166959757,0.6666324951575451,0.6624320526938217,0.6467827850026922,0.6656661838056879,0.6678283669801424,0.6893946632270671,0.6941983108117364,0.6941691521346938,0.6843901032157662,0.679978200358188,0.6941298829657372,0.6941998840454557,0.6938952406077057,0.6765479863523032,0.6860189404213317,0.6611716129216552,0.6502911165443201,0.6661944552065515,0.64906484255122,0.6490315238503088,0.6498044768948521,0.6576928620079672,0.6422371922131713,0.6386543734693113,0.6386508511268438,0.6386508511268438,0.6389755513927877,0.65613491843094,0.6434780509803586,0.6389521689672186,0.6553806036814684,0.6440984803639527,0.6386604048997038,0.6386508511268438,0.6386508511268438,0.6386508511268438,0.6386020484480657,0.6259270515564577,0.589630890985112,0.5624955845393753,0.5553422167932451,0.5553275344268869,0.5566320826393465,0.5836220815104891,0.6236246453979124,0.6385916770169011,0.6434434391125476,0.665421977988939,0.6661068254308358,0.6475933644857408,0.609922734507724,0.548112512656413,0.4751939257549891,0.39281344298614673,0.3275765728159721,0.2566531924914708,0.2225580241973386,0.2349331822300451,0.2886705569379453,0.3634772649481457,0.44600469813549637,0.5193111685219467,0.5836880632529651,0.6659352290603966,0.7484963407315881,0.8310570142123082,0.9102531317470701,0.9153267827712392,0.8627657183380633,0.8203129623176366,0.7791139655953261,0.7468013176986794,0.7234843157650834,0.7098018058726412,0.6937659544802894,0.6734471827648925,0.6553027393937221,0.6529736097787229,0.6462838624182776,0.6354612287055819,0.6129834993139349,0.6108488116165534,0.6012559541941771,0.5834147372468879,0.5832041478091119,0.5955541812822194,0.6228797972027387,0.6431191301320149,0.6909344026075344,0.7418551394892114,0.7320358268397085,0.7050715856608267,No
0.5023613554990654,0.4751776328942352,0.4736605839164385,0.4736602945799939,0.4736602945799939,0.4736602945799939,0.4736602945799939,0.4736602945799939,0.4736602945799939,0.47474708990677694,0.5011301524042171,0.5088008352646725,0.5381472519761177,0.5803394960784649,0.6090738932982847,0.609479457618046,0.6001247341847877,0.5587147372279233,0.5398445939772634,0.5121185419838294,0.5076515757873921,0.5173350370835212,0.5464740423509307,0.5844470400733188,0.6265470389816503,0.6226469936819408,0.5962722267110605,0.5694461293643203,0.5286398949467612,0.5077377690873712,0.5073682180150829,0.4848034291061527,0.46970257081868994,0.44158318869569335,0.4397050774299327,0.4397045018026917,0.4397045018026917,0.4397045018026917,0.4397045018026917,0.43766562232181627,0.40991348523686266,0.40339888510826594,0.3772256093597903,0.40135507345730037,0.4057479902527481,0.40574870902538773,0.4057501617989008,0.41223685141040356,0.43264599539502324,0.40682781608453755,0.40594366530672144,0.4259763196978996,0.41656100283662933,0.4134636376984133,0.41566614746748787,0.4057906198003076,0.40411729869308566,0.37174417053996667,0.3393296910010042,0.3140338755401011,0.2722166340763783,0.2945223776934984,0.32091849233771264,0.33777072088322946,0.3387323242817386,0.36586193089912467,0.4082203981448487,0.4390596601625534,0.44079898539710705,0.4671983705019498,0.47365748040237143,0.4727512145342665,0.445628994048179,0.42988571988163304,0.3565017554755814,0.27232515321000594,0.21403915623694747,0.13323702495811585,0.05255417466129142,0.007374222977635014,0.0,0.03366874542333331,0.10201782303700568,0.18765215243916789,0.2627235317724219,0.3255211391955948,0.4110085279065778,0.4967635496657259,0.5825163101187911,0.6611072310609218,0.7205111417654475,0.8058278439250186,0.8911785268875407,0.9249612256106854,0.8500088105849688,0.7919899314060732,0.7370815625608218,0.6935021981542429,0.6506217820653255,0.6136380003096322,0.6094825976798735,0.6038869199019103,0.5769441490384342,0.5861085126113483,0.6092086458388728,0.6094834656892045,0.6094834656892045,0.6094834656892045,0.6094834656892045,0.6094583872140973,0.5939860473781664,0.5756384982397948,0.575528632290637,0.5789795724693638,0.6070698910383401,0.6242082786932173,0.6522730126808343,0.6814688654255603,0.7042923376134436,0.676617750683369,0.6468464917100825,0.6178139565534408,0.6094949382860966,0.5966354674294756,0.5757995118695654,0.5765298972947184,0.6024888373102746,0.6094803591294919,0.6088628450737259,0.581906118733202,0.5755291074115343,0.5755276729119023,0.5758994593487969,0.5974364548868483,0.6093903981911577,0.5918295426852413,0.5761936590231391,0.5990384298015936,0.6094789946797361,0.6094834656892045,0.6094834656892045,0.6094834656892045,0.6094834656892045,0.6094834656892045,0.6094834656892045,0.6094834656892045,0.6094834656892045,0.6089589982171439,0.5820561980287833,0.5755291317767082,0.5755276729119023,0.5755276729119023,0.5755276729119023,0.5755276729119023,0.5752061388475003,0.5510728975119807,0.5233963697951367,0.5056175432139582,0.4724419447866337,0.44120863586171577,0.44983517671091633,0.47336448385911645,0.47553129320536236,0.5045745715344045,0.5451899267343752,0.5752747053880407,0.5755276729119023,0.5755917685086693,0.5878862198181753,0.6092769687276718,0.6013289485244613,0.5557531863436864,0.4991694344360482,0.42393210573805984,0.3621042662620404,0.28606964396214885,0.200469756319416,0.13336222563871125,0.07646632259416464,0.06795519066581246,0.10199867789491268,0.1707162268143092,0.2504815928565378,0.30911810981866683,0.39396405153208924,0.4797190732912364,0.5654118875235632,0.6391170275824507,0.7032384844222292,0.7887833675505291,0.8745374482048227,0.9569356848257389,1.0,0.9511164462851731,0.8929637314874395,0.8139812712395029,0.7610177331885062,0.7181611868565181,0.6809444030347702,0.6518823270763097,0.6430569794789074,0.6174377441141097,0.6094899744594935,0.5960200024107287,0.5777320166360003,0.602424959281536,0.5775706883891472,0.5604622712664424,0.541686009584895,0.5412952635837271,0.518159233630981,0.5076608302371328,0.5076377013803128,0.5163164618068592,0.5312212405585193,0.5175250198330161,0.5571350376766535,0.5851073233381561,0.6099140365768072,0.6344113542342482,0.6406993580853992,0.6125545995654056,0.5962666793764893,0.5757474980741923,0.5615097346768856,0.5437762238586972,0.5732876981402821,0.5958254947144219,0.5764811240675174,0.5755276729119023,0.5755276729119023,0.5755276729119023,0.5755276729119023,0.5755276729119023,0.5755276729119023,0.5755276729119023,0.5755276729119023,0.5755276729119023,0.5755276729119023,0.5755276729119023,0.5755290404073055,0.5814908788748205,0.602424959281536,0.576714415717916,0.5755277003227235,0.5755276729119023,0.5755276729119023,0.5755964886835301,0.5885023640161542,0.6092994280620792,0.6128594850003655,0.6363807520588391,0.6111995416161342,0.604656592759321,0.5771750690431414,No
0.7502402729273423,0.7423664508989325,0.7319942798076218,0.7439658207490156,0.7345835685975359,0.7250573882434326,0.7067048264184486,0.6883224805665296,0.6867047242337123,0.711099497783596,0.730901351350977,0.7308305513861701,0.7048160248134665,0.6462607117761103,0.5944118463686854,0.5867329701440736,0.5844736941689215,0.5591141261452299,0.4896465439067592,0.41521686147022807,0.340782336841825,0.2700173278775524,0.23993535771816532,0.23688648961236192,0.24297400109766532,0.28541588161764464,0.3587548134322742,0.43319228355592365,0.5075754793629867,0.5692739984633488,0.5602475516178296,0.4919539086699838,0.4175290526928701,0.3430914126865465,0.2686607892886892,0.19821768896285974,0.13794976180629703,0.06546315600930219,0.01007612883886111,0.0,0.049952300960982576,0.1085872611958778,0.18034580819793167,0.25477760919242165,0.32643474342613343,0.38601607847685093,0.45907435017483733,0.5335115478931023,0.6079477885983184,0.6806588251215788,0.7399390521950941,0.8122428440633684,0.8851224101217077,0.9036123234486304,0.8567142967009964,0.802610935785038,0.7605342958234358,0.7248768482039725,0.7040785596322534,0.6920929350873872,0.6694067593672806,0.6435041894092999,0.633264396185758,0.6064538352825211,0.5771210811501803,0.5496330012428539,0.5267993490305916,0.5249280175757209,0.546721519341582,0.5810669054851738,0.6182794905766422,0.6554839774558707,0.6893250573906897,0.7144431594216871,0.7306800161294831,0.7312784723804353,0.7315170335477976,0.7427479685902534,0.7360335964772244,0.7312946564407636,0.7296723502972138,0.7147257129484479,0.7122613778627009,0.7122588467660016,0.7120370914343703,0.6998078229211804,0.6814243697057529,0.6828558186496201,0.69801885701676,0.7269304755275705,0.7490837752595811,0.7528658533559405,0.7528676677099093,0.692761277083128,0.6325310667533399,0.558945491627024,0.48471112669545935,0.4218870282251248,0.37365361572151423,0.3218947286239806,0.2771157477817452,0.22372950643624634,0.18638407740085627,0.20439464091722304,0.26872043685967695,0.33330717276793687,0.39873934525272947,0.4730962288498932,0.5475338688562168,0.6219715088625404,0.6964091488688626,0.7708467888751862,0.8452844288815085,0.9195258586220159,0.9819985633087329,1.0,0.9490973861955494,0.8942768922097182,0.8495966747168011,0.8123880188173804,0.7828446692913249,0.7689081672109732,0.7536093752205164,0.7350175745609859,0.7148796296547038,0.6853114276318597,0.6561082012791712,0.624042518846617,0.5909551564607018,0.5793253929374202,0.5838730497786502,0.606717228565139,0.634218693037023,0.6659993509033213,0.7008250640076765,0.727979110638393,0.7312745273244583,0.7321164971351575,0.7458522102169876,0.7357563292401474,0.7149724836707483,0.7122630270407564,0.7139292757788769,0.7291031127831666,0.7312779898082997,0.7323851844559219,0.7418309353291654,0.7312217407448109,0.715384263477937,0.6954233190794183,0.6992453720359113,0.7241555310030003,0.7484360221163842,0.7500090915499742,0.7275707600851087,0.6688341057494043,0.601942278453437,0.5281340487718698,0.46775676854739423,0.3976757208537105,0.3233285822868597,0.25772379812726154,0.19324817003432182,0.12452041206683173,0.11137077112612781,0.16423403926582836,0.22469022910311764,0.2985630743561032,0.3727483007173844,0.43511773597314596,0.502889755605314,0.5772911530291491,0.6486183678180262,0.6950727044885916,0.7524236106712605,0.8180601138106649,0.8896731029314369,0.9007668995991582,0.8529641507552368,0.8034278997107842,0.7580156135946909,0.7274132422157362,0.7107867954266203,0.6947541655253335,0.6779902443155814,0.6560565269500449,0.6306129117748496,0.6093697483656655,0.5827508004946087,0.5494391533097223,0.541119999543445,0.5422682019421496,0.5659031850174081,0.6029517637126776,0.6401704586065744,0.6767105486967635,0.7060896712248468,0.7352442649170396,0.7498581611698296,0.7502981217191325,0.7502981217191325,0.7502981217191325,0.7502981217191325,0.7502981217191325,0.7502981217191325,0.7502981217191325,0.7502177535746752,0.7412309482780932,0.7298948441960214,0.7134532651292327,0.6981381339817219,0.7213146716240089,0.7481092072553905,0.7502748731110231,0.7412169660981718,0.6903210329797425,0.624279299300079,0.5499206468924922,0.4759347577648314,0.41455649192573407,0.3456047800010049,0.27119517405715543,0.20026056220110133,0.14062806968956165,0.08929843265976478,0.0982297641743548,0.16259884955786852,0.22198400249298533,0.2935691443155135,0.36800056867193964,0.4397726740645127,0.4993211609722614,0.5722971739407932,0.6467343309888927,0.7211719709952154,0.7955297562196133,0.8616198426466246,0.9232988655771117,0.9299466237441405,0.8817274819212071,0.8353788283995782,0.7905852210333459,0.7609424104084206,0.7418499554944202,0.7219960171325828,0.6959813019577461,0.680111412557066,0.6553682728151338,0.6233318649283217,0.592792513985477,0.5587923312970622,0.5309173585376201,0.5089029657543378,0.5210571628349383,0.544015777083239,No
0.7937175807518821,0.8440113093041379,0.817765852910866,0.8344502319168603,0.852689515413374,0.8203886079730545,0.8156949928955806,0.8108366046543001,0.7852646089879824,0.7875084313466498,0.7428477990562516,0.7315596400916755,0.6849525670323588,0.6603303546574253,0.6605447746590238,0.687504254057651,0.7092511362391125,0.7452292219990237,0.7758251248587049,0.7767022885171722,0.7549848389249645,0.7481015371274982,0.7755057374107057,0.7498790505600494,0.7379039926219297,0.7499639606131643,0.7704261843405265,0.7400647693902593,0.7378645241812629,0.7290439814291831,0.6999853861389376,0.7010622214717186,0.7313122741662141,0.7088705687598855,0.664186290523876,0.6862657872025268,0.7009791037943769,0.731631151905412,0.7265844901690759,0.699488224492181,0.698967015493662,0.6989669714779785,0.6989669714779785,0.6987623960271616,0.6755094076510861,0.6714030957215211,0.6983491608686743,0.7002737454524182,0.7343426166863303,0.7779276457124835,0.8231944531755504,0.8627641620381166,0.8993192155984229,0.9468210523894012,0.9471430741725388,0.879954396224317,0.8200247566768599,0.7793376774661525,0.7750090341605942,0.7347912029038923,0.7111795511451398,0.7586545125403603,0.7763914776223677,0.749853940916724,0.6729724182372463,0.5711958131854349,0.4930719993395982,0.3863300376135408,0.27763025755455484,0.19068330284369317,0.09951021955915174,0.024324780995978124,0.0,0.04353316442084587,0.11836215109615011,0.22422261493506745,0.31268874693987136,0.40315388751655235,0.5085540775017128,0.5846458891114148,0.6884563985615779,0.7648161993158338,0.8120417032212517,0.7804687074743955,0.7885339809035514,0.8150977870429994,0.801078986925587,0.7770848463696121,0.776796122829678,0.7882771135135105,0.7969105064081283,0.7486701830591711,0.7427555375710071,0.7738975234481247,0.7441572989539234,0.7206578268564563,0.6847864198535625,0.6342625117847689,0.5979085821838943,0.5826127192222055,0.6063298841348326,0.6546743238935182,0.6952132953987853,0.7361451162773403,0.7564127010551793,0.7415758471630562,0.7666067208417777,0.7410515565802003,0.7507782123878588,0.7763441891265996,0.7785466923572413,0.8087691614453449,0.8156901745494398,0.8156908147775619,0.8156908147775619,0.815666733968806,0.8030214995793177,0.7920061613622087,0.8077657711634778,0.7804779676703308,0.7943845521975037,0.7780792747535621,0.797651010275958,0.7889365495393541,0.7838870571618157,0.7845857312299191,0.7997544254208213,0.7419594950783486,0.7673921083009718,0.8054926191398728,0.7804902781458702,0.7963965354701035,0.7911989432124109,0.7942433108813214,0.7769508408834795,0.7841776979329191,0.8198999857572637,0.8701672250579024,0.92190059581712,0.897438153576644,0.9473121971496647,1.0,0.966784850294629,0.9052107595568044,0.8207401092999147,0.7792979965328541,0.7930130151176336,0.8071999013964595,0.7779906153568783,0.7786887833198888,0.8087001087302514,0.7791008291904715,0.7061201030785709,0.6026395631491521,0.5230066150635082,0.4234849488255348,0.33989165355475315,0.24551029918694756,0.19487320574931477,0.22360204133790784,0.2949785815920043,0.36760847635002314,0.46765975347605426,0.5521465309972307,0.6466547667996023,0.7493138098331062,0.8259439491118661,0.8897843396408156,0.8610669280697598,0.8094440209312825,0.777070106004313,0.7767828483377128,0.775764862420564,0.7393889056389495,0.7089963338802132,0.7368989772332233,0.7382541639921936,0.7647542526915698,0.770868223423629,0.7248871751451631,0.696269868659062,0.6390533270481003,0.5999442789525622,0.5643436516974614,0.5450537663232646,0.5746972851893535,0.5961811207519414,0.6324868374611583,0.6419478953000892,0.6413924301525364,0.6817214906790934,0.7361441080678599,0.7378747458493908,0.738073723714554,0.7574341451033328,0.7767368225127838,0.7767828670110335,0.7767828670110335,0.77611904357149,0.7486872204141237,0.7424995911040879,0.7748743764770367,0.7878463213669962,0.8099583178142078,0.7858770447043106,0.8126256459141139,0.7816704627047022,0.8017850775109823,0.7991442320765758,0.7782389113068042,0.8055145465648188,0.7815707780024219,0.7874244749583035,0.8150086214184693,0.8156765868388591,0.8058773990859329,0.7775882812764987,0.7791001674180977,0.818529965631897,0.8717711831385424,0.9083038189457371,0.9445955603780893,0.9707997734972889,0.9551771887727654,0.9027297776703396,0.8487401225357072,0.8166171778677702,0.8156583846660652,0.8004022877747685,0.7770730218744699,0.7801436084476769,0.8044911587505315,0.7226091231145304,0.6181739112115254,0.5412691940033962,0.43530857905805664,0.33371314248892237,0.2550101334124637,0.16302071530781514,0.11831887709740752,0.1327445674549752,0.23024391312427372,0.3296752599327828,0.40972709710111666,0.5127902801291153,0.5892924383668783,0.6961088284742161,0.782581643355071,0.8666930680058194,0.8912958572858516,0.8588686602820728,0.8478730095207734,0.8264534226799167,0.8538511884104381,0.8684548374643679,No
0.3160852193241066,0.3160852193241066,0.3156127281934378,0.2816282127365177,0.2529337946836847,0.2528680900239806,0.2528680900239806,0.2528680900239806,0.2528680900239806,0.2528680900239806,0.2528680900239806,0.2528680900239806,0.2528680900239806,0.2528680900239806,0.252948300791056,0.2838681778360801,0.2978198631343325,0.25304982574363954,0.2517274613638687,0.20927350763674823,0.17055793616484394,0.1200482005278598,0.06803791495360123,0.061241001226209235,0.009117203327832613,0.0,0.0054346053758695945,0.05780452592985341,0.06321660600888279,0.06321685875499305,0.0692655010013219,0.12216274180228126,0.14154519993255654,0.18817626329902026,0.18965092868561406,0.18965096072385457,0.18965106039837565,0.19447222695092314,0.24631521171680504,0.2533928887394321,0.30154755437588854,0.32162037027331714,0.41963985911623247,0.5173747937359412,0.6426616557095581,0.7549643135410786,0.8661834413574692,0.9611700339110278,1.0,0.934889813491596,0.8303789868331162,0.731043787650302,0.5879189287117175,0.4466025161396132,0.3554340546165111,0.22127580469691566,0.09185364280850905,0.10918490596907127,0.24540780493358483,0.3399381311300811,0.4327115619547275,0.44246435916132754,0.4117401654245203,0.3116689963182324,0.25600092673196073,0.2952768921843347,0.3160302073552046,0.30496953256321646,0.25523429094974226,0.2528681042631984,0.25584805727506676,0.30611023467664467,0.31607589047142426,0.31181374524378747,0.2589168889017035,0.2528682466553729,0.2528680900239806,0.2529047824689403,0.27707865766698525,0.31524019376813683,0.2969846142094106,0.25303533743529094,0.2528680900239806,0.2528680900239806,0.2533929919737581,0.30154742622293007,0.3160613665650338,0.3160852193241066,0.3160852193241066,0.3160852193241066,0.3160852193241066,0.3160357939874032,0.29072732287558445,0.2529920042230014,0.25953065522703156,0.31295444735721567,0.31608513744860645,0.31605771333965826,0.30057397152081045,0.29719538350263974,0.31604675366352986,0.3160852193241066,0.3160852193241066,0.3160852193241066,0.3160852193241066,0.3160852193241066,0.3160852193241066,0.3160852193241066,0.3160613665650338,0.30154772524649687,0.26251062247811774,0.314109418752194,0.31608516592704206,0.3160852193241066,0.3159468111973762,0.2891577350571364,0.3062049515510914,0.31607597946653776,0.3160852193241066,0.3160853759555007,0.3221340182018295,0.37503087454391526,0.37930225962912445,0.3793023486242344,0.3792638829636559,0.36020174706934327,0.3162395736524708,0.30496953256321646,0.25523420907423855,0.24973538465027367,0.18861994550629824,0.1306415164352952,0.12643390261981402,0.12643383142372677,0.12643383142372677,0.1264341019688615,0.13493769560275837,0.18750812576958076,0.18965090020718023,0.18965096072385457,0.18965096072385457,0.18965096072385457,0.18965096072385457,0.18965096072385457,0.1901758769128481,0.24131026417388846,0.3062101110067612,0.35411732181725775,0.4373690621705961,0.5296699540652074,0.6594469195252657,0.7627227200898421,0.8660772617478312,0.884984264262215,0.8686542833180457,0.7480612417388777,0.6047768013799821,0.4627922797568722,0.3640234331043679,0.2413958393522062,0.21251081368857427,0.33928849037065767,0.47448478579494946,0.5056870750936504,0.5047427742551864,0.4494164452376559,0.33008275390596964,0.3160855753045464,0.3160852193241066,0.31608514456821624,0.31360831560511215,0.26251062247811774,0.3050789691332998,0.35161466267204133,0.35844092868316224,0.3162379285898034,0.3146105218992741,0.2679795475279203,0.2528684744828542,0.2528680900239806,0.2528680900239806,0.2528680900239806,0.2528680900239806,0.2528680900239806,0.2528680900239806,0.25286850296128804,0.27025432506268565,0.31477750288456896,0.3141093938335633,0.26251062247811774,0.30154772524649687,0.3160613060483577,0.31394238436983457,0.26251062247811774,0.30268839888149124,0.31606501979040935,0.3160852193241066,0.31612191176906457,0.34029578696711127,0.37849578872884315,0.3793023450644313,0.37928945554128646,0.368186875451606,0.3257276699027418,0.37369467293835257,0.32274770977126543,0.3160854044339345,0.3160852193241066,0.3160852193241066,0.3160852193241066,0.3160852193241066,0.3160852193241066,0.3160852193241066,0.3160852193241066,0.3160852193241066,0.3160852193241066,0.3160852193241066,0.3160852193241066,0.3160852193241066,0.31594679695815664,0.28624347246575077,0.2817228690942919,0.3134698932391604,0.26137195420301396,0.25286836056911355,0.2528680900239806,0.2528680900239806,0.25286816122006783,0.2570755899257211,0.3083916389035011,0.31608369885459453,0.33347145436281345,0.37799463218469675,0.3773265231336893,0.32506442746251807,0.28616152052129706,0.24067525881428153,0.17458419799624636,0.12632463430147034,0.09425160237090502,0.06329718343580737,0.07172056630263235,0.12432768891440915,0.1506443385500571,0.18884440082846332,0.1898617228974775,0.23718959480937407,0.2528405840395287,0.2528680900239806,0.2528681042631966,0.25584802523682804,0.30463553725181036,0.2681520611890278,0.29812570434151553,0.3160503677310569,No
0.2933268378891576,0.26079921937498973,0.2293945370627526,0.17248473342588433,0.23124521423251387,0.21267817826949376,0.08226553331178899,0.0019206149957877727,0.07107931915963661,0.18550807411589254,0.25840353351530965,0.2605595815005941,0.2649183327547284,0.37521484447920805,0.3644972504700448,0.2685454981507984,0.3363964431076951,0.28976418108331536,0.28912114927830324,0.3065413518700435,0.19666054045809922,0.21207920569113092,0.4023143416823043,0.4582072347054993,0.5217813143732357,0.44918550763668286,0.3965763075647004,0.3534029977268691,0.4296982111918126,0.5070308744380014,0.4633662566421677,0.5273403626001052,0.5290793004230565,0.4826011843485922,0.3728850394072136,0.36013799455454887,0.44051243144424745,0.5177845467165749,0.4648710467661221,0.439640288422412,0.4395658801373621,0.4034746040956403,0.3887405590601425,0.38626164792237816,0.35036880195243647,0.36555507572096246,0.43396372341822165,0.3122903569006734,0.19152491013518969,0.21356500299294368,0.3278107691722578,0.34850004930805767,0.27420493609673713,0.1538067975648154,0.08382519373481578,0.13884054072355667,0.2903562917130582,0.45914906969599123,0.6998430437673093,0.8906376094148847,0.9086633599149945,0.788383699831229,0.6264123056519715,0.5263037342708206,0.44651320387334614,0.46590449511831267,0.4792126228495768,0.3565461823009084,0.38058013897397913,0.43918541769477315,0.48489542761693727,0.46560833289239234,0.3620353301963384,0.35416953504472737,0.39489166332769265,0.33146687491597504,0.26309748919575604,0.2249919107402647,0.17159167950696386,0.17102876804398903,0.17141995509567565,0.2140962075530748,0.2025307062579884,0.17720593394465567,0.2993400697072719,0.38909642046698245,0.38529618180622727,0.35510947249082925,0.4260958764648173,0.4393637136008728,0.389833710691164,0.37072974488108734,0.4511350723626286,0.5262416678355617,0.529152021870404,0.5281527667482795,0.46825467478925553,0.38802302044931203,0.35076326363887844,0.3960533419354668,0.5095934850384012,0.5273910642689774,0.4499140912823947,0.3294287425410829,0.26832787228922506,0.34633179330420916,0.47033710209725044,0.46661047582357185,0.3626584091763956,0.37045494905533616,0.47886715177368977,0.5289740013763211,0.5291002921810541,0.49346167464296187,0.35535712018705823,0.21110478831577417,0.1929978760523099,0.3020331137681893,0.3898123655173453,0.5196594480800414,0.46058659129507795,0.41300106756581734,0.2982625237023253,0.25931847016481946,0.1625557686134833,0.08218885368977524,0.10875841050264157,0.24446205583432068,0.4367560810392064,0.6310848779542084,0.8179578404445778,1.0,0.978934223516335,0.8798706861971137,0.6884783479513512,0.5544040412837568,0.4698660903509424,0.3650555468229175,0.41688106757689347,0.5013698053467479,0.42334466148932215,0.34047456752342775,0.2683322205819536,0.33915770677776536,0.38291547113554536,0.2850510091641816,0.3761548993504302,0.5064847567286606,0.4833525682219406,0.3733841485416338,0.3498148589398493,0.30023857277830146,0.30162197382583145,0.26611598325404806,0.2923569150830527,0.30155170870455983,0.19301338237671395,0.1818642760503142,0.2565075119955189,0.31944006901213307,0.4401978834323721,0.5348491322223268,0.5965052725449844,0.4848795434499227,0.32872695093554327,0.20752866311237383,0.17127560703980826,0.1740254722755683,0.23843974605306073,0.18295757968471982,0.13151785108731673,0.09538747144771165,0.17510963139393176,0.2528553664722679,0.25955149589859694,0.19524475451977885,0.09290756627030916,0.15716075584853328,0.25807839920668485,0.18220330352480119,0.08448363850407681,0.13120522517192512,0.1704706247061818,0.11726357515071761,0.08647135119599625,0.15737317850355304,0.18109235221193032,0.3166705677002053,0.338719506860766,0.2661217235093094,0.24141453352392084,0.12849340216271798,0.08515428885318954,0.16362057444104572,0.2535349481459086,0.1767958140803927,0.056190049484470705,0.0,0.10534665819064415,0.2106278326711326,0.1661960011702277,0.08913568213773182,0.009146956200140721,0.05550448407928599,0.24925853310038448,0.41176157990047635,0.5735545785065579,0.7458346652410519,0.8626742579553817,0.6660724291226625,0.46708391191906173,0.4153359624835975,0.29882710326711504,0.14911469421706514,0.09851574816866204,0.24543216529442446,0.34331992932437316,0.38888447848065155,0.35607546508671106,0.33233818933645054,0.2861423985676339,0.34847445751521633,0.32846437421807373,0.26320325093306707,0.31125649633711383,0.32168283984548474,0.20465625305952706,0.09750859680507773,0.09816059789329401,0.16862405572564754,0.12050787412042396,0.10297286271749684,0.21149914687648597,0.24090030479039903,0.17880875424065046,0.26621084609582546,0.3590230543404278,0.4412900241972011,0.4777108575968114,0.4322092914481015,0.33581947277237667,0.2890284354498558,0.3683884767797494,0.47175187595306767,0.4299564660283579,0.3534717440260948,0.39915084372666954,0.5105564342589659,0.479574186304367,0.4962256856269125,0.5965107079108964,0.5438532981778295,0.6109996851452557,0.5832619187774295,0.5297200835479998,No
0.43134832433748294,0.4237605650566314,0.44283237123965247,0.4967497565691654,0.5723433913791487,0.651212948393868,0.7016062486781323,0.7281868687995878,0.7505569897969901,0.7781609363044697,0.8181420098343755,0.868074788509873,0.9097120600869775,0.9460664870056559,0.9711773026362116,0.9753342885401008,0.9564715603107676,0.9510734557086367,0.9510627231493181,0.950709567625442,0.9337390632145994,0.9259702287275835,0.9259426862648632,0.9259426862648632,0.9257854748392869,0.9099308613786534,0.9008594280537889,0.9008226493804083,0.9008226493804083,0.9012369469787989,0.9184003029920018,0.9240572799273514,0.9044500781998832,0.9211582189524088,0.9148229422954572,0.9169008921808399,0.9245511307417451,0.9021388939614474,0.8778780356512086,0.858012909631364,0.8506335966042502,0.8585486640676057,0.892274773701327,0.8992782743350642,0.8784043218673427,0.8808423820152176,0.8841928830550825,0.8144639153864968,0.7407488839972056,0.6801552898807901,0.6014016607125674,0.5220026421679784,0.442603623623389,0.3632046050787996,0.28381156083951,0.21073175472619754,0.15737437670648236,0.12578191393373617,0.15025453155562962,0.2167959546411451,0.29372644602062303,0.3525197927328305,0.4297973303097451,0.5091963488543341,0.5885946417281653,0.6661007860614099,0.72540848917482,0.8011985935431536,0.8557619686273648,0.9105462369279844,0.9693708435031181,0.9533221326838972,0.9148811100659624,0.8871861158407515,0.86920855022607,0.8620333058974361,0.8750035204329225,0.8572770111204879,0.8506023596572665,0.8493324042217654,0.8225031556386626,0.7931992944235238,0.7666332779133476,0.7466872105384761,0.7219973372465383,0.695641789395705,0.6760129478754164,0.6942192791626454,0.7205865087922945,0.7513405637157664,0.7912302529395903,0.8410477525018414,0.8935832761430569,0.9351276848117824,0.9713718171329133,0.9964163808722737,0.9969995722182241,0.9648808091334717,0.937112717608271,0.9106668443868924,0.9008642308833328,0.9008226493804083,0.9008226493804083,0.9008226493804083,0.9008163679128836,0.89430196819356,0.876182440342387,0.8757026124959544,0.8749229106061622,0.8563062531845911,0.8505955248613772,0.8510801947543603,0.8619707770724454,0.8509948457737315,0.8505825756114995,0.8505825756114995,0.8506189848364536,0.8596313262671589,0.8684491062083475,0.8626379955720993,0.8721155385754575,0.852213449674101,0.8378576256699621,0.8196103128219376,0.8041370932057386,0.836476414607739,0.8706300098951911,0.875698696177571,0.8755845088691445,0.855963804792411,0.8026020257341759,0.7264091075697809,0.6470117668988515,0.5684194468494934,0.507741272625887,0.43392272252072717,0.3545357296049487,0.27516169575012306,0.20476909033309498,0.14112921710765436,0.06304379187258125,0.009789215275911367,0.0,0.05302516656476319,0.11337385897781393,0.1872705825954455,0.2666637688972666,0.34370094699596976,0.40252515509224995,0.4797418742329538,0.5591408927775441,0.6385399113221326,0.7179379123918483,0.7950648925354651,0.8539816847839616,0.9304183198475138,0.9722968290139904,0.9432082952326604,0.9075783242365731,0.8885611682574681,0.8757110744102587,0.8606474740214822,0.850624636630894,0.847548818100679,0.8266209658184995,0.80503423340528,0.778629120076086,0.7521971374916512,0.7203053625622156,0.6913359472673362,0.6647223627758199,0.638209447445309,0.6250932860017882,0.6448786509239883,0.6842274291215644,0.7239614799164498,0.7638577680421466,0.8127080251025975,0.857524598600071,0.9009745159233282,0.9344517147130644,0.9622757122818641,0.9760080484506504,0.9651208878376338,0.9511630236287867,0.9370867454960803,0.9107741501865427,0.9008650730205585,0.902147065271897,0.9208399165893888,0.906417610460053,0.9092080746560858,0.9257083158049135,0.9259426862648632,0.9259426862648632,0.9259426862648632,0.9259426862648632,0.9258147892571329,0.9113292769652959,0.9044466198846979,0.915964971466829,0.9011675620102824,0.90114636104768,0.916809764728598,0.9245368039115367,0.9035807944854048,0.8815539487676891,0.8576252326250571,0.8560352604517347,0.850600744065066,0.8533167964444117,0.883820037458372,0.8842244293496155,0.87573625085771,0.874774209245976,0.8386886548445038,0.7806644632836615,0.7056218427051202,0.626226167751323,0.5468294375653193,0.47131334627990373,0.4116250194296027,0.33374968891171974,0.2543584377319257,0.1824944766411023,0.12030749981816191,0.052411711686922935,0.02530176639591808,0.05475455544636265,0.12180499273607337,0.18035250765772304,0.2582915098554901,0.3376905284000786,0.4170620044819473,0.48869218853952123,0.551120702673269,0.6301665656939814,0.7095655842385704,0.7889646027831616,0.8683626268900428,0.9455182317696402,1.0000000000000004,0.9974375980927062,0.9579418022759429,0.9182703143411559,0.8826239622155696,0.8709040773961054,0.8516473637177948,0.8491010502894656,0.8261130963935348,0.8027246515350175,0.7964621030023258,0.7648095267520509,0.7368804223317773,0.7109229501179626,No
0.2652322203162125,0.27021606542353327,0.31248546726991977,0.3692947817683918,0.39393402643727615,0.4264371721275513,0.4687855647562005,0.46123744378589304,0.4546310247772989,0.4538330955096086,0.4321924789081151,0.3868302122722844,0.31473944841221657,0.23978002554407007,0.17106516138861805,0.1198922857887359,0.06417079911710699,0.022546734042717897,0.0,0.0018137519570680105,0.051699312516281015,0.11927843092176937,0.16503949567700493,0.19374393391511813,0.24176496950297865,0.2182611172348068,0.18055373999153357,0.21977218365769158,0.27011294069518055,0.3269278641816187,0.3887123449262089,0.4631828597206207,0.5252802043057869,0.5916838160255233,0.6666376176032016,0.7416176306086499,0.8165927081799746,0.8859431252368828,0.8780204182691858,0.8106074979770503,0.7387093269775846,0.6809456953617978,0.6148515287159353,0.559733106188991,0.5256484912567481,0.4842558812681119,0.47634529765913847,0.47535861237226174,0.46152445544597853,0.47164530419784345,0.45593456171854463,0.45592721996950036,0.46813669853322226,0.4552842432489861,0.4546062142671996,0.4546060694622267,0.4546060694622267,0.4546140949507036,0.45997229082733293,0.4786138367137234,0.5014508350050288,0.5216677124826776,0.5442127978335742,0.5628799470873274,0.5790479111934839,0.5870538129200207,0.5981836816496129,0.5700421430017388,0.5615463545034398,0.5430689372564887,0.5226324536822018,0.505335102843401,0.5189752914908721,0.5124932663488337,0.49843095070455234,0.49807379958954234,0.5040711965253255,0.5225400787227268,0.5402596134635376,0.5398348399050605,0.5107158133339254,0.4727538128579556,0.45654241088028336,0.47979462311952537,0.4988050487259148,0.5159329224777522,0.5134172846766125,0.5042986175513762,0.5130872021047042,0.47037050371269196,0.40330328548249117,0.3447171913119482,0.2932426095181526,0.286269974911173,0.3292978518012166,0.395288396444061,0.470241106265068,0.5452211192705159,0.6202011322759642,0.6951811452814116,0.7701611582868604,0.8451409052552652,0.9177384110651396,0.9242354881174171,0.8683849018799892,0.8041916830301004,0.7426754627709027,0.6856149017485857,0.6253596253603653,0.5780169678526801,0.5442915635888168,0.5191995846210098,0.4944300767546155,0.4871878763675208,0.5107061906166614,0.506292635691266,0.4985741140822726,0.511540947901342,0.5002079938321797,0.4980693302025676,0.502352859898866,0.5019022068719377,0.5053746808477935,0.48851689450462565,0.4804295609838971,0.4868092039850578,0.4765741363700968,0.4884112973960528,0.4987560137499787,0.5207730693788148,0.5488974865952922,0.5630110719811214,0.5633245936090812,0.5733572955565189,0.5848404535550982,0.5849085993647272,0.5747362207258173,0.5503069262495086,0.5376516957442687,0.5208699722638772,0.5300634431915805,0.5240829223286907,0.5303015106735098,0.5399645327295066,0.5228816562087126,0.5393030359658568,0.5607434797186519,0.5495803089145075,0.5563561376135242,0.5166049452189592,0.4805133297313713,0.47795392854880925,0.5026861777640201,0.5195636976124858,0.5267593063062224,0.5411664985792064,0.5299207135864261,0.485796537905828,0.42633950230497053,0.3535828489294093,0.29717148455948283,0.24870105234696238,0.24986099450561294,0.30177138187382635,0.3661054875126135,0.42947718923480194,0.5043229303584535,0.5793029433639028,0.6542744457020753,0.7235784403520693,0.7830033896716695,0.8574920695030817,0.927154444296296,0.9089336538894797,0.834916519670009,0.7604855400103165,0.7014170078061062,0.6470526440662603,0.6033180948739418,0.5706549116988038,0.5401809164203826,0.5209209460162216,0.5197906473853933,0.5224214591509226,0.5322665837419591,0.5201190399667861,0.5199651028678498,0.5322579476761331,0.5411516069312379,0.5260077953138524,0.518059387189846,0.500421629825262,0.4977973903880959,0.48362678539782245,0.47644859809056994,0.48621365339328415,0.5068824464564674,0.5394363738125514,0.537329118169616,0.5213683757569969,0.5388895328661265,0.5607889259322061,0.5632409543140171,0.5632408196117158,0.5602651340204234,0.5328130779459435,0.5358607832354854,0.5413048716787037,0.5283683303595543,0.5199022637683623,0.5263776888573477,0.5218916513863863,0.5204429140826892,0.5364637454945655,0.544113092844607,0.5610330076400247,0.5418496562928077,0.5065754430976019,0.4822453446218917,0.4882772318972868,0.518402695467111,0.5180803657429944,0.5056612752964451,0.5267628993033298,0.5374948496741592,0.49190122332370834,0.43343446779799155,0.36935244713195603,0.3057378218073623,0.241756895888102,0.21734871536079625,0.2515188085460558,0.3109606847540891,0.3786669566585017,0.4536262170195413,0.5285774244076431,0.5967217630352666,0.6571266931298161,0.7318191061818031,0.8067991191872501,0.8817791321926993,0.9566248471572965,1.0,0.9409606614727264,0.8660166522457202,0.7924749071029908,0.7355102668572413,0.68046815757583,0.6349451652226601,0.5829320565217224,0.550279135646933,0.5225874809326481,0.507208586574988,0.5194398543235317,0.5089216748185592,No
0.9426348955141601,0.9455016192546419,0.9728187627346441,0.9635509699184399,0.9205923937186484,0.8990932104378322,0.9108443309070977,0.9471634596652461,0.976502791710038,1.0,0.9864310255812812,0.9692426478725045,0.9521593350366118,0.8859553269324372,0.8122542349601671,0.7526101008488624,0.6770344862815336,0.6055435705666468,0.5444097517314899,0.4681620150788963,0.4078615394726621,0.3919360081785288,0.3463079468834427,0.27558963923534874,0.21527450009994054,0.1632003530886723,0.16421245750628088,0.2179559388287755,0.28917031461091103,0.34993460761298767,0.42624254875822665,0.5032267925389644,0.5802110363197022,0.6571948915979222,0.7321174861302984,0.7600421332236724,0.7324525638694808,0.7558062164551957,0.7954137128851086,0.834870847678979,0.9086229624395927,0.9672041828369489,0.9981714275076676,0.9851043392279677,0.9636518212738574,0.9468762096270766,0.96353715385351,0.9773149720159005,0.9574289304270849,0.9233788256434621,0.8966749576763555,0.8543422949027724,0.8350501313800613,0.855054823209314,0.8664318146126524,0.8549316594492873,0.8600868744741468,0.8769378135888601,0.9051836490128817,0.9288295266906714,0.9535661413046124,0.9522996810042943,0.9427134566145772,0.9425999531286036,0.9336738080601141,0.9247103472175988,0.9639629023764269,0.9857153683638487,0.9713986446251428,0.9646386657107229,0.9650131151649055,0.979077634952187,0.970328345438296,0.9466444783965402,0.9387027717711645,0.9093330830462842,0.9047367203494607,0.9271195569493624,0.8978076595698621,0.8862432737624752,0.910085391303896,0.9289776269699659,0.9413670689612244,0.9226819751643887,0.9071165414032483,0.9350903328849514,0.93212241864288,0.8817490811231936,0.8058185623960097,0.7288345931819551,0.6518503494012173,0.5748998547195026,0.507208268695766,0.4427099983599003,0.3658965569928103,0.28925280700106315,0.22742829442956936,0.15691133526223933,0.08392474080101886,0.0262613138167338,0.0,0.029920628798210558,0.09961388740861699,0.17329233030189517,0.23283929508312573,0.30856794699889045,0.38555210859640265,0.4625259303353624,0.5335745724476935,0.5949404614539264,0.6715056787365428,0.7476817686676718,0.8078522262152505,0.8771369918067142,0.9346390531024422,0.9879349190030453,0.9926227772317562,0.980231125255453,0.9649118057642343,0.9515885750974613,0.9330094484189719,0.9187956422286776,0.8964252901732466,0.8645015907804465,0.8608662554994546,0.8698648234876236,0.8556533202879515,0.8698542265064124,0.8630133390444112,0.8844634344093527,0.9224303059422492,0.9457262604323131,0.9634494542591798,0.964615003865402,0.964615003865402,0.964615003865402,0.964615003865402,0.9646150132044045,0.965107365190748,0.97983611461893,0.9711024300068862,0.9798126395641176,0.9606157871986225,0.9463429954351827,0.9591042002478303,0.943452236120363,0.9489863909948415,0.965195395179463,0.9778947458937819,0.9431345837739546,0.9032021592370372,0.9053714558488521,0.8993170272438955,0.9273257975888023,0.9633949435151603,0.9734162754546403,0.9702725258089573,0.9623008422919384,0.9284048197165831,0.8645896854597654,0.8022839528002499,0.7262013889450025,0.6649558191396006,0.5937356829045788,0.5167615364063494,0.4397817506720889,0.3673706439192732,0.3094358864942599,0.2674293036297293,0.27568641184983145,0.3377495347412216,0.39967833194442726,0.4763294417534376,0.5522506041687167,0.612138562166737,0.6853009963989143,0.7622054192418521,0.8297295731823895,0.893886778299569,0.9538995893215163,0.9747194393929153,0.9510520831276761,0.9426869038122572,0.9425543329401553,0.9274557084340085,0.9090952440606896,0.9085684458052508,0.8798947693366115,0.8716802181995842,0.8416831502217446,0.8327693993615686,0.8329283506551568,0.846336691548204,0.874906617874136,0.9046365603476123,0.930103164171594,0.9430499847739373,0.9587602237314345,0.9646007373472005,0.9646150711062229,0.9651932990378396,0.9807784279069733,0.9865841887869982,0.9865911756435684,0.9816889858928324,0.9653374461361865,0.964590824516673,0.9571363321486901,0.9500165594577927,0.964335315762813,0.9716563729480825,0.9856520106014024,0.9646203971439102,0.9295768464145922,0.9340295973164645,0.9438774917009236,0.9611591938095616,0.9646130987088251,0.9631391636544153,0.9421045656749234,0.8986817275988042,0.8406469862150345,0.7777142385831879,0.7017453021452229,0.6409659692430405,0.5690812932825935,0.49236743559525564,0.42929027322449986,0.36007567940808594,0.28323782826459487,0.21908402198224053,0.20072939054993455,0.23790850770119665,0.29376477313961935,0.36908648849747694,0.4446933699816511,0.5043522812982113,0.5780573165685343,0.6550321609513805,0.7274098825145625,0.7878353519620065,0.8593708133376752,0.91638147940533,0.9425994177090642,0.9564472732087164,0.9742673978247365,0.9677997332787913,0.9445848987794743,0.9141489916108898,0.8980169373177129,0.8814841742917108,0.8678516426896961,0.8375479723815835,0.8151707482976298,0.7902752918239564,No
0.9010922919936442,0.8909812393545087,0.9150916674294147,0.9412230121137326,0.929509662118237,0.9433564591141068,0.9449640867434272,0.9449645107780289,0.9449645107780289,0.9448618868742327,0.9295801450131815,0.8720769282823748,0.8094113467313253,0.7467413448820261,0.6840747716644535,0.6249006264131669,0.5766006110195767,0.5147304377077826,0.4520605534761497,0.3893905516268501,0.32733288521010806,0.2785037098214689,0.2200451402472421,0.15737976207027282,0.09487650827481175,0.044132111002114005,0.013875770530171305,0.030858032267392588,0.07568249380786085,0.13543576756412268,0.18300917343559941,0.24377112538467882,0.3063967815057862,0.3618881999866672,0.4132417590176005,0.468878132736426,0.5039205555733348,0.5637840931632421,0.6243482394812352,0.6717997776389275,0.7331218273092324,0.7929939322519419,0.807814674906143,0.8020985664752827,0.8210417343105152,0.843584536880928,0.8909684383689469,0.9204305254500098,0.9274856749063018,0.9382060554000371,0.926851479729784,0.9262953897810458,0.9262952929374082,0.9264112906056252,0.9363922852525137,0.940358828069126,0.9267323142740205,0.9179172750938216,0.9077576762659967,0.9076260750967875,0.9076260750967875,0.9076260750967875,0.9076276299311039,0.9095709417919435,0.9276620768781041,0.9536277908335511,0.9635621669210521,0.961830269899429,0.9469775275314682,0.9571526726228705,0.9573847504150894,0.9472421251982648,0.9742999691926353,0.9822851438210507,0.9785935605332305,0.9643195024763487,0.9638532085445939,0.9749615588365619,0.9769125397829059,0.9653551232274715,0.9797941784052235,0.9823023757844611,0.9823029464592712,0.9823598999371534,0.9906612039040108,1.0,0.9855795023333807,0.9818068245329763,0.9682820453333965,0.9641791700330944,0.9755391081184035,0.9609518669723398,0.944023203496744,0.9253110485829588,0.909203471137523,0.9244528836565915,0.9543569849477791,0.9757288730732316,0.9802597205750079,0.9701859616588533,0.9719893125166461,0.9778524424555175,0.973610747832605,0.9708645793981097,0.9814791437942074,0.9536902623670902,0.8979083013510842,0.8481929893891844,0.7859100523512756,0.7232400941885389,0.6605700923392392,0.5979000904899392,0.5352300886406405,0.47256040084578643,0.411182265950055,0.36369482171619794,0.30321718463810976,0.24056489315396368,0.1848889270116838,0.13879490520208027,0.13162070386851665,0.16275052963896108,0.2153652266114019,0.27785470005489055,0.3306425454296207,0.38469158446406215,0.44730171094073334,0.5096528919104522,0.5601151174301262,0.6166557842799536,0.679270445370626,0.7348915984764646,0.7861444697102891,0.8482611442652321,0.8952398075391406,0.9194175089591559,0.9152693896635653,0.9397391293832094,0.9495378466862512,0.9532091432828667,0.9483397038707939,0.9627863172022302,0.9623553200239128,0.9508236602086431,0.9591109949606325,0.9333408128052416,0.8973789110624351,0.9021020887949476,0.9233306104520791,0.9088865200409764,0.8930053038687289,0.888961318460602,0.8889494569192027,0.8845677899528837,0.8791672477626653,0.8990826863231156,0.8977373052146804,0.9041737071288347,0.923498578004271,0.9391920061217256,0.9424282661212198,0.9266168203224594,0.9103898630356646,0.9171560819833591,0.9322387078460115,0.9444637499558786,0.931764773547326,0.9327283304982141,0.9529910602395026,0.9635136976313432,0.9636337286186496,0.9636298586863417,0.9600294801083833,0.9462329603537216,0.9593124668085258,0.9546000891093471,0.9476594327775301,0.9598169918068087,0.9465735970893041,0.9568754201863667,0.946733909398394,0.9405511187083313,0.9276319945043938,0.9414108463807782,0.9346596109283438,0.9198800880852986,0.9041995428170044,0.8790012955810367,0.8714888693864431,0.892083212974033,0.9206563311755449,0.9265229222196165,0.9378705300978192,0.9478494185318622,0.9626787695123209,0.9624587856011417,0.9473104635269212,0.9333952962091443,0.8922858151747053,0.8330589010203848,0.7739633420061822,0.7256290664701557,0.6637181203928386,0.601048233106201,0.5383782312569014,0.4757082294076018,0.4130382275583018,0.35036822570900217,0.28769822385970434,0.22502869736907893,0.16428175016858804,0.11670119776620558,0.055885490925733805,0.0121134131844709,0.0,0.033921503667522224,0.08579634676261305,0.13887765795127072,0.20145375869793458,0.2638887861839536,0.31526845806846593,0.3708105205820522,0.433464548254511,0.4961309012388506,0.5556031560848638,0.6036817840639483,0.66547544412524,0.7279825314891966,0.780151549343088,0.834330929408237,0.879049452956346,0.9102197471437137,0.9333365188512155,0.9450450393142131,0.9564549044925381,0.9580792542867504,0.9423470127378213,0.9295099459281402,0.9435989654449375,0.9369242189733558,0.9330546359292962,0.9447291996915381,0.9364699860888512,0.9264171419184972,0.9262952929374082,0.9262952929374082,0.9260834114464114,0.9135144411746516,0.9077009965430838,0.9152858138737225,0.9254480734878441,0.9135828729752493,0.9190470383871996,0.9127253878012911,0.9161612910304888,No
0.3769607446406198,0.4138902681708725,0.3935645966689414,0.4262089297952816,0.2863250330187981,0.19378139007435102,0.24840823898477637,0.28328505320565966,0.34051998192059685,0.31217883899304333,0.30309381841998473,0.41644400007883675,0.5461503300830817,0.4822125058044193,0.5587805893052398,0.6410335222861647,0.659904905227247,0.6891427289139909,0.6823241670016547,0.7161186462219398,0.663206737127588,0.6600256939975537,0.7071104202480107,0.6988955118037534,0.6618903480544311,0.7274868781474062,0.7538028854638021,0.7022301613213564,0.6312516263948869,0.5673177996592731,0.6082129372647724,0.7098020916631675,0.6602837040025786,0.5801004710420194,0.6036900356961148,0.6593672688794143,0.659780778529008,0.6597741601441189,0.6389297776110858,0.5680217825646157,0.5654376521138786,0.5648732955660574,0.5019527152223056,0.3988186876432316,0.45708565358955155,0.5551656896882555,0.5705091141914043,0.6652743792858207,0.751283703163141,0.7467890068987195,0.6689559747820901,0.6594068337517403,0.6043744355494969,0.48895867944453286,0.38808080434578685,0.4152107625859731,0.37486979974270795,0.29830109807075367,0.370981082426562,0.37675139928363066,0.37675139928363066,0.37675139928363066,0.3760487664124277,0.3109162100806184,0.2826915712621876,0.3193199595127858,0.43741514177275675,0.5908727703108969,0.8238881164807879,1.0,0.8952812386319042,0.6972527568237545,0.5458050056757582,0.4103027347982131,0.30309223000761065,0.31218916367346417,0.3756603979125437,0.31960623603501936,0.28474316097533325,0.33706454894117854,0.286136680795785,0.2826370201045272,0.32717075569867937,0.32324925583750286,0.2079722622765523,0.1101918524539407,0.18687657088726795,0.3399364600374888,0.3767422659124886,0.37675139928363066,0.37675139928363066,0.37675139928363066,0.3766144422807969,0.3322302924978686,0.28266496470571667,0.2719458008587772,0.19325603294193705,0.18821628617327235,0.22052908844632668,0.28199650272316035,0.31372257570370365,0.3762921171984388,0.407130246911132,0.4623505247401756,0.38468187000463594,0.3924721346366269,0.45232223758217316,0.39515403520206327,0.46728096117677254,0.48494699799031693,0.5610348546600132,0.5654376521138786,0.5654376521138786,0.5602529611689366,0.48390507497627766,0.5125027248451595,0.5643466507427899,0.4984070031906338,0.49408727989274226,0.5643466507427899,0.5198645406228817,0.4713456106329925,0.47109452569875643,0.46884193534535434,0.3940338740034033,0.3767541128214358,0.37674557510493223,0.35905641248142395,0.28535613671986404,0.2826790575090925,0.3343343019083438,0.3756603979125437,0.3034337266364151,0.2873307766355726,0.3829435217645507,0.5380036180778589,0.5655277877508453,0.5918071242217433,0.5823533403081136,0.48220224647254284,0.47109657739807176,0.47027875765387783,0.39746375330048167,0.2954065044882608,0.2780077256654998,0.2019176187449414,0.18806749598001637,0.18824762988059263,0.22578947598367982,0.28541503436292537,0.360508383610453,0.3326503225439055,0.2187081459688418,0.18834996707558815,0.2271215155006665,0.38879606598173666,0.583220180091768,0.8145438199457171,0.9239626360473707,0.8057116828621549,0.6093684606400167,0.5295910386849805,0.41483607036463077,0.37652967689767536,0.32118424309287263,0.2825972897725766,0.28240827286850667,0.28249275414282593,0.3084216628601002,0.3705680374958913,0.29469331398228427,0.2547220541801192,0.19377900745579346,0.26784138950140424,0.2861405194590194,0.3579766623646403,0.2975039153716974,0.2824107547628376,0.2817559222967141,0.21782035727575177,0.18818882858885644,0.18614196929180338,0.07026303889310803,0.0,0.05354894790107245,0.1252738825726869,0.23992897073336295,0.28746443299505486,0.3660934539011347,0.377004692014717,0.4260430484263491,0.45540021841932976,0.3824652602860432,0.4460359692468323,0.47108684837228765,0.47109452569875643,0.46532341463550075,0.38863629356874796,0.41946227288590343,0.4206923691544926,0.4183790655594688,0.4707564394982793,0.4670826749904293,0.3914132585459633,0.4148416847133287,0.42510790455816583,0.3778273785896342,0.42413603779962905,0.3794713192003698,0.2574312572258943,0.2218544920541845,0.281881628045241,0.282397021614198,0.24314718960893167,0.18851664458258632,0.15038207025166273,0.09436623901898855,0.09612544200603246,0.17052391379897003,0.2705479088573579,0.2263159416232412,0.20272700571571356,0.2783987385948876,0.2959497871475367,0.37649530367742123,0.4578961875845149,0.4752520544972203,0.5516521327670709,0.565434475289134,0.5652127010870807,0.5164865069375573,0.37949961279127287,0.2846082404182102,0.2824068168238316,0.2711639073676988,0.19377927219118973,0.24902936769985828,0.3600225280909637,0.3666747116792308,0.2862494422262216,0.19711117949836243,0.09947607313678297,0.11176310305052617,0.21716426794785448,0.35268904964421033,0.5467825592083404,0.7169194974025288,0.9009322022698587,0.8104725462085511,0.6138437786857782,0.46170617318531804,0.32318915117515346,0.21249092442326756,0.21414341728871378,0.28160216330912924,No
0.17767917168729808,0.16833490744954593,0.1811360792375667,0.23489894972962455,0.2808786626947808,0.31839721194900994,0.3740902902036596,0.44859279991009826,0.523124408655963,0.5790829713344583,0.6408410940819507,0.689507361292057,0.6736633528940987,0.654230354796923,0.680139839761694,0.6960380973291911,0.6703025948584869,0.6536348237821135,0.66836451530467,0.6468501255963983,0.6413227675195139,0.6189397500709313,0.6135504168862815,0.5766500425874672,0.5221310346892536,0.5160759018450496,0.515965569841065,0.5091686604719672,0.47361217498647656,0.3929340523613436,0.3095581649616954,0.22618178494824592,0.14280547053711823,0.06009193881071351,0.010323022145184435,0.0003046486146169869,0.0,0.0055713621876472,0.03595633618098315,0.11541933235847202,0.19879297409950025,0.28216935411295063,0.365545734126401,0.4485702663897828,0.5019350230567885,0.5038732737218443,0.48084162843493905,0.4400781164557457,0.4486237492061602,0.5029952018827459,0.5296759168910437,0.5498880900393108,0.579187901771451,0.620063228518704,0.6446346595849755,0.6606894599301767,0.6692521849484927,0.6469709011421441,0.6510557956432721,0.6723154712897457,0.6786488019416663,0.690042333133762,0.6734440543467923,0.6727515805816338,0.6549356548132006,0.6673277082684828,0.6708537624074178,0.6392034855859454,0.6292781428615171,0.6450149193275556,0.6449300843894217,0.6274231424613457,0.6277978386840641,0.6449857845335258,0.6438764233301248,0.6205313154605894,0.6158956983498798,0.5932834339294062,0.6177938648519663,0.6292446232008166,0.6113600335489369,0.5899323743465259,0.5733727235915658,0.5381457170568473,0.5191022558209251,0.524510478186992,0.5652528524462217,0.595958909073095,0.6164499731740425,0.6190674651517853,0.6641815741417081,0.7247023118073774,0.8020559643944254,0.8247063706854978,0.7515421152677448,0.6790854590370512,0.6130856569633285,0.5635165107121316,0.5800103494323028,0.6356540620498188,0.7120591586697604,0.7346037876859488,0.6947327599845541,0.6734917698423,0.6711205192169127,0.6477599080028758,0.645098972387292,0.6435425863144748,0.618520773941635,0.5949034533937456,0.6258602445375172,0.6281384238697361,0.610618691173531,0.5896153189055044,0.5730670102927582,0.5635356137135612,0.5869223061507758,0.607702602984435,0.6193107438743408,0.6422195081832567,0.6453855999202918,0.6617759042533167,0.6507953549309895,0.6527259372151115,0.6725065667155516,0.6603775791588187,0.6525115426536927,0.6876174210377459,0.6800362075468596,0.6617175604554979,0.6617783322315911,0.6923153747047626,0.6550977474497626,0.6592350390766231,0.673083003573097,0.6731473788593987,0.6727560660075054,0.6539835606625437,0.6451244672933432,0.6493170718420633,0.663553352188551,0.6454592215570618,0.6450986503395284,0.6456561818747031,0.666212173456604,0.6556716105998448,0.6450420441836955,0.6280944415897607,0.6004738726546104,0.5894307917501238,0.6086846675464463,0.6170336795902478,0.6195037161901067,0.6429442065860784,0.6727330223661432,0.7301324877184681,0.8104049133684952,0.8763940417699643,0.9491442511778927,1.0000000000000004,0.94793034057296,0.9330181034529521,0.9359661790834477,0.8821000019959766,0.8094497888500949,0.752838723925787,0.7179856336966606,0.6896921643950011,0.6530991545946603,0.6463940942611361,0.6691893950812227,0.6928958506081293,0.6656456632357934,0.6454130051847087,0.6422829411416555,0.6007762479325476,0.6009846191149602,0.5983174494537713,0.5714823449030075,0.5822582287678606,0.5638008629153091,0.5441309465020798,0.5612495064408027,0.5820088268351236,0.6121320956518903,0.6432853272797963,0.6450983056291437,0.645098596664901,0.645098596664901,0.6450990821220857,0.6473724610372718,0.6556552422537538,0.6474379743528966,0.6700248494401166,0.6595335842349335,0.6624915794469346,0.6731096754981727,0.6731459713913917,0.6687208222224394,0.6467031066145457,0.6450989032066619,0.6450974563772607,0.6413002664930905,0.6203763474541035,0.6367919592019571,0.6083387560118196,0.5947533011457851,0.6131205258775361,0.5923359963763706,0.6159333276403118,0.6259117621659134,0.6368490638724018,0.6195510717244068,0.616778742079545,0.5906008513623529,0.5613480074714423,0.5615020034398,0.5858027237044436,0.6355529282474319,0.6205591260929393,0.6375782190037191,0.6578352609117109,0.7119130456753031,0.7871500429638467,0.8611658537472082,0.9257481445172817,0.9567924814785189,0.8819677526017631,0.8040327071637177,0.7421760540319169,0.6799959514133289,0.6830918584748029,0.7351353137027545,0.7971320055243987,0.786335554086365,0.7322697217786351,0.6808229187888304,0.6520475960034795,0.6514793591857928,0.660346045243577,0.6248705213160579,0.6228060513673426,0.6336545731635028,0.6173345923941187,0.6170498144704024,0.616623447076941,0.5883966561765779,0.5612779980348699,0.5520777083312693,0.5246853110478793,0.5091583764310994,0.5433648532035273,0.5614461058264095,0.5855228429810837,0.6251943186207511,No
0.8853671908665959,0.8765317079921155,0.8737845988983528,0.8534950572574185,0.8465356421529533,0.8278230944467864,0.8280661383940333,0.8506508065736731,0.8757754755239775,0.8943730868525392,0.923764369844859,0.9442900626405706,0.9278790098835179,0.9124864943803299,0.9012489757910958,0.8926224933223326,0.8766476475471636,0.8764543638078743,0.8765744059345799,0.8885905188159589,0.8847588262527708,0.8764895998568534,0.8765828865423533,0.88928470885614,0.9011408294837242,0.9011397691879308,0.8884072059010775,0.8579388674987074,0.854920170158211,0.8596532453728098,0.8312160181332593,0.8323196742638705,0.8510043680598782,0.8361692776812135,0.8286588809599236,0.8380149766524516,0.8388951392427866,0.8458370508286794,0.8230667917881869,0.804585022549301,0.8229706817632803,0.8270339809552043,0.8270343159020896,0.8283390808504074,0.847620073842331,0.8339521583843368,0.8070979565217908,0.824558070642579,0.8270340769434363,0.8270342544638392,0.8270342544638392,0.827034304626364,0.8280554938817164,0.8454500333268706,0.8286614618746255,0.8064561946886126,0.8216486187077314,0.8492659734902515,0.8226661565586664,0.7635590253579347,0.698673449733497,0.6503607513621112,0.5836644390059296,0.515445396745287,0.4472420065801681,0.3879464318515038,0.33531251960398123,0.26727898421852503,0.19906006367789875,0.13337686250745984,0.08564941693270045,0.03951481792976308,0.03787734422016786,0.07672747392966883,0.14450397321967134,0.2127230855921982,0.28079747124578835,0.33549650543918297,0.39269171667950564,0.4608894872769165,0.5291085996494438,0.5973277120219707,0.6655448882356465,0.7315319861458875,0.7788608820159668,0.8237660190026914,0.8270339595602376,0.8259875102996621,0.8057351306382894,0.8173032410734051,0.8270066271138838,0.8202162711266721,0.7885200124502476,0.7931065488255573,0.8023074139581139,0.8008573863410713,0.7802562724715587,0.7776165088859011,0.7772871890388409,0.7605258361612877,0.7529193864471146,0.7544415174253447,0.7743716188756204,0.7782646302348497,0.7967596411742455,0.8096725524531041,0.832480189364067,0.862881074136773,0.8604011429559435,0.8517895745879209,0.8513286923214545,0.8345709883787364,0.849268100174819,0.8743931073226117,0.8566357527151229,0.8644996921696153,0.8764305696191759,0.8764543500746189,0.8764543500746189,0.87614350424432,0.8595305948855749,0.8537012860019919,0.8742617471377487,0.87351698602611,0.8516256720752025,0.8292412898293433,0.8286099100323763,0.8485971975775319,0.8517440842718607,0.8517443038593955,0.8519052192393679,0.8662435532838471,0.8764267227246636,0.8702171062197896,0.8522773210680827,0.8578692804429533,0.8735771438668332,0.8536298172378212,0.8598058318320829,0.8642139047989223,0.8519551173441187,0.8622700003479036,0.8763730414612922,0.8831781124596088,0.9007486183626634,0.899346223596762,0.8628854472954517,0.8311292600429896,0.8281282204183609,0.8510212324539626,0.8757318533229235,0.876454278950809,0.8764541968403945,0.8741569579807527,0.836755121219273,0.7868789665108293,0.7192307482471048,0.6532993705199543,0.6056016249751179,0.5392821616222983,0.47106421284384137,0.402855309140592,0.3414990004233682,0.2907060764858973,0.22289778528277848,0.15469007378124866,0.09376973986868897,0.043285472314801066,0.0,0.005892059121843651,0.05107711016436234,0.11475599780081414,0.18297407186725456,0.2500701151814848,0.2990332444271071,0.3629217050890854,0.43114047037163816,0.4981565674942603,0.5469896105650358,0.6110880940524721,0.679301075280963,0.7414280893108152,0.7906729003130342,0.8395914004971128,0.8921005907743451,0.8810995459118605,0.8764587418858056,0.8764543500746189,0.8764543500746189,0.8764543500746189,0.8765457536188137,0.8857332985257509,0.8734477098249229,0.8524893982370907,0.8571803537474549,0.8872551850171515,0.8955800662934745,0.8771123133609224,0.8764543857810843,0.8764543500746189,0.8764687865662442,0.8842186124764826,0.9226670319544965,0.9715528884417406,0.9948141401681578,1.0,0.9995645738794989,0.9792945949850855,0.9524188288764144,0.9499520556601491,0.930528050954619,0.9389870873294583,0.9490375768499808,0.9286243689793983,0.9418461785443579,0.9502342696250983,0.933414537823686,0.9258874090591771,0.9274388759964038,0.9528576556653032,0.9666105027859127,0.9507855006067611,0.9505842817095251,0.9472693815127373,0.9314859866017722,0.9437531547598015,0.9264160651996098,0.9258744767659248,0.9256146591375165,0.9094931669625028,0.9092287666881669,0.9255877858309818,0.9258744456853982,0.9258744456853982,0.9258744456853982,0.9253916106932767,0.907298644685512,0.9120535147056676,0.9258105549841646,0.9216959182982993,0.8920263018141856,0.8803141422760534,0.9093316221947774,0.9213072646145655,0.9022728339778254,0.8991247266004034,0.8775735501965141,0.8506305477862397,0.8168658903958264,0.8067157802288758,0.8293071812067874,0.8677246259254217,0.8827745037866981,0.9130561712599707,0.9097315923073914,No
0.9259575476095243,0.91186601000868,0.9141638957306348,0.9235166420793868,0.906964600259478,0.9191585293572606,0.9069642025657858,0.9231905996710275,0.9328333649376872,0.9481881282266942,0.9624437696141532,0.9499134755219751,0.928597445772724,0.925881033942626,0.9113416423451173,0.8961225718395394,0.88214492798528,0.8727081221641071,0.8600267442650749,0.8598164435700175,0.8598387622282524,0.8669574332476349,0.8816425430358206,0.8822979024035602,0.8983473484969577,0.9040114672346151,0.9040144996490147,0.9016046241646425,0.8838802086386464,0.8932101664310186,0.8873136986712034,0.8780242912100857,0.8627673395678643,0.879526287954246,0.8695976854159722,0.867930262261527,0.8818057731270557,0.8849864148031754,0.9007106604253208,0.8688197673023028,0.8571077037039814,0.8393690200273083,0.8392095097832089,0.8627488863941055,0.8870999127583405,0.8810038973508072,0.8681123527705639,0.8896902503899575,0.9038968602919892,0.9022503428860871,0.8603516713859389,0.7926082278122499,0.7244900362125004,0.6564197958391875,0.5978304241065686,0.5420421888781477,0.47411668311876554,0.405998491519016,0.3378837548832143,0.2750562442707447,0.22329932823465315,0.15562513842528158,0.08752701497715298,0.02732941011110679,0.0,0.015877612116312445,0.07918937987000652,0.14730535929859467,0.2154026860715188,0.2766814465385381,0.3298854692823405,0.39767871239233,0.4657969039920786,0.5339150955918281,0.6020331442704077,0.6692798041827719,0.7205566276870305,0.7842910585504161,0.8523912273262728,0.9144618793284911,0.9444745852063536,0.9306757195848694,0.9408589608781472,0.9481965634644292,0.9481065771775214,0.9343807765120173,0.929424268523956,0.9472308065099573,0.9482140967910668,0.9482140967910668,0.9482140967910668,0.9482316904972197,0.9543720672336984,0.9586349488290509,0.9482390073591604,0.9355876543247388,0.9129915746667492,0.9027036250466423,0.8842210210247003,0.8798335033714646,0.8659635844742923,0.8811010565297206,0.8821129464293187,0.8945307581825741,0.9039685863665969,0.9040152701805426,0.9040152701805426,0.9040152701805426,0.9040152701805426,0.903883951629413,0.8898981361351042,0.8918815611048312,0.9038990891278016,0.8955459748580283,0.8834858919310467,0.9006069296815493,0.9101019433613837,0.9247935360523596,0.9079952491245824,0.8988992416043895,0.8683709771808403,0.8428959572693024,0.8709772753634493,0.9029060023482995,0.9080686289594877,0.9252733884930251,0.9261146834858041,0.9260544802116963,0.9118780255003576,0.8670897876116159,0.8035190671983305,0.7354132509919351,0.6726390886295204,0.6208539318562618,0.5531545848222903,0.48503639322254166,0.41691922071287824,0.3514776458477695,0.30110452593284354,0.23472138566384926,0.18063513508743867,0.1593628753746068,0.19584957780556023,0.26352227397450223,0.33164046557425264,0.3993589967910305,0.4512317653050113,0.5138992311673207,0.5820138186679875,0.6501320102677366,0.7182502018674861,0.7863526170503432,0.8486087171206416,0.9010110331272885,0.9682144315659755,1.0,0.9872417454878657,0.9651991870361787,0.9575250835163764,0.9702161297827168,0.9703135100963283,0.9703122424476858,0.9673688844627755,0.9497804294228249,0.954022269783116,0.969794931667936,0.9706088775062898,0.980236816307047,0.969892742662319,0.95089685772294,0.9343817893881381,0.9294067351973179,0.9398682537107526,0.9259836227270144,0.9074354563284088,0.8887561980173087,0.9033939133546967,0.9040152701805426,0.9040152701805426,0.9040119643517297,0.8989090986406327,0.8906289214597995,0.9039064831545054,0.9040152701805426,0.9040144499373035,0.9015512262028778,0.8831875218035705,0.8657095878862675,0.8654995676447057,0.88059534948012,0.8660202639628061,0.8678833731880133,0.8620368707216182,0.8673303594830846,0.8598478673164549,0.8605055052405781,0.8848741635187127,0.8755816548655977,0.8443917176333806,0.828037116987622,0.7991902760470739,0.7952279161151372,0.8198047472037504,0.851799511253871,0.8597951080059052,0.8598164435700175,0.8598115595124409,0.851543930683798,0.794140630077123,0.7264394866013917,0.673521787692287,0.611893977366953,0.5437948333047684,0.4764275760597694,0.4251132906249788,0.36153080109308755,0.2934214802110331,0.22530328861128313,0.1583878345564278,0.10878553375869604,0.04528569983174391,0.02142449905182886,0.05016760855983904,0.1004904654351817,0.1678448140176032,0.23596300561735362,0.3040811972171036,0.3721986120713594,0.43816288735351305,0.48799943326227346,0.5544546248784035,0.6225727419105866,0.6906039367981052,0.7485007011927509,0.8048952551837623,0.8666068335044637,0.878496986441982,0.8670439733922901,0.881410566161263,0.881915856875279,0.881915856875279,0.8819443543170049,0.8902497948546566,0.9039090179794886,0.9040152701805426,0.9040155000972079,0.9050630453612878,0.922102098616945,0.9254886102613327,0.9055693801629792,0.8831270806998366,0.8818352574082926,0.8699369937556298,0.8547072928272055,0.8382123593804507,No
0.9513406391581185,0.9673683768815451,0.9714606897035853,0.9559692209474941,0.9507364141830337,0.9507173682577679,0.9450649434433669,0.9305598144195679,0.9463554340700284,0.950719235077746,0.9507188617137508,0.9460973359446965,0.9300432765602968,0.9323569695276448,0.9423944802774544,0.9267781422840833,0.9111297935076719,0.9224489658034076,0.9162158276033914,0.9292813708986771,0.9386917233623517,0.9548212725673535,0.9623347406754328,0.9500196243159467,0.9222701755766258,0.9105896729128231,0.9368451024011479,0.9506117746989458,0.9507382436204899,0.9561598403038651,0.9557327539658704,0.8949037321920299,0.8332329378485497,0.7813708967004676,0.714542884785923,0.6473137903083539,0.5800846958307853,0.5129587869448757,0.4578372422500343,0.3996812113748387,0.33249097848242526,0.2652618840048566,0.19810498682975153,0.14128538098243304,0.08488941196174826,0.03182341783600684,0.02213745690862945,0.0492732819381696,0.11098985977219966,0.17794002941973197,0.23183689868790358,0.2913734023791865,0.3585273171244072,0.41617833527454184,0.4718092983151272,0.5389445036877949,0.6061470852830393,0.6662828786779458,0.7195084723500593,0.7865380623564566,0.8526261643714301,0.8907530503979144,0.9093533552869846,0.940360461649234,0.9506976831715033,0.9493493723238844,0.9316367776092713,0.9288884716281602,0.9136584177487341,0.9072225678811341,0.8858676533081087,0.8658977914604877,0.851898254368455,0.8442801844394965,0.8553130974065408,0.8713473196683421,0.9015635801013184,0.91587320454272,0.923784332021361,0.9330075377012101,0.960369398290752,0.971968522378976,0.9723399586107684,0.9860301753843621,1.0,0.9956793161303454,0.9933326904839306,0.9848747494119454,0.9722770315924971,0.97204536792482,0.9724319288682421,0.9863521338476984,0.9723604524363316,0.9449710997739498,0.9463991195519297,0.9615466096939214,0.963712554474176,0.9542259426132942,0.9650674753883091,0.9537734718299222,0.9679888111310309,0.9720423436764558,0.9720410742388714,0.9671102787562127,0.9512523668468544,0.9600143839242681,0.9761882409714562,0.9925156922124247,0.9794159082471618,0.9518634571389017,0.9507228660426024,0.9512882044122537,0.9650662152848248,0.9537743679035113,0.9686047743466699,0.9668250346512024,0.9161057122835397,0.8490010737410607,0.7820530562209242,0.7291471528929367,0.6686126821441292,0.6014073563927007,0.5341782619151316,0.466949167437563,0.4011966472491473,0.351627541500644,0.28658350848168457,0.21935545008920343,0.15221869530207632,0.09650282920386655,0.04018773790701946,0.0,0.013326039232459674,0.0684238855484951,0.13556903141469334,0.2007901501823044,0.25054337688022255,0.31593455969317263,0.38316336481364566,0.44921931639633295,0.4998405418557761,0.5635305545619054,0.6307573715191008,0.6975563401944447,0.749132232479754,0.8070730670349908,0.8529243742952484,0.8958762641690954,0.9150160527880788,0.9437502313834454,0.9505579919756841,0.9368312216920196,0.9395833528521238,0.9348366837057207,0.9191072594293921,0.9080980153200442,0.8953853788513468,0.8669259798053703,0.8444931681936461,0.8441094045533268,0.8443749520000732,0.8575450641029243,0.8677284596703183,0.8937994932791091,0.9087541907055545,0.9262071921205708,0.9463993376762576,0.9359568398515172,0.948322890542229,0.9382521291990722,0.9300540026495834,0.9460457163196296,0.9507187870409513,0.9507227073629041,0.9497877810778022,0.9332936281186335,0.9449914130199297,0.9420192168261341,0.914837868061082,0.9402484977970471,0.9506644547905778,0.9507227073629041,0.9507241541483871,0.9536944990570122,0.9709664553963431,0.9636385413221125,0.9512150779374609,0.9640122361708645,0.9793370789472577,0.993203313099515,0.9866660858714908,0.964577481002479,0.9523943772921322,0.9689648142822511,0.9674700106664966,0.9513898069690221,0.9489815120766218,0.9075510413825074,0.8412763785237289,0.7894361096761626,0.7275727144143547,0.6603582414756448,0.5932633208789291,0.5396345740223358,0.4799639042069792,0.4127645241272848,0.3463477591858801,0.2955198430947119,0.23356610526387023,0.19169621024582462,0.19385634070646462,0.23831520290176966,0.30439990704958664,0.35878644791105696,0.41781353325659554,0.4850107152076544,0.5522398096852252,0.6194689041627934,0.6866801755859551,0.7480784472682123,0.8002619737860557,0.8590720091071606,0.8939935187757366,0.9088076707783634,0.9251876323833117,0.9293967985342277,0.9294000468009886,0.92939500638705,0.923948761381717,0.908234316646384,0.8936053198369063,0.8837026264558117,0.8667534026830932,0.8535575336120025,0.8285687664521668,0.8428854865268347,0.8572277867494056,0.8868866117288654,0.9059616391616885,0.9268012575655789,0.9504912918304735,0.9718175313048993,0.97204536792482,0.97204536792482,0.97204536792482,0.9723109153715659,0.9845313685704347,0.9754597698453562,0.9720469453877008,0.97204536792482,0.9719979612537117,0.9629665740373072,0.9570367474412862,0.9716732380537785,0.9786937578199963,No
