0,1,2,3,4,5,6,7,8,9,10,11,12,13,14,15,16,17,18,19,20,21,22,23,24,25,26,27,28,29,30,31,32,33,34,35,36,37,38,39,40,41,42,43,44,45,46,47,48,49,50,51,52,53,54,55,56,57,58,59,60,61,62,63,64,65,66,67,68,69,70,71,72,73,74,75,76,77,78,79,80,81,82,83,84,85,86,87,88,89,90,91,92,93,94,95,96,97,98,99,100,101,102,103,104,105,106,107,108,109,110,111,112,113,114,115,116,117,118,119,120,121,122,123,124,125,126,127,128,129,130,131,132,133,134,135,136,137,138,139,140,141,142,143,144,145,146,147,148,149,150,151,152,153,154,155,156,157,158,159,160,161,162,163,164,165,166,167,168,169,170,171,172,173,174,175,176,177,178,179,180,181,182,183,184,185,186,187,188,189,190,191,192,193,194,195,196,197,198,199,200,201,202,203,204,205,206,207,208,209,210,211,212,213,214,215,216,217,218,219,220,221,222,223,224,225,226,227,228,229,230,231,232,233,234,235,236,237,238,239,240,241,242,243,244,245,246,247,248,249,250,251,252,253,254,Target
0.1011085722018028,0.1011085722018028,0.10110904502987861,0.10200660004272932,0.11108458557492806,0.12088319876639164,0.12955349481119383,0.12854002815645482,0.11748991222217287,0.09813744585154649,0.07662238034081748,0.05823625280327427,0.042049551112925965,0.033199516941741614,0.04008715773027505,0.04868218685198622,0.05033469038250482,0.05035643923347788,0.05410127748507332,0.061303901431964736,0.07557727478274412,0.1002684342001654,0.1323631222690571,0.16563297146388467,0.20223236422681556,0.24028820696258002,0.28338030221511445,0.3242586070280944,0.3600050404985011,0.4027266772370599,0.44589110540875954,0.488131561720051,0.5233634104057776,0.5652341223123294,0.6083977829259144,0.6512827123266081,0.687483632966464,0.7277499576174584,0.7709034337571872,0.8131358604477548,0.8483635096062283,0.8886630035481611,0.9097410145997586,0.8878368904491625,0.8578129119036686,0.8298987283569628,0.7890778374562242,0.7609328794948369,0.7297863134848463,0.688790951525657,0.6456296851925329,0.6024646251201067,0.5594753264917731,0.5226955087804219,0.4831061897441642,0.4399584322328547,0.39679335223124945,0.3536290041986212,0.3115422547277362,0.2763621339063054,0.23428628481985458,0.1911220992715712,0.14804100863046932,0.1103445073801208,0.08683348895745113,0.09117078360267716,0.09922358749173532,0.10558426380132668,0.11154492411557793,0.11826680413583457,0.10634851895303954,0.08483030968525185,0.08852041109972841,0.09929168950525225,0.10824231763252556,0.10217819058154531,0.10110886975162892,0.10030453338270617,0.09227982950080826,0.08951209314286634,0.08161221081949543,0.07999651310892619,0.07389223383153998,0.08053577846863069,0.08675375829220577,0.08922679964820346,0.0911513208870891,0.09776869946382583,0.10039082702104873,0.08807334595211769,0.07075951303381056,0.05256770136585054,0.03374317990158926,0.009752531952399446,0.0,0.0019859636214418774,0.010564526562440557,0.019002571412196634,0.020610825428737822,0.028496373086008164,0.03294032494760413,0.04382388147648575,0.0645941075500076,0.0928979707015376,0.12715872936972406,0.16655252592790726,0.1997241238757459,0.22759274925201756,0.2637948208432508,0.30203388725523195,0.3451399152994674,0.38586457805717633,0.42171699056662737,0.46448772282173056,0.507652745888509,0.5508178258901144,0.5939829058917194,0.6371479858933244,0.6803130658949299,0.7234781458965354,0.7666432258981408,0.8098081196491713,0.8522131952590186,0.8874967718090403,0.9291517078595901,0.9717833903307311,1.0,0.9953008814041544,0.9639369107462565,0.9217811299565137,0.8855907808315924,0.8453563093930807,0.8022026506596105,0.7590375706580055,0.7158749654606607,0.6742251488586746,0.6389403106534259,0.596531212184074,0.5533663176983272,0.5102012376967218,0.46703615769511675,0.42387902128865096,0.38345572830387953,0.3473860327054157,0.3045299410214255,0.2613649047354383,0.21820237705039736,0.17656833868445188,0.14127971551352303,0.09892093642361366,0.06521497203875914,0.0651945431232086,0.07355046847562163,0.08215428976605343,0.09234164729550365,0.1004375423321413,0.0927888491105735,0.07068881263673044,0.07327505611460383,0.08762585047490168,0.09093796420811318,0.09095442515345487,0.09095442515345487,0.09092472287081788,0.08708415751754872,0.08091801378318553,0.0808002781051067,0.0808002781051067,0.08080042615043492,0.08135124956245443,0.08940176430625901,0.09794221964653849,0.10109198124578112,0.1002134117376785,0.090845746074522,0.07440259175374053,0.05288636455380091,0.03152067462065378,0.015126674837337317,0.004466858813838348,0.007256798326414682,0.015678578587707603,0.023996734461538827,0.03244660848540759,0.03592100928309927,0.0317905736515216,0.041898368637607986,0.060622155130782174,0.08832714093724503,0.1191579997513319,0.15360991667625257,0.1914070400573551,0.22927417629249902,0.27220872411804353,0.3090174238969763,0.3485567373178491,0.39169621542648225,0.4342823197140535,0.46962267074927766,0.5110410732226711,0.5542025415728973,0.5973676215745027,0.640479487459797,0.6788968822582158,0.7167904914707166,0.7598737945325755,0.803038874534181,0.8461250109623286,0.8839547912245305,0.9223966478343701,0.9601457302755607,0.9696713584605954,0.9468123647255204,0.9104402155124602,0.8673882926915542,0.8242232126899491,0.7810581326883441,0.7378930526867391,0.6947279726851336,0.651567563669722,0.6103647970888817,0.5749138486932335,0.5322216766620853,0.4890567197254554,0.44589163972384993,0.4027265597222449,0.35958332924387904,0.31986226301547616,0.2832055080213116,0.2402203867641719,0.19707731988496047,0.15736454334254524,0.12095978044735722,0.0931447867323032,0.09755222268072083,0.10376084337323976,0.11104792638778682,0.11731894821438393,0.12079321113638253,0.10365782089905062,0.08642330008788868,0.09886487386777976,0.10110356131854648,0.10111013422843129,0.10250380780306023,0.10950926020249874,0.10226658594492433,0.10107647811585929,0.09706137766738188,0.09123165890791407,0.09757530818211713,0.10109911032345531,0.1043052452082045,0.11476520737000095,0.12125026271570527,No
0.0742455570025764,0.08461171002174872,0.09768308448287977,0.10671042346609427,0.10596406849982287,0.09751158729345688,0.08703167385806987,0.07681650679957208,0.062283189474262146,0.04330632601250595,0.022999320820735747,0.008283849608740068,0.0,0.016099568680111087,0.025972939405818796,0.037748498355558935,0.05548695613825694,0.06087278702370691,0.06090326816868585,0.06364997303643305,0.07309455465765069,0.08298190391810811,0.1098760916582604,0.14544827597012944,0.18140825917509762,0.22314201685574764,0.261049932207992,0.3067329018976568,0.34433906695869165,0.3899250609553566,0.42772780809049893,0.4735541400103722,0.5208850330982622,0.5595339365784091,0.6039525127467202,0.6515889687200955,0.6992359379357289,0.7468826625344227,0.7934620770167498,0.8301260001085073,0.8498611188759249,0.8318874343135767,0.790464459634499,0.7526193042301372,0.7057330871547061,0.6580862827040455,0.6104597126274163,0.5674469351990412,0.5275263561348376,0.48005003512868916,0.4324030659130562,0.38475609669742283,0.3372222888894787,0.2966819447189568,0.2543315973060749,0.2067201911517329,0.1597430401774993,0.1225399206994342,0.09243598964236233,0.0860390723093083,0.08599843064010759,0.08380161101114902,0.07396409966205475,0.06472567431751752,0.04183887270956199,0.02640934112713622,0.03913783628012846,0.06084883696374477,0.07304892587556999,0.07339362076995526,0.06782730668777548,0.06097753870667466,0.0603725162381501,0.05192737765690181,0.059124537236211694,0.060898049948734156,0.06089945005046182,0.06089834644145453,0.05942796740667844,0.04607765072562087,0.027110265049575366,0.015043334251171103,0.010717501510350669,0.013317359986424915,0.023357494311978977,0.03370638183798924,0.043966043831836554,0.05789218673994245,0.050153869860255496,0.05902789891004723,0.06090532719527153,0.06474615291849783,0.08565288965647788,0.11486887734063345,0.14901180541584758,0.18483307013537598,0.22513257568058176,0.2669962257608418,0.30926938420107186,0.34980724769026894,0.39340652893764627,0.43269756214613553,0.4790878284703255,0.5168364532594882,0.5628427840045562,0.6101399249480672,0.6484849178441112,0.6900884206883888,0.7101799308753489,0.6892607328653129,0.6488037490919929,0.6088970283210418,0.5659650151138043,0.5183454078007932,0.4716188967458117,0.4340171909946071,0.38795399791124696,0.34030856239812923,0.2927199405223253,0.25066522037811856,0.2098605477299582,0.16676691270577892,0.1340492673870446,0.10307172918168739,0.09855918326462065,0.09842759011141311,0.09094449168280505,0.08447943495822585,0.06720779655491826,0.04729530326894493,0.043564871132468985,0.06079950169892112,0.07390223702098275,0.08417438679346079,0.08600126201442437,0.08600270862481407,0.08600270862481407,0.08600270862481407,0.08600424232732884,0.08759575438321665,0.10118841366750253,0.10907052723582833,0.09952183300954731,0.09749637377901665,0.08668557026716162,0.07521137001152134,0.06563480383497611,0.05208718229902676,0.06099100072418917,0.07675824498051576,0.08922469688726498,0.10115673465981079,0.11143826742587137,0.12181827189511596,0.13098615693145943,0.13616999302248134,0.1391184114454913,0.15148791478746615,0.17785363125831077,0.20962356326593135,0.24264371838310872,0.2678393508921628,0.30175753967617913,0.3412536356801352,0.38384986622940565,0.422257975752784,0.46691687585604846,0.5143981116037004,0.5544427565785437,0.5973230403882854,0.6446714802381401,0.6836925814502055,0.7276781757612869,0.7709938689035551,0.8102797059975586,0.8438543885151195,0.8393028074924902,0.8044905372999724,0.7600205456088522,0.7123796322322642,0.6665098225162005,0.6287194980924631,0.5819887485175195,0.5343419903191435,0.4868180151696726,0.4465494820713509,0.40392152143843596,0.3563117214560707,0.31110350950148513,0.2730689468332339,0.23019643714855276,0.19919902405434087,0.18876054910586726,0.19828473996222007,0.194243410534229,0.1868225590295456,0.19458469245563315,0.18271643158617357,0.1579005696709741,0.15668876066757464,0.15662442538526067,0.1782944387525709,0.19691284360004957,0.19896582081393532,0.1988537423054031,0.19173417387590197,0.1864507437739893,0.18617669298416706,0.17820220821040156,0.18340404280804723,0.18022642687450663,0.18443321141795233,0.17738010941914117,0.1732094559893329,0.16281207417519505,0.149747665323682,0.1336476538629312,0.1120614507904456,0.08837452779167121,0.07415041463297944,0.07942620363417552,0.09438241534553526,0.10803241248283202,0.12315731859865942,0.13426482453104693,0.14730196656078665,0.1489064613043225,0.15566134677455334,0.1574452060757885,0.16242699983157038,0.18092768241361634,0.21381806337645948,0.2498185194396747,0.2884622598025022,0.32743091533147206,0.36603116539945324,0.41260280540120853,0.45050861947268217,0.49600180617942424,0.5433935230747893,0.5826007231528143,0.6264013234883898,0.673965447062232,0.7148606428339987,0.7568377026718629,0.8044235135698274,0.8520704827854613,0.8997170224328386,0.9461021862700689,0.9824239903873346,1.0,0.9775707418652915,0.9368264465335958,0.8892347051809946,0.8450776040081269,No
0.15549482519818092,0.13447592943758924,0.11592455109207656,0.09383887041692507,0.09325711612444376,0.093272913816552,0.10201800918136605,0.1313680674865667,0.15504551606304862,0.16134009526914017,0.18383598749142216,0.161118194112162,0.17796979942838842,0.19631585209270952,0.21810872205857468,0.2364784760821248,0.24959941532258512,0.26514900430180877,0.31807157301820155,0.38031414288321663,0.4469071087212537,0.5264696292534365,0.616000723173193,0.7046468570750157,0.7698491740172235,0.8397904304436423,0.8999820817244233,0.9672797837415832,1.0,0.9860482242096076,0.9085329020420367,0.8446606699339752,0.7582934615531052,0.6687540568844472,0.5844221501516813,0.5199274254640294,0.43138751823255017,0.3418411550869571,0.25478724540221354,0.23824704824113496,0.29232340414774427,0.33427729483328417,0.34372510374956367,0.3634116654267645,0.3720852426564454,0.34622991117446666,0.3584827744514234,0.3745906852802472,0.37464830589091314,0.35968260792099027,0.30629803155132596,0.2591431314691244,0.28238091883221816,0.311757468959625,0.3363897499281068,0.337100182220337,0.29849530334069474,0.2897430386942448,0.30895589343762,0.283130110103504,0.28093711261546694,0.27915500994981457,0.25446667417674895,0.2604590976858576,0.26722356068883,0.24971760174342883,0.2496579226238831,0.2554269644335987,0.27955883941005855,0.28093683228062893,0.2809368893858739,0.2801108548707072,0.25343933675604546,0.22006809797346172,0.20638194499530105,0.15968741525053254,0.14836869125148855,0.10923398707370158,0.09330468959828409,0.09269300436774941,0.0771380791195515,0.09338946668792758,0.11880368233424576,0.12517493971857085,0.1476951854236841,0.1586148868580457,0.1844494500352427,0.17556147898039232,0.15603761740942979,0.15665379231750265,0.18051051212641767,0.18762755165986,0.2124777021892239,0.25906229993861896,0.3303793584746533,0.3902918446378676,0.4556685488279264,0.5435103921809974,0.6099471422793865,0.6916317687420737,0.7601359097405549,0.8316083827932772,0.8975824113549544,0.9549203642495661,0.9941017975860253,0.9730805031523948,0.8896475213043891,0.8241605922522881,0.7405063514148722,0.650960953867056,0.5639027641891579,0.5000909331817089,0.4136004080943181,0.324054387580194,0.2357155642622617,0.1994383359757057,0.2464962024355266,0.2677559142268686,0.27859862228944277,0.25822698187889515,0.27227824269160106,0.2504715619130016,0.2593693282995586,0.282062837717179,0.30851642781075483,0.30228520244385937,0.2597719215695635,0.20333535447285467,0.16445982817591442,0.19495215942162236,0.21806231375934892,0.21837700909217883,0.21837702207064336,0.21837702207064336,0.21836811569113035,0.21196113038072717,0.18785215798919186,0.17391855685303437,0.15588888553506663,0.15581706909754356,0.15581706909754356,0.15581706909754356,0.15635632856877724,0.17812152737779652,0.18708342559430768,0.18709703779701403,0.18678899105667934,0.1662947432459969,0.1708163985975375,0.1798044039425415,0.15055757593576846,0.11131796899328261,0.08979920039681044,0.06355338487328588,0.05957665688339553,0.02536614491568656,0.0,0.0029670780440449462,0.02873745616640999,0.05311810576368092,0.08972380434452987,0.0714978108864166,0.07794069957357053,0.09376329037401643,0.11658542501124991,0.12452565916570002,0.12660693432547276,0.15299638682977612,0.17361553145161235,0.17220036767027658,0.20119975812459856,0.24648635597520574,0.3131387670640713,0.3767734990433578,0.4558601612161146,0.5227312704267408,0.6108069873163071,0.6760486240886969,0.7589253619616292,0.8228238929883318,0.8758259586887558,0.9283343656823169,0.9653769857878007,0.9372300686896606,0.875940303789057,0.789573438039656,0.7000273266762784,0.610480727322626,0.5209341279689745,0.43138752861532215,0.3421361590202139,0.272676376571928,0.20881966163583066,0.22945849067673674,0.24943221854789144,0.2591294351615856,0.28060326319150786,0.28062889196370566,0.2609674366640249,0.2747539768965188,0.29426590014975673,0.32360978103560356,0.3385078426018504,0.3092123176142145,0.2457442272225805,0.1960236383642595,0.23261551911866363,0.2494840272008707,0.25320688993644147,0.2785537772834621,0.267997945969932,0.24974980543173597,0.2471683319078375,0.2214335635616349,0.21837748929537426,0.21822286476967623,0.20328096641711824,0.1871493951266734,0.18716886202161653,0.20519853333958427,0.21827416384515974,0.21837702207064336,0.21837702207064336,0.2187887970781377,0.2396576297443449,0.24964044276090558,0.2469661757782724,0.21860298307161585,0.19029929012407987,0.1693565870353959,0.1497818404742679,0.12534752460621057,0.11183799561054997,0.09337243451207833,0.09952043188910853,0.12340260942245695,0.138563628658674,0.1556052003366597,0.1558340458816012,0.16481011397131962,0.18672848360101924,0.187097006648699,0.18793376880405255,0.21179048861296934,0.21836826867517622,0.22184374799239226,0.279955171436141,0.3495254038345612,0.42673114061604256,0.49097845771373283,0.5605417045499177,0.6333918414001305,0.7002552115892309,0.7601486287012111,0.8293310494182409,No
0.12397347579346096,0.10620187976475703,0.08048654673021094,0.06940325492485311,0.08182974645833463,0.08693909687957069,0.08696395268571555,0.08696395268571555,0.08696395268571555,0.08696395268571555,0.08696395268571555,0.08750761542663277,0.09762841062686078,0.10002689926124875,0.1046356318837951,0.11194175202399048,0.1017318500635902,0.10002127915460957,0.10002076799179926,0.10002076799179926,0.10002076799179926,0.09999484008589077,0.09476934585010488,0.08704428755835991,0.08696395268571555,0.08696395268571555,0.08696395268571555,0.08696395268571555,0.08696395268571555,0.08696395268571555,0.08696395268571555,0.08696395268571555,0.08696395268571555,0.08696395268571555,0.08696395268571555,0.08778763129466105,0.09855365132067151,0.10001987345688113,0.10000091531788691,0.09548451862940333,0.08662889255723938,0.06969796879672563,0.048894136254123755,0.026761184694586326,0.009650056939079832,0.00807464013902548,0.0,0.007853486632365403,0.015862224316855134,0.02180527085057138,0.03060495002303254,0.03472041245334756,0.034815852449077145,0.04249063010999876,0.04776722149496759,0.04779350676746397,0.047862102790639405,0.0558497452340343,0.07635739756667004,0.09775059041095746,0.13046852664446718,0.1656199331778665,0.201417446007099,0.23496746403430624,0.2726178628566278,0.3120939489870813,0.3442234939924065,0.3858114136031996,0.4278635406367308,0.4640878938486219,0.4991220333247206,0.5411107109496793,0.5831997391128203,0.6252887672759608,0.6673777954391018,0.7093735759951829,0.7432779905761251,0.7806100614958811,0.8226770927855815,0.8640689011188858,0.8955030276998346,0.9356145545353929,0.9659693288178692,0.9732318722956026,0.9488842308890533,0.9177419305622196,0.8764404499282792,0.8345420261694882,0.8008069047530406,0.7632244216439443,0.7211411525817999,0.6790521244186594,0.6369640759842379,0.5964216854400699,0.5650633404760566,0.5237528270721792,0.48166379890903865,0.43957477074589724,0.39748574258275715,0.35539671441961573,0.31330835928750833,0.27249882724542074,0.24670101289130653,0.22461965702143738,0.18413343888528821,0.14627246959177054,0.12345107313256287,0.08396950165827866,0.04444466135933389,0.019495497208636525,0.04078354572557519,0.0687865009714792,0.0854533785070144,0.08700581166638122,0.0931228013454306,0.10067521881749508,0.11518989205643981,0.12521399482743778,0.11417070501367199,0.09214449622842125,0.07579066631572351,0.08549683601458824,0.08736219657273248,0.09698119794838345,0.10001413788164326,0.10002076799179926,0.10002076799179926,0.10002076799179926,0.10002076799179926,0.10085347937068212,0.11107715780378236,0.10252127749969064,0.1000229830306445,0.10002076799179926,0.10002076799179926,0.10001056421576315,0.09657669002433478,0.08727276340828638,0.08696395268571555,0.08696395268571555,0.08696336484848333,0.08585523447339716,0.08219232389708742,0.07723255213873115,0.07390063146197035,0.0704226086197619,0.06115010002618204,0.06085032207354768,0.06085032207354768,0.06085032207354768,0.06085403652330301,0.06404717741798471,0.07361625090176283,0.0739071373796314,0.0739071373796314,0.0739071373796314,0.07359619448705867,0.06325979487001643,0.05018887052405674,0.04364773792304133,0.024465544590436483,0.009424855009014799,0.008661135863769154,0.014579260655267934,0.024609508761550103,0.042320986593407106,0.047795803644766544,0.05328344672215479,0.06133915454950234,0.07183838635393247,0.0739058509532251,0.0739071373796314,0.07396869009312601,0.08088925829168403,0.08782785197763099,0.10349705223943095,0.12497566551816686,0.1559023757522935,0.18785864331201596,0.22123169593163405,0.25860353091857347,0.29465576009772754,0.32983423491378794,0.37183294074609785,0.4136312237265405,0.446479161318571,0.48505412843864937,0.5263266250235037,0.5576637678913885,0.5982544077252148,0.640278606792529,0.6753465054954635,0.7114946793342547,0.7535527764592551,0.7955884691035302,0.8311088934838824,0.8668165978798013,0.9088520738057344,0.9505509963168772,0.9824230911830387,1.0,0.9837891476641656,0.9452407953366797,0.9131154722614236,0.871524942989518,0.829435914826377,0.7874238380509317,0.752052916114923,0.7161805273188007,0.6741366174798977,0.6320475893167563,0.5899585611536167,0.5478695329904752,0.5057805048273343,0.46399239134941395,0.43155724505457016,0.392566725659365,0.350481207480855,0.30839217931771357,0.2663031511545726,0.22421412299143295,0.18230232828950532,0.14837475975310932,0.11099395203226159,0.06891508974573712,0.028324570784584946,0.028626527277808123,0.061989178320620564,0.08616784944481015,0.10042530901268742,0.11210888075166459,0.11315755183718013,0.1208829764622732,0.12610818955851277,0.12523214711961117,0.10981173833043378,0.08384555781689951,0.08335176736165995,0.09874059883971276,0.10002319601514831,0.10293311356062329,0.11270618769393614,0.10705434341962272,0.10008349459024046,0.10002076799179926,0.10002076799179926,0.10001628208117186,0.09726197771736933,0.0933703183239003,0.09992376018940075,0.10002076799179926,0.10002076799179926,0.10002076799179926,0.10002076799179926,0.10002076799179926,No
0.6569916887033376,0.6553268223900668,0.620236212992709,0.6132495041739601,0.6382419136703747,0.6494661942464957,0.6145441728002581,0.6130240497276622,0.6129089247255148,0.5899309233307735,0.5690808646757315,0.5483862474567864,0.52519273614912,0.5250883178173211,0.5250883178173211,0.5260367930857974,0.5570760371057668,0.5690537710645263,0.5707550697311028,0.6061361289267504,0.6225992367264945,0.6565814520999647,0.6570432698648769,0.6706217947915203,0.7006870317583855,0.7009567350687806,0.6877044970308397,0.6352982713709272,0.6305676274608132,0.6568094606888737,0.6569916887033376,0.6570420017727914,0.6704770325771561,0.700682406623713,0.7028639309272275,0.7387041963498406,0.7449261528911659,0.7449272692940152,0.7449272692940152,0.7449272692940152,0.7449272692940152,0.7449272692940152,0.7449272692940152,0.7449272692940152,0.7449265160583582,0.7395033624474667,0.7018842735346515,0.6649282010656741,0.6571011914868503,0.6820587963663174,0.7365188478491644,0.8048936913809523,0.8327575690863247,0.8204651787502284,0.7913906123340171,0.8256038208880394,0.8328612627095575,0.8328628498846928,0.8328613972159244,0.8258968357408865,0.7758717755895805,0.7151638487707599,0.6253428141162019,0.5490849652689898,0.47261513103693176,0.38320980918210523,0.3126493660451377,0.2081781217871015,0.12676814793968827,0.03985613449752545,0.0,0.04006850003081386,0.12041272605522568,0.19267978370320016,0.2926079457731001,0.38592095433874185,0.46378747180773416,0.5689232249032274,0.6394201910635795,0.6983788325557354,0.7009594789986764,0.7009594789986764,0.7009594789986764,0.7009594789986764,0.7009594789986764,0.7009581473856397,0.6942628261447981,0.658753190850943,0.6569919308147991,0.6569916887033376,0.6569916887033376,0.6569685745962426,0.638631525777761,0.6271558043011307,0.6567274432108485,0.6566454257328243,0.625189818793852,0.6427881743947452,0.6569887699151638,0.6569916887033376,0.6571807432605397,0.6818771760671352,0.7010234334532761,0.723421851941124,0.7448441549609734,0.7504024373063576,0.7861646384792476,0.788895059589354,0.7886488579420297,0.7593294405254731,0.7449856136133501,0.7449280494309471,0.7516570431641796,0.7869342058325186,0.788895059589354,0.788895059589354,0.7889094433830319,0.7982788073895257,0.8324460518830756,0.8329127402567851,0.8462999396870572,0.8765516315414983,0.8768306401800317,0.8768306401800317,0.8768306401800317,0.8768306401800317,0.8768306401800317,0.8769392854854514,0.9009641265165147,0.9207443905818433,0.9058092255057284,0.87120480675285,0.8347585523981893,0.8344733253681351,0.8732842570078025,0.9273864417046855,1.0,0.9915715381953198,0.9651607656380214,0.9647662207707093,0.9647662207707093,0.9647662207707093,0.9647640014156469,0.9548338835540999,0.9024107773833316,0.8478029250508365,0.7813967442387986,0.7117148733110152,0.6228556803748386,0.5503115639201699,0.4796000562417957,0.395551131075389,0.3105305158042819,0.2224812592764378,0.17847920695685016,0.220866663532008,0.2946985837829139,0.37124111055633247,0.47828143962717196,0.5672458542291263,0.6493930356938815,0.7534366862203461,0.8142388373737433,0.8328397357775978,0.8294519972829644,0.795280982583809,0.827025175983783,0.8328619083401216,0.8328628498846928,0.8328628498846928,0.8328628498846928,0.8328628498846928,0.8328628498846928,0.8328628498846928,0.8325133062150565,0.7977922638143342,0.7450572997959028,0.6916090654132132,0.637004162132822,0.583299530863747,0.5505752037830867,0.49758250124487535,0.4652818290951295,0.4376812975135911,0.4371529591621499,0.4388606332063949,0.4742627794824523,0.4907446377614466,0.5274526884756643,0.5658578603424127,0.6033993166804983,0.636331439137459,0.6906670386357767,0.7388200088050123,0.7450014589075291,0.7624598577240613,0.7887144719244494,0.788895059589354,0.788895059589354,0.788895059589354,0.788895059589354,0.788895059589354,0.7895397665733208,0.8180418861079408,0.8328598369420623,0.8329245757829229,0.8477216568842829,0.8765975613291923,0.8768314068663265,0.8833673977643777,0.9187191817411096,0.9186895829967519,0.8833191436929209,0.8768314035036671,0.8768306401800317,0.8768306401800317,0.8766434911168872,0.8500612156359306,0.8300579964771719,0.794128957244423,0.7888959170674461,0.7904963047974798,0.829558683196157,0.8991666723945508,0.9207883853622132,0.9207984304753705,0.9207984304753705,0.9207984304753705,0.9207984304753705,0.920797744492897,0.9155203114461798,0.8691735545591186,0.8103752424209745,0.7396473845946412,0.6510037863831517,0.5799328296135746,0.4793377609513394,0.40766255886420755,0.30576593839129274,0.19834945352800393,0.10150384538395762,0.08552077512553691,0.10191795748722576,0.17660320719617495,0.2634173257406198,0.36481228628914675,0.4366553560562263,0.5370825570385103,0.6083852511370109,0.7122525308455963,0.7845320900129131,0.7888948847310759,0.788895059589354,0.788895059589354,0.788895059589354,No
0.9656100080864616,0.9942916495402803,0.9897011256466368,0.9555182041209607,0.9126137641052208,0.8657786014993469,0.8265560307128657,0.7848779066541152,0.7379264698884631,0.6909532676105785,0.6439800653326935,0.5970068630548084,0.550033660776923,0.5030604584990379,0.45608725622115287,0.40911433174578793,0.3630797468380038,0.3265945615980259,0.281385256343309,0.23441305824677183,0.18744005507380956,0.14109637098264605,0.10439775072064084,0.06115654157940753,0.05239230400716055,0.06429450396634628,0.06470420273204747,0.06470425860734208,0.06470425860734208,0.06436695061037945,0.05269831778919931,0.03266803611674307,0.0033118690126832107,0.0,0.01932292559686033,0.025112269818801103,0.025128818362207817,0.025118276779697357,0.02125158998213239,0.02052760072041293,0.031804402510347884,0.03728596490186398,0.026841433486680444,0.025242516731980302,0.033016915253679,0.04777758994494441,0.05154841953313971,0.05792883649010383,0.06508085672702357,0.07499636331718973,0.07789084148086145,0.07904181787337139,0.08966667277048623,0.09133401691901488,0.1007435301423576,0.10427104435317958,0.10266061234170643,0.09190783861558893,0.08258709614313187,0.0776612305631108,0.06915029786839488,0.07413264599374614,0.0781829079923404,0.08786411160901864,0.09988905538257509,0.11866637397686253,0.1438328203046777,0.15619878041128654,0.15006911582703175,0.14180295347555072,0.12719546634078682,0.10560775893318519,0.07951863530017533,0.06209957147807188,0.05198378069431042,0.051512445192297474,0.05173521680312154,0.06083713069466379,0.0646961748179935,0.06485793160256836,0.07344728648487475,0.09564039055692497,0.12324053817760827,0.16185077632377176,0.19933336059546347,0.23843007553924656,0.2798663309354117,0.32260546008276236,0.3608431791686284,0.4075617705477592,0.45352200578274493,0.48994193710355427,0.5352912713883407,0.5822630715909347,0.6289930285941141,0.6665792898419758,0.7099982098074769,0.7569629812605796,0.8020364245526848,0.8385771673517222,0.8846921180471847,0.9316650629839254,0.9777557245630315,1.0,0.9808446067326693,0.9435613692632208,0.8967972894869058,0.8500392245156756,0.8115047008077063,0.7690528079098553,0.7220962937904098,0.6751233032090629,0.62882907498724,0.5921643960949159,0.5473940294886375,0.5004220958160293,0.4534488935381442,0.40655336044431456,0.36662915546111297,0.3256944563654205,0.2787478978416482,0.2317747498651057,0.18520356994567377,0.14777038163913314,0.10478181411038712,0.08801543742050244,0.09228096149696396,0.10295123954982488,0.10427932189098321,0.10422308332526953,0.09820669226947487,0.09074107621029714,0.07769299622065429,0.05636353345908418,0.054050977174093795,0.07191811471138809,0.07785239509857611,0.07790041524219227,0.080947210795979,0.09065188958040249,0.09064299557620314,0.0809054404050582,0.08159940362854279,0.09046176959702201,0.0817311125046718,0.07386240632712626,0.06413078101543679,0.05353877679703256,0.05204114313326835,0.06205913390411366,0.06465990740776073,0.05947510628413122,0.051643729836350794,0.05084927288304453,0.04352358874768436,0.05106337287464413,0.04976959230504274,0.03925763156784079,0.03832081750358318,0.03832045313370536,0.03777130073466228,0.02770278489318745,0.033377763673037464,0.04139154601514461,0.051085443285416865,0.051534532591688276,0.0575252690684791,0.0792162536453116,0.09661822395598563,0.10419775791195951,0.10427945252899562,0.10344264360765809,0.08849258376293756,0.0705518731366741,0.05132928320513441,0.03916222215973564,0.038320666404195514,0.03832041535885855,0.03762289535179386,0.027472285372858618,0.0336782723764224,0.038316911016949895,0.044289627944851695,0.07102016475522399,0.10738072056455206,0.14359717094920166,0.18231202856782813,0.2223769086159746,0.2661251208101123,0.30348032063955444,0.35003415978807206,0.3946999487254321,0.43140736420164716,0.47776341226014685,0.5247364185810128,0.5715448579624041,0.6102237232411101,0.6524915354825209,0.6994374142775084,0.7463867603680696,0.787746273728366,0.8272521580177639,0.8741384099740039,0.9211069703642139,0.9648015900177116,0.983223010890387,0.9645664365313036,0.927773676632142,0.8810472235766005,0.8412427495415331,0.8001866749416675,0.7532393199702421,0.7062661845853144,0.6597092350726017,0.6223453584019425,0.5785328859384165,0.5315651219958606,0.48459191971797644,0.43794601835862945,0.4001482996271255,0.35685371016619927,0.30989092402148044,0.2629177217435945,0.21618280164465897,0.1778310996579724,0.13948654544552408,0.11227063700339679,0.06818428753030137,0.049605692409221636,0.0636600471332267,0.06467541793265497,0.05992062828757616,0.05167379581147857,0.05151206665685226,0.05017324203824147,0.036552689968652796,0.013323500276672728,0.004925710064280775,0.025251916273156372,0.04001299494284449,0.0543510388899624,0.06673050914834233,0.07200956756329813,0.06482852588765464,0.06398815093954768,0.054586791616401786,0.06303429804199112,0.07173076666389289,0.08005218723530216,0.09064106713058884,0.10045913511581084,0.10202279609485165,0.08768047794174638,0.07468316230040362,0.05408089952255768,No
0.39242295136223637,0.39242295136223637,0.39242295136223637,0.3924227006151,0.39056211318873935,0.37421806407806546,0.37194938949584344,0.3556189947276702,0.3528405968996413,0.35294705476235366,0.3629970412023438,0.3815063168426094,0.4002908320832206,0.4279440572563096,0.4558193450221246,0.4712741967291447,0.46926623164059533,0.4514860493089312,0.42714599651955165,0.38977278548380223,0.3525836239205322,0.3338510802426269,0.333044723661462,0.3330446500726283,0.3330446500726283,0.3330446500726283,0.3330446500726283,0.3330446500726283,0.333044723661462,0.3338474909945499,0.3490319081987927,0.352836893870792,0.35283741716916417,0.35283741716916417,0.35283741716916417,0.35283741716916417,0.3529007271912681,0.3610816590244865,0.37256937841006055,0.37263018426570005,0.3726073670207488,0.3642484853735155,0.362905758827786,0.37260129577335865,0.37263018426570005,0.37263018426570005,0.37263018426570005,0.37274723786335295,0.3807673883588856,0.37403425260824097,0.37263031236478117,0.3726387299891436,0.3786308609958424,0.38272373979294994,0.37274754312073677,0.3726973549187278,0.38102740227601517,0.3916939559271304,0.37541941321548755,0.3781199114837239,0.39206491517366127,0.39242295136223637,0.39241564952728236,0.3874556604984658,0.3724082679334817,0.3561667839297713,0.35779237086120386,0.37637788758613056,0.40182940209847295,0.4300495222192944,0.4464105370912228,0.4217767067946312,0.41229838342023006,0.4122154568095864,0.41027709345340035,0.39383511879213007,0.37456553474550214,0.3203431555139469,0.27405963121332055,0.22745892792092404,0.17130066382484976,0.12135847851646098,0.07834095909966177,0.02656370196261104,0.0,0.00976796423553905,0.04905572395566393,0.10160073540392389,0.14202059070911188,0.19767766867531966,0.25395120038098007,0.3102187122973481,0.36198554908740777,0.4034534375238823,0.4592526473234817,0.5155262008332415,0.5717996344204566,0.6267365885915814,0.6670372270944802,0.7208279857392736,0.7771012012855021,0.833350051082395,0.8827550483552935,0.9241549022624351,0.917544610037003,0.8706630598327711,0.825852734915693,0.7698528464537691,0.7257676593865057,0.6769290785178939,0.6206999025452986,0.5671424716899813,0.5269702612989313,0.4853846540654936,0.44871670075464287,0.4202387819424489,0.3922112070339554,0.36443162734303236,0.35296257905141903,0.35283741716916417,0.35283741716916417,0.35283741716916417,0.35283741716916417,0.35238891957491214,0.33777380598004214,0.33305104939888475,0.3330446500726283,0.3330447890737589,0.33460120159114703,0.3510431754352945,0.36440899745551514,0.38292457873723285,0.4014566743479633,0.4202682014001873,0.4456458307490534,0.43518734255820757,0.4227596425503739,0.41233693794473325,0.41221571845877225,0.41221571845877225,0.41218210788512666,0.4012794030949114,0.3925077455014274,0.3969357096753283,0.4117413747486123,0.41221571845877225,0.41222884027886764,0.4187842539179343,0.4317796799462701,0.4320084855553086,0.4320084855553086,0.4320084855553086,0.4320084855553086,0.4320084855553086,0.4320084855553086,0.4320084855553086,0.4320084855553086,0.4320084855553086,0.4320032074694846,0.42742510826618885,0.4127045132987788,0.41221576479248245,0.41221571845877225,0.41221571845877225,0.41221571845877225,0.41221571845877225,0.41221571845877225,0.41221571845877225,0.41221571845877225,0.41221571845877225,0.41221571845877225,0.41221571845877225,0.41221571845877225,0.41221571845877225,0.41221571845877225,0.41221571845877225,0.41228674974272383,0.42062772104940915,0.4195066857583334,0.4122558646953336,0.41222211778502915,0.4170584461791327,0.44267936601641944,0.47676249923576997,0.48623042627328106,0.4676533793694855,0.4419385434004308,0.4320985501681558,0.429603139558687,0.4135736895323223,0.4054709365681033,0.36971540801596214,0.32160830873763624,0.2808552179740271,0.2283322416688609,0.17231812941241298,0.12923055340940515,0.07930129693135957,0.027756294532467862,0.006407699065077654,0.009485126138955025,0.04830947899334648,0.10409153124301973,0.15248253659639,0.19698811189780674,0.25317501343601734,0.30944856694577716,0.3657221204555374,0.4219928519676843,0.47570404751087203,0.5155218364155276,0.571023665516484,0.6272971209077989,0.6835706744175569,0.7398442279273167,0.7961177814370766,0.8523913349468368,0.9086648884565944,0.9647790761540973,1.0,0.974958381781295,0.9443110091977007,0.9022679235020221,0.8527585853373729,0.7970577569674391,0.7561615229662118,0.7037633125893366,0.65458798510722,0.6109602709480617,0.5671910376155953,0.5222420471581684,0.4844703980127627,0.4471344028416744,0.4154523398177501,0.3923427719460566,0.37341649345877226,0.3551872328723147,0.35283988143391287,0.3528166236733421,0.3448090987227279,0.33319660197728673,0.33188389338600466,0.31527606895446647,0.3132538106415437,0.3127904623238864,0.2980801411276177,0.2942053680449197,0.309292549140991,0.3151804496004411,0.33855377096310857,0.36559260598572374,0.38531613868882264,0.41306036918270594,0.4298416236975795,0.4139225921229235,No
0.3330895203675156,0.3255108493222879,0.31250740892321505,0.28346466380188706,0.24968334181019036,0.22373193218481624,0.2087153741398734,0.1785873200324014,0.16090960364764595,0.1304634793715468,0.09352268913802264,0.06042931030206977,0.024703175557936774,0.0,0.0072086168569598374,0.041084099236690874,0.07997209773075664,0.1188925787777454,0.1558598231341345,0.18866335772943066,0.21771391152012776,0.250279779278494,0.28039265142171665,0.30524712263605325,0.3178292734859137,0.3498688710197898,0.388743306269126,0.42767121016767484,0.4665971166271471,0.5043864401785297,0.5320815096857013,0.5596880651038308,0.5911654026510677,0.6212603337914638,0.6599123977763605,0.6983061984444071,0.7267556175550162,0.758715326883615,0.7608856719766547,0.7258192382374372,0.6878503087818172,0.6551780545148987,0.6171026838647554,0.5795607055424271,0.5467428734939609,0.5084044510878641,0.4728930293133883,0.4384691587471653,0.3998636777367405,0.3665624060331131,0.33399953135874905,0.30479241380175026,0.28168699673894004,0.2623689733852391,0.25718898765677023,0.2539771216670933,0.2624544422811482,0.2730993258028024,0.2708954266377689,0.2703815062471734,0.2721233195045428,0.26642302277990615,0.2558695189205974,0.25629831329867325,0.26735807526329103,0.278347972482362,0.2865843057858587,0.28560494887148724,0.2786142898419114,0.27897282077381746,0.2890806954764459,0.2945979637539703,0.30063253913440724,0.2959702829311087,0.2996207373247425,0.30150416084029674,0.30151102017131526,0.3020187295138391,0.31021604476595954,0.3167195713474632,0.3080617806234148,0.2950108790147087,0.27910432750922964,0.2756723110600937,0.2887945527978938,0.30949050675535605,0.3266387316345679,0.32887226882249776,0.3315368465657248,0.3235586570522687,0.3003156215785917,0.2636403292142958,0.23018571476617067,0.19362506315558947,0.15682760338100044,0.12353410038240986,0.08564522945367747,0.05300922850813283,0.015918788099462122,0.00046873216228227044,0.02545016829582547,0.06262032696547448,0.09535201815519267,0.13367586239656026,0.17260346029226714,0.2115313641908162,0.25045926808936503,0.2893869248406845,0.3278792888570933,0.3607718869202622,0.39812418323788357,0.43704800453739845,0.47597590843594684,0.5149038123344963,0.5538317162330456,0.5927596201315949,0.6316875240301433,0.6705357116991159,0.7052330626169786,0.7404651505639958,0.7793481587356413,0.8175444555789005,0.8290546162875724,0.7969076273848222,0.7580385567967948,0.7200534409606659,0.6873811866937475,0.6493038250080968,0.6105727759000404,0.5769855029741006,0.5405561921019014,0.5017591375631621,0.4675091560960082,0.43181489323094235,0.3943082903126981,0.36165839135202626,0.32901161124335687,0.30680951260597966,0.29537028932656206,0.2927889210077842,0.2865084152573413,0.28543078997364313,0.28822404929791967,0.2932906360359694,0.29165712028642365,0.2867515466700564,0.29459536095197947,0.30510357551090095,0.322353893969178,0.3333813910872644,0.33915773085827283,0.341737989681152,0.33902952863582725,0.33391370787185093,0.33656417333436195,0.3416073276514725,0.34295203083854997,0.3491856026540695,0.3496098735966936,0.34497905063061973,0.34879167017873625,0.3488086907675795,0.3430724282843688,0.3482723886379243,0.34377962801883,0.3273256520972684,0.31831288525111734,0.3240244129689379,0.3477813574739551,0.3605730332876059,0.35916809947245965,0.3634903184584789,0.3555385575597204,0.3302640465242742,0.2948670987554559,0.2617732202699504,0.22339274062453185,0.1899317995426103,0.15352059718688016,0.11963116263878637,0.08366035879147471,0.05216466346536974,0.050799173093279415,0.08367456963136777,0.11688835961878763,0.15376293005167108,0.19268306035672567,0.23161096425527383,0.27053886815382333,0.3094667720523726,0.348394675950921,0.3873225798494705,0.42625048374801977,0.46517838764656905,0.5041062915451174,0.5430341954436667,0.581962099342216,0.6208900032407644,0.6598159097002371,0.6976465337934022,0.7302987592405267,0.7685513914275593,0.807478739688798,0.8464066435873464,0.8853345474858957,0.9242624513844447,0.9631893811023525,0.9999999999999999,0.9968900846146657,0.9593076070410392,0.9213230170784678,0.8886507628115498,0.8505734011258993,0.8116479036484133,0.7739611714344451,0.7411907368032261,0.7029127906577101,0.6640061604231021,0.6279722338166301,0.594033069936574,0.5552538543183995,0.5174333816212325,0.4847070375097017,0.44682332834053107,0.4137130006892492,0.38160934147857273,0.3556091938849496,0.3344517308979226,0.31952742249011135,0.3176179479681195,0.3185327566086108,0.32056672467183966,0.31516616956185495,0.30865598031392294,0.3022396444464944,0.302729782847209,0.31265310394206713,0.32474240856346104,0.34286406851817375,0.35584955133513685,0.3661450813620569,0.37374808722213315,0.3709761713794114,0.3660411067189645,0.3633910373144583,0.3587762313138435,0.3647494036322435,0.36828779391748345,0.37378821901853876,0.37734905570851274,0.38200409740504815,0.3867357505773815,0.395358514651423,0.39387372286987243,0.39182714893517356,No
0.0,0.004265523680676786,0.02716593292270053,0.08301198163632462,0.1278812964486118,0.1724615684298776,0.2211416541224831,0.2694111489844002,0.3074749032398767,0.3132105885845413,0.35888092252675063,0.388387747885222,0.3892872191674881,0.38956310570840813,0.404525099107651,0.3750942237440551,0.30900203500327406,0.24209810245803043,0.1766050873572973,0.1374751414089883,0.08712560294642202,0.034352879312616214,0.015525129292999651,0.014125749684278155,0.07502512168596231,0.13242286247532942,0.16596560719461584,0.22997684573974553,0.2950279106577911,0.3317159384748294,0.38333260461857366,0.41484563868644253,0.42169200118545547,0.44889647100975916,0.4914168636200196,0.5149398949723327,0.5477253303779759,0.57423544366288,0.5943513449658218,0.5953880481987728,0.5953881766821767,0.5946682707636026,0.5770673829977757,0.5864060110393634,0.6140504107978804,0.653081673696362,0.6757221393156119,0.6869449138299575,0.6869758403150072,0.6803660366079107,0.6584388325770383,0.6418393994948066,0.6566326333483294,0.6446863363350883,0.6411930647812287,0.6411883908908123,0.6411883908908123,0.6411883908908123,0.6411883908908123,0.6411939961221726,0.6451578052979441,0.6734341935351957,0.6869778530237189,0.6960878018594046,0.7265903687039241,0.7405084622675266,0.7554370669617176,0.7514653880571713,0.7332013278361837,0.7115172923869815,0.6878592756801232,0.6674138385522044,0.634506575295052,0.610957330974049,0.6056012573568239,0.6182709687667165,0.6271778470520917,0.6568103303787471,0.6444541710246443,0.6483010828198785,0.6639563495305514,0.6779454901846615,0.6767575527677949,0.6637686136664014,0.6355045317277885,0.5726440330635754,0.5247360343888636,0.4747861039691519,0.43751860351058935,0.4376063702530848,0.47539920854328077,0.527442766755144,0.5941187912820118,0.654546843983761,0.7054638405768276,0.7719351129851946,0.8338482384075414,0.8834849143985117,0.9496590692446336,1.0,0.9700229471493982,0.9253213324140646,0.8752978222263108,0.8088161084169125,0.7544542737530793,0.7027810861022394,0.6758799923364149,0.6606367654111618,0.6392668740492717,0.619718720008323,0.6097947583226682,0.5956096246453408,0.5936229747000898,0.5745642011176595,0.5724112904381444,0.5586416608538567,0.5365352858709564,0.5267635378375304,0.5266878553692238,0.5266878553692238,0.5268555264441606,0.5393934892417689,0.5544269013741863,0.5831514351637823,0.5960997134952137,0.6132284811778241,0.6021722931892568,0.5691849943802376,0.550036789037645,0.5495869089096304,0.5450915261750442,0.529250026776245,0.5467845258092847,0.5393528571454351,0.5173366779347153,0.503977063717874,0.503787748264906,0.5035369166814521,0.48861661262835465,0.4809041292219902,0.48311890359527476,0.5023855622167108,0.4990176816677412,0.4816839428175803,0.48108788801346414,0.49461060129673706,0.5037578020998823,0.503922387445821,0.5128758517135878,0.505471233960106,0.5044679651417114,0.5216470618708473,0.5292057229309783,0.5506525866695293,0.5709958619015914,0.5724395396400732,0.5598738267072307,0.5273542679147236,0.5049495824967929,0.5091677119347215,0.5309892232641751,0.5534304790937052,0.5865560751017056,0.6275729415711422,0.6346908561550269,0.6185749989405998,0.6182883030590043,0.6174641391267817,0.5989758258723183,0.5829246218956707,0.538763943056837,0.4734410816869037,0.4232998872739584,0.37100777058151513,0.3288654988210764,0.32444364393003955,0.3565717472203018,0.41852683103744903,0.47687022556446745,0.5296007077411686,0.594416241070979,0.6424185022845337,0.7072847974446743,0.7740047164205657,0.8278824474360342,0.8851227494091667,0.9458067007337654,0.9370915079504458,0.8908866595076868,0.825825834527234,0.7590337293047513,0.7062080493442626,0.6622787941382651,0.6282783295617103,0.5986377686849469,0.5768728505871525,0.5719139956667547,0.5549596703077215,0.5495972930686768,0.5495660342861237,0.5416067708998451,0.5266924122128298,0.5114768202738649,0.48925243330490975,0.48000361350099885,0.4610162760036993,0.46534773810543584,0.48058469020656513,0.48108236770806334,0.4944490811212341,0.5091283645086908,0.5261069344388334,0.5267960044045767,0.5375928570618345,0.5594575526935159,0.5575110989783822,0.5499347214276176,0.5663862364811898,0.5724776104155835,0.5679003332414241,0.5506727894089751,0.5636519239164186,0.5689645523637035,0.5477962778510244,0.5281824452024777,0.5266880802151794,0.5266878553692238,0.5267473045540076,0.5358393729632462,0.5342801362698126,0.5087067785217134,0.5250301909438391,0.5337961859416671,0.5492504901184287,0.5510823531575202,0.5693571251662477,0.5724948179840466,0.5771153783698537,0.5947030170106484,0.5953881766821767,0.5953879968054117,0.5941692716718996,0.5748980312250405,0.5804130538294348,0.5815682613851676,0.5414747903377766,0.5227601702713116,0.5050728049756223,0.5169843148086763,0.5391448273133843,0.5623253791994824,0.6017162944140608,0.6026990541964556,0.5984169186296056,0.6173736721277043,No
0.22556552456922496,0.2422313233624278,0.24231184892589042,0.242746167713892,0.27328151894578845,0.2520669317864339,0.24159276325419654,0.21434126136028375,0.20193067808829923,0.22091932572486606,0.24206537124695782,0.21975849083699828,0.20190696428085442,0.2018649446897589,0.2018644241450085,0.19760295564365293,0.1644176422080763,0.1621223950762838,0.19383503368799904,0.20185599623931605,0.2018321372016425,0.19095368160426407,0.16168994487585397,0.15205827464399135,0.12131296998272934,0.12097113621749944,0.12131296998273022,0.15202363184528433,0.15026517458616873,0.1212558625209903,0.12097113621749944,0.12097137958907034,0.12491583973209508,0.15870689293220064,0.15493920082747614,0.12254373765802118,0.10267417271745671,0.08058076656420798,0.06493588321968335,0.040247839125250984,0.04007732774523998,0.04007732774523998,0.04007962625453043,0.052553644415763934,0.07980514630967583,0.0902919339135364,0.11996671260066538,0.11883496047655928,0.08391037406830915,0.05023238025931498,0.04007930175910168,0.04034063875057825,0.06872639902395417,0.08048408325089351,0.08040972496880183,0.05835781885510105,0.04044690423613062,0.07049953876779202,0.08050079383204789,0.09258072538627804,0.15850005453224458,0.22767064321708652,0.2943423644208636,0.36678968286720437,0.4494862178116934,0.5257343043109985,0.6042062320229835,0.6701501320048262,0.7537749087026091,0.8006678884852167,0.8404525693157927,0.9019752002446921,0.9276578553941262,0.890274650537866,0.8150166638314751,0.7197416852126803,0.6551052735805998,0.5605732806164783,0.4622322273848205,0.36562232118738525,0.30029600368622233,0.20765345708640215,0.1096330413005786,0.061629504884016306,0.1066973562567668,0.15222141527559074,0.16140215987695683,0.17350741216153232,0.20110303938523444,0.19848952551557186,0.164959187627451,0.16846815944686178,0.20068653657821844,0.22556255035087158,0.242216868980214,0.23222131263357149,0.18619745036090585,0.15310821746320258,0.12176871082920648,0.15272320204793033,0.16140358607141714,0.16141804045363006,0.16141804045363006,0.16141844607291667,0.16576778757972033,0.19972716850105865,0.19472121822159583,0.16266245322494033,0.16069703485064757,0.13371790232608038,0.14984414847348493,0.1613797270337436,0.16141804045363006,0.16141804045363006,0.16133384426898978,0.14157329710309607,0.12106520701662227,0.1318996730375348,0.1605353018932023,0.1612226669623409,0.1384777374021171,0.12100601737587802,0.1210988170012044,0.14350802191620815,0.16134287885518983,0.160009669781509,0.1277513343015464,0.12478220430050513,0.15848590621540026,0.1614176010327375,0.16141804045363006,0.16141788496623732,0.1599692365421479,0.12761613047538134,0.12116438791866457,0.1469905265798106,0.16135953861725127,0.16141804045363006,0.16141804045363006,0.16141757399145096,0.15804262127944302,0.12451079612060223,0.1209712173413573,0.12097113621749944,0.12097056159017594,0.11582239477079526,0.08145410519695417,0.04609518648005739,0.015590461701096459,0.0,0.0315387238541156,0.06414753891222347,0.08045655359204051,0.0805242319813706,0.0805242319813706,0.0805242319813706,0.0805242319813706,0.0805242319813706,0.0805242319813706,0.0805242319813706,0.0805242319813706,0.0805876668706178,0.09957861301647597,0.12087957850953313,0.11992793564006021,0.0964149686716329,0.11960430726636329,0.1434005779953269,0.2014331656524515,0.2654554380553149,0.33000566898354045,0.415312136058299,0.48853645280308466,0.5716110333304254,0.6474811486104146,0.7279099306025536,0.8064240867341699,0.874790145107224,0.9065355172823075,0.9367952567697237,1.0,0.9978431653594502,0.9174025974463955,0.8520752986293667,0.7564633786569317,0.6581712112878089,0.5726864386491437,0.5016581860936578,0.40354431228285836,0.30520298863834316,0.20835103059077742,0.14726940503703378,0.15830328628757862,0.19972876349948088,0.23339467849942253,0.240482856167354,0.20739393516599858,0.2228548888178361,0.24187238160310365,0.2178237660238871,0.20223452118065044,0.2336170105201898,0.24229739454367571,0.24163127656226635,0.21472771281944159,0.1980485931714746,0.16490101325871986,0.1885219418839963,0.21772878607821067,0.2299352670517596,0.20212111726238025,0.2018649446897589,0.2018649446897589,0.2018649446897589,0.20243428477524716,0.2340164761044905,0.2300599472714815,0.20211487119209348,0.20742982265032595,0.24052145409612535,0.23317346193169453,0.2022139168877075,0.2018649446897589,0.2018649446897589,0.2018649446897589,0.2018649446897589,0.20194265644444176,0.22169321565011035,0.24198817538941508,0.21898460091175398,0.20189268741542055,0.2018659452173326,0.20769985172465422,0.24006117293270268,0.2158906163656713,0.2108612106933645,0.24006117293270268,0.21008483296982927,0.20186664829076317,0.2018643835830778,0.19693802823971396,0.16401259859658435,0.16146006004472557,0.17931121478318968,0.19961426869657206,0.16590280211688402,0.16141850015548798,0.16141804045363006,0.16141996038492046,0.1711856545016195,0.19961426869657206,0.16886406584974356,0.1613794871590155,0.1496202074962154,0.12123523142012438,No
0.32844426825249995,0.3417445239557977,0.36650180557749046,0.3840759886082683,0.38494292899855687,0.3849430553999449,0.38493102130638857,0.3797071180093883,0.34699192694888037,0.3025626028783668,0.255232625535343,0.21235288880799397,0.16655635436294647,0.14510614116059228,0.15713431218159268,0.20020163403677138,0.2545374924819246,0.29790550593549314,0.34863009197837824,0.4035144494164631,0.45840744737685357,0.5133004453372436,0.5681923609191712,0.6213541062288241,0.6536177439973829,0.7007014417584791,0.7555497516411505,0.8102732971118538,0.8557491409410583,0.9041384354522837,0.9589689236424879,1.0,0.9697792274311747,0.9249304668676754,0.8705558947757175,0.8269827300668049,0.7765720696273681,0.72176734734856,0.6749559150976916,0.6280738670112975,0.5852160438508345,0.5509963814457928,0.5099906433149455,0.46528105805521713,0.42856877794174597,0.3944018315428153,0.37013075774565873,0.3544390226759826,0.35828210026113627,0.36670342356918084,0.35561846428855226,0.36750368721249993,0.36815881932015593,0.3558848005385382,0.3602599989661375,0.3573526180341169,0.3258594744853962,0.2961565575486449,0.26297401748819516,0.2358585625074312,0.2160547624532958,0.2027445284641538,0.1848608812238819,0.1756582624467784,0.1757520621232893,0.18558106257509088,0.19175913507810893,0.2007625071631205,0.20772643932720225,0.2071557390566392,0.195437303409971,0.20361213369029318,0.20059334136319196,0.2030905589424119,0.2077755846990912,0.21335896251452358,0.22370820005286518,0.22871274080926707,0.24032073771627305,0.2528459434357231,0.25607663549949855,0.25608032140777537,0.25608377850413566,0.25866572532936605,0.27064075252370845,0.26109445776695583,0.27116836234996144,0.27217527745586567,0.2667642436953659,0.24168149887751866,0.2246355136751519,0.23193989093875045,0.24563790174232425,0.27084831043609814,0.295910043365593,0.29083731152822523,0.28829944221286263,0.28829600490581786,0.28788477849698424,0.27287568898929093,0.2408994878768831,0.19112767857873525,0.14883086146518876,0.10050563952337876,0.05579398075071573,0.007597425918692835,0.0,0.025896866449616418,0.07021523441973576,0.12494353916868439,0.17973564485223292,0.22589193042854339,0.27355579504457816,0.32840768926122266,0.38330068722161315,0.438193664867494,0.4927801102270153,0.536895070562009,0.5867772107648332,0.6416578352745419,0.6965508332349315,0.7514438311953215,0.8062631949666965,0.8443038870332025,0.8103700906763054,0.7556762291040409,0.701661485580781,0.6596371368116487,0.6071017554767817,0.552389680593341,0.5078888005354147,0.45850507547294583,0.4051060647021485,0.3640287274159961,0.3233011115219626,0.28417490557027714,0.2564560347069511,0.23544824200047554,0.2234117446040722,0.21055086552996682,0.20776051051817745,0.20759977931372475,0.19727433110849635,0.17987959481950888,0.17534991083760865,0.1644831879412343,0.1556522530512252,0.14379898769779542,0.14799698872880862,0.1591937405157271,0.16338059682567696,0.18111278603945324,0.20677913714670915,0.228381926364146,0.25368745859457187,0.27131223882404276,0.272638940941873,0.284441786187843,0.2882890611691389,0.28829600490581786,0.288298512115019,0.2904127347831098,0.30337581160270677,0.3044036028807331,0.30441494595339336,0.30880253416619396,0.32019223881345127,0.32051168840386035,0.32056381584880844,0.3276147622101582,0.33651087440195004,0.3366195301528814,0.3366192592927635,0.3355518847333241,0.3225638123650483,0.3205140175092187,0.32051168840386035,0.3198501966867986,0.3034378975961065,0.27822919107208444,0.2722636956283977,0.27884040785455655,0.2981406046412336,0.324391300636349,0.3364534914700781,0.3366195301528814,0.33661767677308063,0.333733812600411,0.3210578456167683,0.30079749247618537,0.256237150368829,0.2093104345908654,0.1616343931483204,0.11574743459766434,0.07242130209317876,0.04982089215434815,0.07264859119835432,0.1228605967669889,0.1668058271952093,0.21686475175625075,0.2717459871087837,0.3266389850691733,0.3815319830295625,0.4363550152204878,0.48283516469150456,0.5301580563614716,0.584996133122103,0.6398891310824921,0.6947821290428817,0.749672698951334,0.8024801088268614,0.8443988711772197,0.8976682694034976,0.9192666634801299,0.8794263753684355,0.8248450340984732,0.7705003666960719,0.7276026254796952,0.6762692387885973,0.6213906994093632,0.5708844864831004,0.5273278765947427,0.47385974484719773,0.4319917714993897,0.3865872958462262,0.3447882444457986,0.30387204922534394,0.27168837051754213,0.2509316410238678,0.2402156552851027,0.23530403283347523,0.22352334266623064,0.21083971399516255,0.2077606891620074,0.20682558645117588,0.19392360986168056,0.19165189698583962,0.191461999743336,0.18088653686342404,0.17556724712046146,0.1756510425727118,0.1847749168488395,0.2030876802153685,0.224084334180223,0.24989617324012858,0.2679698607030043,0.27672242399266667,0.2880161656828344,0.28829600490581786,0.28829600490581786,0.28829600490581786,0.28829600490581786,0.28829600490581786,0.28854484290511584,0.29857597210521725,No
0.2495168856374379,0.24117890424490085,0.2544102539287998,0.2679033227943135,0.2679956593061741,0.2683840380793878,0.28480598609937413,0.2648267723877442,0.2415913077611771,0.25326648123809914,0.2678847803403146,0.2679956593061741,0.26799179152158814,0.26256053113723965,0.23589453937765548,0.20772193787132132,0.17021322160701757,0.14224466913913503,0.14674566196483152,0.1763327280893554,0.21206275446806622,0.23659753490029356,0.2185061752305426,0.2145280932810092,0.2342679160348684,0.22885448106454032,0.1667920348710199,0.10301813423918471,0.04127770087275451,0.0,0.01955398478000525,0.08339172414574492,0.1667829347053269,0.23090741538491866,0.30928533616770615,0.39362866603967017,0.4705986957105832,0.5359723970794104,0.6197273119492985,0.6934259855490215,0.7300166172110982,0.7778614072896097,0.7768643486961349,0.7179916417647005,0.6481644521928587,0.5791386733370256,0.5165069611619408,0.45273577801688347,0.3961807795067509,0.3312505608208314,0.2973411881080068,0.2949906869125556,0.2939966615622689,0.2733233499907568,0.27776075811009715,0.31431548510748275,0.32585356676089283,0.3478604656865727,0.36410179795261755,0.39834032570017097,0.4029594273851247,0.39740030903941825,0.37067695914038445,0.34959755662929837,0.3409638758362723,0.3224169814662341,0.3219838873241523,0.32198468755544596,0.32412421297178007,0.34585542823381665,0.34897696103246023,0.3489780013331414,0.3489562457752111,0.3399033367020605,0.3360335595502084,0.33729802097241457,0.3222283992584005,0.32186642877784166,0.30684306609065537,0.2878939154839877,0.2512124561721194,0.24103801756715448,0.2425079181457246,0.27203229288482245,0.3174847170394317,0.32198204679217657,0.3219838873241523,0.3204282515443664,0.2873297312673797,0.22243170172361815,0.15903902989138974,0.1090725968554569,0.08099811989648042,0.09934760429659661,0.1614955120951178,0.2262590246394014,0.30335871077787324,0.387559636598934,0.45824087371766087,0.5295298726921569,0.6061892030488041,0.6713324106281444,0.7341539449862395,0.787561655076292,0.8430773055604854,0.7891624759194302,0.7221507766981929,0.6498202801208359,0.5814992310127822,0.5183524175935093,0.4542392579085943,0.3887757717412885,0.34369213211277483,0.3194799786714997,0.2972253655062156,0.29685419467499763,0.3132785033079326,0.29624837842721874,0.3045109159546975,0.3218190001660979,0.3219909986532157,0.32699275908907577,0.34428420255161196,0.32386845280443044,0.31694601699440916,0.2949837205701451,0.27072815835511754,0.24421986820859143,0.2328021614319873,0.22724334659813739,0.24089963848648654,0.24129660503971895,0.2573619253886701,0.26795117428850457,0.2679956593061741,0.2679956593061741,0.2679956593061741,0.2679960927647915,0.269557631258607,0.29066973933118057,0.2948841628257233,0.28074024185931723,0.2666901893669227,0.2441959403862768,0.2327324713334482,0.22856246120968393,0.26914011871296317,0.3094101855180842,0.3286816199416638,0.32902128249946383,0.34677661515214275,0.34880191704330166,0.3287276801619745,0.2689244337846075,0.20680981675377375,0.1366026655678576,0.08116792800480965,0.03933151276833691,0.047399903771931484,0.10140555042081179,0.1693667552458029,0.2534203875471963,0.3238220106917167,0.39542473550454016,0.47934915153760205,0.5463954069916381,0.6209932413734931,0.6858526793671729,0.758938134879334,0.8217605277008051,0.8988623882564148,0.962743602662183,1.0,0.9275039344039762,0.8586010009457388,0.7856024909661121,0.7036817505366333,0.6414145914254288,0.5602573714535168,0.49550409572121357,0.4229602070341727,0.3593946858913952,0.2918059867831184,0.2429520213710079,0.21439528185762935,0.18636879354421332,0.16218022097981777,0.16707298759756473,0.18625814393451812,0.17254241046387087,0.1601120717796105,0.16008096543605,0.17195207617189645,0.18689705502025156,0.18701331727920767,0.1869251677730892,0.17368618315457063,0.1601723403202584,0.16001920327021857,0.16001926328756522,0.16100143617861917,0.1880778731656534,0.23516187001780775,0.24099839772076326,0.24100154529718498,0.24100154529718498,0.24100154529718498,0.24100154529718498,0.24100154529718498,0.24095048069906344,0.22996195655394924,0.21335101525462186,0.18736540859135165,0.155027109349553,0.11852689779218473,0.12624791435847005,0.14606633450064344,0.1867688753844794,0.2195344265479129,0.2548510230694152,0.2465461994828031,0.2350529755602322,0.22464313458135088,0.23303768860139673,0.1849867748626952,0.11336827263956817,0.05686443312875511,0.006314885921576696,0.000803645550072396,0.04351391518086967,0.10968341304814544,0.19310964247206552,0.25731291861213546,0.33553862200296436,0.4199037126508749,0.5042726110660238,0.5862503419647611,0.6383469614997264,0.6798876487312056,0.7405284459697485,0.80599730866461,0.8734638459028137,0.8903162338752333,0.8249722087716247,0.7419955382380481,0.6788798837782153,0.6006010546251765,0.5386978156997255,0.46624049212129215,0.4029126475041904,0.3446368932788486,0.2969853583705868,0.2693898633165839,0.26191241211184924,0.24171335378341308,No
0.0,0.01374327533625519,0.050368320113899356,0.08119414431108285,0.111949419622277,0.1469425792244179,0.17864411713499795,0.18436174813682182,0.21326144583146434,0.24962269322435926,0.2698360717799084,0.2867540276377767,0.3018397969412603,0.32342679771902016,0.33908887320261893,0.3472078807797212,0.33472573012584794,0.33094615159575413,0.33530578592655047,0.3275118534616146,0.3145264812862014,0.302050552108565,0.30621573090064746,0.3094003879879672,0.3025553328970827,0.31360820091983976,0.31467913493915844,0.3146795011213155,0.31516234001180843,0.31998079946175695,0.3148523853704459,0.3212436817601172,0.33884919331101493,0.330939089284052,0.32838541536436994,0.328411191410511,0.333797281544129,0.3523982818471896,0.34863259077359343,0.32688762675157257,0.3181198366662401,0.33646950075565396,0.35173735166514897,0.3462929381035402,0.3412916037285316,0.32609374275132286,0.3159874406736862,0.32697886871269377,0.33826902737177234,0.33217723003327215,0.3283943777808225,0.3283825740761146,0.3283825740761146,0.3283825740761146,0.32833281557281424,0.3192032440649881,0.2978363381188087,0.2852556776664765,0.26428685772732274,0.2716852113565986,0.29766748419696976,0.33195145964431827,0.3603412044910912,0.3727080218701069,0.3756030921396998,0.3695079773582526,0.3628818441388444,0.33285600061786624,0.29224636624555744,0.2552208635295048,0.21714971368415226,0.18240903046211399,0.15859586136766213,0.15746436278693166,0.18748214545567965,0.23036927437779298,0.27631059867097774,0.3222564593225692,0.3682023199741602,0.41414818062575165,0.4600710677199791,0.5014105087871372,0.5384242048205756,0.584228471809713,0.6301743324613036,0.6761201931128951,0.7220659949137826,0.7676406775758147,0.8034742084970556,0.8462057026067038,0.892146344948447,0.9380921729052041,0.9836007898972037,1.0,0.9689322709084718,0.9245036504650748,0.8868958355777177,0.8461693164410775,0.8011111738592165,0.7662533120885953,0.7220641875211649,0.6761205592950521,0.63174133029931,0.5968005259492584,0.5519856537381367,0.507772158468319,0.4727630031588621,0.4315777427054699,0.4004697464942266,0.3660841419856675,0.3356731349155959,0.3168045038791911,0.2949309776972746,0.29282310636192843,0.2911828052476326,0.286431165762822,0.2753285707139792,0.2735735058641531,0.2752389271361757,0.28637470541967813,0.29110276606623753,0.30612477516514636,0.3251749915029696,0.3364338922688259,0.34731555998911334,0.3552459872519962,0.34526555972492146,0.34101793007986414,0.32978264132618573,0.32869082939350047,0.33834968966245693,0.3364004954676467,0.328518980912027,0.32897580989215225,0.33944604118094723,0.3346080144638752,0.32910789580186295,0.33905061431029226,0.3311040674172845,0.3395947238498658,0.3471073688682549,0.34215685299640564,0.342085725498519,0.342085725498519,0.342085725498519,0.342085725498519,0.34207709743146797,0.33794864826844195,0.32968848507101267,0.3403534951150027,0.34208533316049383,0.342085725498519,0.342085725498519,0.341765854084366,0.33197677350302435,0.32824959931717945,0.31752986858487375,0.2948968948204116,0.27579079281278185,0.2774250907300746,0.30293600735213566,0.32633142966692796,0.34832669550782125,0.3556175266726922,0.3458653911425995,0.31151621320110845,0.26905127686741537,0.23324708403805738,0.1936591625691526,0.16381715935921948,0.15328089087421803,0.17617748292471447,0.21057866179584384,0.2521378767675797,0.29807442740067946,0.3440202880522709,0.38996614870386104,0.4359120093554525,0.48185787000704394,0.5278037306586358,0.573749512842622,0.6191918597235846,0.6546619699386604,0.6978871942981208,0.7438298824941878,0.7897757431457793,0.8357216037973707,0.8816556607442547,0.9238120869306661,0.960062723960089,0.9885636601417929,0.9540731421015063,0.9190198550286488,0.8752164713328434,0.8293801073904676,0.7915728046086388,0.7510503486607338,0.7052543139139771,0.6676454128192462,0.6269188936826073,0.5818607511007454,0.5470028893301246,0.502894899033989,0.4643450824305231,0.4249044902074819,0.38943226656598906,0.3587552243515604,0.3316014629937678,0.30929537703091414,0.30001992177511605,0.2835944986177048,0.2708612158033321,0.2602807656245232,0.25988706998693045,0.264173488868098,0.2649674017879149,0.2609411436141209,0.2737456370456548,0.2970641377224026,0.31570992565313327,0.32973201219581094,0.3437345131166101,0.3551106855327495,0.3480567487888888,0.3421254538348677,0.3420784613343488,0.3383735958488212,0.33166282638410305,0.3415969435626178,0.3380462380670002,0.31936086637534844,0.3247252286177553,0.3410568157718137,0.3420802456299885,0.33886622565329994,0.32934704673241466,0.33952723430294585,0.34208323499443516,0.34209752920322734,0.3457971923412311,0.3477799236450778,0.33735410103010466,0.33660814919140947,0.3419148264390164,0.33280492847493415,0.3284027551703148,0.3283825740761146,0.3283141775581728,0.31835783527095085,0.29735214657650433,0.2958287722067263,0.3095473918014413,0.28799772001126067,0.2574168334231808,0.23518892141722292,No
0.17096064111066323,0.17337079815734757,0.20235483142466482,0.24769114902497513,0.2511417228628847,0.2269107395633716,0.20271975401551767,0.1969998764091736,0.17324700259833836,0.14936569926700205,0.16626936211184784,0.1673998316369918,0.14476083810811158,0.143281473959183,0.14373991526262397,0.16565467592505456,0.17096001102410163,0.17516221233278362,0.19728837043103908,0.18980931506492826,0.1712145721187932,0.1773522915136505,0.19790794120731903,0.19863980826214167,0.19902568954522426,0.21978716633916218,0.22619101468892122,0.20960552452789827,0.19864706685931655,0.19863980826214167,0.19863980826214167,0.19863980826214167,0.19863980826214167,0.19862845088318704,0.19164830772936448,0.17304065049709916,0.19544665114127557,0.19357775168118252,0.17145194491450422,0.17096064111066323,0.17055199998886827,0.1520088175686931,0.14328718674399799,0.143281473959183,0.143281473959183,0.143281473959183,0.143281473959183,0.1434079531694863,0.15930785883906928,0.17088720316143569,0.17096064111066323,0.171243124364735,0.190451370846195,0.21366777936884418,0.23837664261684477,0.27904365990583013,0.2936682522218428,0.31607237642825314,0.33636438182715533,0.33703507274105515,0.3354467519664617,0.3074866307286346,0.28197989122261724,0.2644490833742186,0.24198627201502187,0.2185525192681661,0.19889959582309746,0.18932324536586886,0.15500939073558406,0.14058805528533824,0.11764627686810947,0.11560230680770545,0.11560230680770545,0.11560230680770545,0.11560257564463772,0.11924454804314788,0.15137794782737135,0.199496802050251,0.2563792359688959,0.30472063783977976,0.36176658978433895,0.4108256142294131,0.44348079611524494,0.43038394001311797,0.39896540594402463,0.454986564627176,0.52641946075566,0.5845809054956348,0.6419034156013312,0.7049228463100539,0.7363327823944701,0.7830286539946405,0.8066090864873869,0.7933654836588753,0.7453835667729702,0.6829649789145069,0.6114393089565491,0.5399086655153411,0.4706480073578456,0.4221972483527727,0.3529918697892116,0.2814602182095074,0.2099285666298023,0.138396915050099,0.06686646483543779,0.0,0.019956038578516022,0.07044413335265887,0.11775024358923325,0.14226464191865684,0.14091810538529526,0.12169211048186934,0.15049266189258415,0.18669545682915523,0.21974194946487913,0.22631326101510663,0.2200016890197114,0.1986432141742016,0.17978530527044256,0.17096642110470928,0.17096064111066323,0.17096064111066323,0.17096064111066323,0.17096064111066323,0.17096064111066323,0.17096064111066323,0.17096064111066323,0.17096064111066323,0.17096064111066323,0.17096064111066323,0.17096064111066323,0.17316592714577528,0.1961839301181092,0.19863874971672058,0.19863980826214167,0.19863980826214167,0.19863980826214167,0.19863980826214167,0.19863980826214167,0.19863980826214167,0.19863980826214167,0.19863980826214167,0.19863980826214167,0.19863980826214167,0.19863980826214167,0.19863980826214167,0.19863980826214167,0.19896582752842829,0.21877584513086124,0.22619101468892122,0.21121131360738143,0.1986431234906263,0.19204670699324033,0.1713428943927271,0.17096064111066323,0.17096064111066323,0.17096064111066323,0.17096064111066323,0.17201655082598144,0.19443710257649904,0.20056125393030744,0.2234414785287484,0.23753068142438138,0.25995261283364,0.29420502454821396,0.31739929897721364,0.336546196414484,0.33703564401953656,0.3369151606381484,0.3206616557004933,0.30654033938686,0.2836406217896279,0.28104645076582635,0.2611196970951246,0.2540027463975667,0.2539901802173299,0.2472211647128697,0.22669034469263138,0.226318975413621,0.226318975413621,0.22677560271655306,0.2489258745312526,0.27309154003596525,0.28616448410209916,0.3306472669907441,0.3837128833917882,0.43339281820988784,0.47991397844567896,0.5022895984699867,0.490746370254004,0.49624909752327895,0.5638941686195942,0.6299156569712094,0.6790533480223164,0.7205175480092585,0.7675713807219511,0.8364125618012919,0.8849786184105746,0.9536645896985485,0.9994946785357977,0.9999999999999991,0.9611328720064387,0.8915076444152925,0.8425992497700605,0.7745835093107374,0.7030519249402669,0.6315202733605609,0.5599886217808585,0.4884569702011543,0.41704046695382857,0.36123123297502335,0.3015333191332479,0.23000953103381505,0.15919520195377235,0.1381525343817147,0.20209087336220755,0.2499053566281546,0.2807164738329835,0.2698785466195748,0.2544778510493222,0.27691418331739204,0.31214984800317414,0.33915956514028345,0.362745834913313,0.3453474051228316,0.31304787128669176,0.28908255377109526,0.26667184113000886,0.25402240250310903,0.2669799026857387,0.2691872320833504,0.23491861285469806,0.22632452017535165,0.226318975413621,0.226318975413621,0.22630373799902337,0.2190823061030729,0.19898396753351832,0.19863980826214167,0.19863980826214167,0.1984668527165141,0.18139109434992484,0.17096753005705612,0.17096064111066323,0.17096064111066323,0.17095860803136098,0.16494981568896527,0.14369819325091804,0.143281473959183,0.1432839270961912,0.14822913156432893,0.16989783971532724,0.16881122393884151,0.14568840496268098,0.143281473959183,No
0.05377674891756801,0.04327229962800727,0.05192366189919939,0.07095027169201007,0.09696419173212023,0.1356395077188952,0.18673367468317403,0.24089374994527013,0.31399381608816634,0.37439204577435614,0.4490131858053532,0.5191946626583217,0.5830859374153734,0.6605865138551712,0.732862166051655,0.7949345906653162,0.8703158157359763,0.9253097703576127,0.941078974839141,0.888533682891639,0.8287673455067006,0.7529569023823939,0.6751016283282691,0.5997493731419077,0.5395970666095753,0.46353622450834786,0.3856790992672656,0.3085277403881528,0.24683390338423417,0.17410816418194308,0.09864351236487812,0.07228532993133552,0.10633424092153065,0.13028220320517692,0.13117415753047634,0.13354683081674068,0.14447852021694052,0.12697796178750265,0.09400015864905287,0.0618416470010974,0.022410048111831227,0.0037167514724769646,0.04321505603346543,0.06453330883094655,0.06705719177299141,0.08436479046516432,0.07178534371931233,0.06642506298762685,0.08379465497989358,0.08067428612541416,0.07936802331991588,0.09800859228214476,0.10764116912382082,0.09026441112331662,0.07638712837296024,0.0652453892110989,0.06513581320068251,0.06181432587792868,0.033848055903908936,0.03938413161863741,0.032129600111697076,0.039790172991933215,0.04073977385937022,0.023077806686099045,0.033415453597937184,0.06203962207804281,0.06513850353927308,0.06839227108252066,0.08503398178566224,0.07111763821918649,0.08303693309189919,0.09748915771600641,0.13559105249618186,0.1866757858598107,0.2408177352634877,0.313914144558086,0.37423985803019333,0.43824905271244896,0.5049104896687275,0.582654440171396,0.6605124081734459,0.7380556629551052,0.8013846581534416,0.8702297579442089,0.9160602622506184,0.9115097139916557,0.8602912073275828,0.7868789324075154,0.7113250110574318,0.6512456575323071,0.5753166043663,0.497459523965162,0.41960196412156137,0.3432263120550698,0.2828020272486933,0.2080370536431606,0.1309525056280334,0.08138112238898199,0.10063162806392967,0.13290982776480442,0.15216017586745467,0.14077450361313115,0.13358806971377302,0.14873805464190015,0.12313667056192346,0.1086691040875083,0.08655629528770659,0.03669899349842254,0.009578745623667562,0.04041098578633928,0.09285796245575018,0.10571936041141772,0.08847495259846205,0.08372431059468832,0.07071529914428121,0.08631624606777111,0.08473749232495154,0.07024150732822321,0.10360206087253854,0.12361924172474703,0.10988304450816466,0.09842197957515664,0.08725759723061755,0.0871512794720255,0.08636085324990761,0.06976792381480879,0.06175590427678124,0.044360142149728166,0.04296684613434376,0.03067775974084963,0.034846492119163575,0.044822200671708945,0.07623720175405246,0.0864336227848086,0.0737420365033925,0.08503872269866619,0.07374179965651706,0.08595272780322327,0.087152100387895,0.08913629817216506,0.11239903777185578,0.1582131876581423,0.2269456984318654,0.2913676228422739,0.36061572527803554,0.4246645310085708,0.4915632263281413,0.5374885393183177,0.5946028841914792,0.6621474831547243,0.7340323422151682,0.7963358571862669,0.8674052940789148,0.9288041531243918,0.9787810084718389,0.9645597895366622,0.9154173439593922,0.8401240940270842,0.7778475297643608,0.7058145001762606,0.6279708849619459,0.550122665028999,0.47739507477706367,0.41575156155810067,0.3385498575662984,0.26081699525836743,0.19473078596380722,0.12795746557017074,0.09298756048005252,0.11070200183768586,0.13392867072335113,0.14266175367425893,0.14165454272391953,0.1366378815740812,0.12834043723839716,0.10534601591811121,0.07263813245252004,0.035110667987904964,0.014174266662684953,0.03464777057449009,0.07696163453127403,0.08710094837425242,0.09398397826643334,0.10228955301353082,0.10005398975690571,0.08808164275678054,0.06760321383934853,0.08222543206465405,0.0879896707282839,0.1039084329959854,0.09212571329257102,0.08719518087369327,0.09644326272860582,0.10815378960465694,0.09146945191472566,0.08617695529740654,0.062452439420663364,0.03441652968280584,0.03531004102059088,0.018395005067971315,0.0,0.006996033811926594,0.006734791880792734,0.011386584183796344,0.04168110464904373,0.0431476244519291,0.0494061658955669,0.06462190780001276,0.06514064066331127,0.06537491287276875,0.07926850575065103,0.10531099625324059,0.14568519685272685,0.20344158117720434,0.2648279966589615,0.3364605912706451,0.39847522348029507,0.4698334592032203,0.5321400152370153,0.6090489685265732,0.6716593363748258,0.7431279042764869,0.8165001754157002,0.877634241382407,0.9498455904386898,1.0,0.9881039147656017,0.9306826154042085,0.85833945905501,0.7805425072839416,0.7106781921512679,0.6465291856449094,0.568930031177687,0.49107801534831763,0.4166641079187885,0.3561762175533061,0.27950900378204,0.2016513864513323,0.12505140300057072,0.0764763498740435,0.09215197261837993,0.11051422596646443,0.1369629067910858,0.16408513303244865,0.15621222218715225,0.13371455005896582,0.13110293092479886,0.11886291726087217,0.0736147512388321,0.029540285775097264,0.03309816176017977,0.07818439840047375,0.1073333028965906,0.10916185734440909,0.10916232988841745,No
0.11987302787680365,0.10087723216045807,0.09196336997032217,0.08167654937283242,0.09188607495982826,0.07565942408658843,0.05710052218415429,0.054298687077611874,0.06380981513681494,0.07954080962316734,0.10892136533601837,0.1524260587476114,0.18748453899979944,0.22752799624416076,0.278079106208851,0.33010673077893093,0.3881615970897174,0.4413620230851545,0.4985033428713437,0.5603430235110278,0.6095530964172089,0.6711650696089104,0.7157514656215285,0.7312626164408784,0.7071986767574256,0.6632506311096127,0.6128402088330689,0.5821678199510623,0.5379370648256949,0.4766843498262028,0.42711527203924193,0.36584334756532266,0.299429762749404,0.24085962428241325,0.1889553253543621,0.12274868535303263,0.06302142778344999,0.024794176019194314,0.05194837518620288,0.07901917565151173,0.10760569282183896,0.12192630807111327,0.12247767360362749,0.1379049523896687,0.14471752308368524,0.1441417531186837,0.12446208637675493,0.09142417416991888,0.06029214444855224,0.05432861230635844,0.06692570630102246,0.0767980097854215,0.07688062947503527,0.07752254552296023,0.09460327010986713,0.09948883376350404,0.09829812794481807,0.08063634163257971,0.07688161956084949,0.07678803597250328,0.06662410176831646,0.05431839278798423,0.054263845106491626,0.055301167570114274,0.0796511014143122,0.09897834265305416,0.10030517435578679,0.11836937597416419,0.12042210644352913,0.10600681201107154,0.11510514589613585,0.0999981663256011,0.09948955398387982,0.0947989276345571,0.07755124606616315,0.07906850370038132,0.10488259440532888,0.12344662038668996,0.14260742478655963,0.15046300376938282,0.18061491402602092,0.18991571469142743,0.18996513031530426,0.1899519292881524,0.18333544086610987,0.1716104478258358,0.18297192332070455,0.16785239287917308,0.1673482301472502,0.1673735071830187,0.17565417200242006,0.19190805777615294,0.21817893439306157,0.2567611650120871,0.30225498425734054,0.36093016739680683,0.41077743630658814,0.47594326506151985,0.5220448651472371,0.5544892916588355,0.6076610964623703,0.6566357596083967,0.7184619977728848,0.7750421323541459,0.8289119464508103,0.8947633731724998,0.9454949215983892,0.9952432301533922,1.0000000000000004,0.9610551444736122,0.9103085968138509,0.8629006722753387,0.7977115780111617,0.7470173852684883,0.6874170097979744,0.6356987119931508,0.5771274741266699,0.5243800387178141,0.4666611216437464,0.40041704060378214,0.3460935787207817,0.28997156172165894,0.2235801683253733,0.157944595791625,0.10864110145934713,0.04696552250324881,0.0,0.03559157120553902,0.073786617295855,0.07687809743955532,0.07688062947503527,0.07688062947503527,0.076868685181946,0.07071436587980662,0.0533132230997988,0.03363134843931759,0.01258827660873596,0.009429374128485435,0.025065023455260516,0.03163376039957244,0.03164682913892758,0.03164682913892758,0.03164682913892758,0.03164682913892758,0.03164682913892758,0.03164682913892758,0.03164682913892758,0.03164682913892758,0.03164682913892758,0.03164682913892758,0.03164682913892758,0.03164682913892758,0.03164682913892758,0.03164682913892758,0.03164682913892758,0.03164682913892758,0.03164682913892758,0.03164682913892758,0.031651705667258945,0.03716830775679503,0.0538082677704832,0.046581300832146955,0.031886610539761495,0.03169420672441703,0.04304534493245882,0.06495672794444918,0.07673705870647707,0.07688062947503527,0.07688062947503527,0.07688062947503527,0.07687516728394961,0.0731114007087772,0.055080315499533405,0.0607930808026671,0.07659984258790153,0.08238408572531508,0.09994762062779339,0.12396282747141685,0.1572613594530381,0.2022138045862274,0.2502372827408226,0.3085956595754342,0.3573680092678373,0.41941181024715535,0.4678632799582023,0.5324673752789173,0.5833249535813736,0.6430985961479885,0.702500952380634,0.7536164763459685,0.819774888899024,0.8806615496323675,0.9108820778803568,0.9040563870582106,0.8612465978814599,0.8038612404056589,0.7558497748220065,0.6979611736927347,0.6532725193115403,0.6038780335928506,0.5499215907902868,0.49396591754897257,0.4276759735816733,0.3716351307932553,0.3172763576268838,0.25094487742351124,0.19334867079622065,0.1405703745361948,0.0745722194110301,0.052068572402888424,0.10051597538650903,0.14064601283544453,0.1636487493830665,0.183716474375462,0.1704111494037872,0.1673490002139948,0.1673408497831228,0.16286974285399447,0.14542794971510364,0.14095396129651894,0.11301945834558991,0.10613855988250886,0.13617329088825292,0.14564918956548478,0.16453418087815086,0.17221817728226174,0.18923287165754887,0.18320951472454672,0.17893597899664115,0.18983485796396993,0.18996513031530426,0.18996513031530426,0.18996513031530426,0.18996513031530426,0.19028604414493744,0.2054620840996444,0.21194972634161235,0.19507219435574852,0.18996655464928303,0.18996513031530426,0.18996513031530426,0.18996513031530426,0.18972625422330713,0.17528506946223166,0.1671674220419308,0.15355463852385087,0.1303357030418093,0.10292714427209404,0.09949840392939358,0.09952037804701952,0.10778526690554369,0.1373643178035362,0.15161170432120974,0.16421068709618813,0.14566944761940892,No
0.0,0.007236714623976237,0.045317430414368864,0.08675761561403483,0.12635570137471186,0.17051804727807163,0.20818664862718705,0.2211254574458894,0.26079082940287357,0.2545895732936141,0.25323682294320715,0.23320525050981855,0.17707921343932753,0.1206123604257403,0.0848451005398716,0.03592323514627793,0.011861493516614363,0.0172759423396589,0.07024618396893034,0.10711823969176137,0.15826381456962046,0.21147227037603988,0.24683296647434405,0.2856832370599758,0.3152496997009768,0.3424322285253605,0.3661835217647078,0.38574975017493296,0.3960702938627749,0.3962731241210138,0.39586784261083086,0.3841977285553746,0.3804227774436617,0.3815853749757676,0.4003354776027499,0.4119470506293186,0.4121342297583648,0.4121342297583648,0.4121342297583648,0.4119065589663431,0.3995197373665351,0.3796717769514193,0.3661075119313022,0.37443470037561966,0.4028824038423866,0.43549154528608813,0.43241741642400466,0.42800855404551674,0.42799533539571577,0.42799221078101635,0.4246368380082579,0.39430340802376085,0.3394454841812551,0.2931258882710659,0.23567092029197,0.17710169767167416,0.1316306301662995,0.11364247853861986,0.14583292610627074,0.19267797130209896,0.251221758057083,0.3102499511937342,0.3690659411465642,0.41813989101498494,0.471500973564567,0.5305016181029876,0.5895298112396388,0.6485572360284126,0.7059503333224382,0.7522926896803424,0.8097810939749532,0.866704730056115,0.8895778242669579,0.842974184335167,0.7853811111030105,0.7389796400378841,0.68243591088943,0.6355446345512408,0.5808305198608865,0.5345435163428265,0.48704103635668705,0.43883608036638133,0.41050268328980666,0.3907573329136729,0.3713748471854319,0.3632804874051172,0.35063338568267755,0.3464162146655063,0.3251995031429282,0.315831843221968,0.2962421569123155,0.2721876854854828,0.26119326424914213,0.25369011895920446,0.2611630023554574,0.2806154366897937,0.30388217824942476,0.33032234630499513,0.3539393261925001,0.3703149174866698,0.38902192509860756,0.3962303106828404,0.39589171907071474,0.38306255419940927,0.36653057041090786,0.3645518647439592,0.3645518348637644,0.3664653487892062,0.37906251350712017,0.3804313719660781,0.3859422177474734,0.3960416741562116,0.39970402283162043,0.411552596452025,0.40322994241474674,0.37620181121334806,0.36488453523650266,0.37756975576587193,0.4142940104907251,0.4496448642914799,0.45964509391980357,0.4598234225881703,0.46796616220445486,0.4701200730827715,0.45520790832843216,0.42172707624838646,0.3769522150503266,0.3218785829114279,0.275634055021881,0.2210821701519814,0.1747206675984847,0.1350836520616605,0.13857388426295092,0.18290005140370358,0.24074988807628372,0.28726759150433345,0.3438403774936072,0.4028663680330111,0.4618945611696623,0.5209227543063122,0.5795571140397526,0.6276917856137714,0.6821595030605745,0.7411744212155651,0.8002023240874632,0.8584459645855813,0.905053506223028,0.9613172942452044,1.0,0.9565255994504969,0.897803731489585,0.8490411653997207,0.79533382928485,0.7363227889029647,0.677294595766313,0.6189354337114539,0.5720568249520399,0.5198486943295557,0.47527485407566505,0.4343835880413689,0.3963267159355164,0.369296075308303,0.3517325591523668,0.3319265182627986,0.3103286382374364,0.294421176827127,0.2792704204541967,0.2569956958318036,0.24486388888047994,0.22134705472989769,0.20126677763003586,0.17683804075506515,0.16021249139306581,0.16185175417488118,0.17644105437483093,0.20060174831048228,0.2261764727817881,0.25860568742376255,0.28183484477427845,0.3107171593816549,0.335055769582262,0.3490129538391211,0.3580234913863869,0.3575595708496273,0.36449165251168614,0.3601256632924805,0.3491139123154041,0.34874624173509217,0.355294797163336,0.3645213502511444,0.37311904711404065,0.38036623137537084,0.3804281877121882,0.3855282711595178,0.39599566559146604,0.39578099360857744,0.37970452224019224,0.3578706770671456,0.34915497764031356,0.36658522470402266,0.40133465111473665,0.4378134729105905,0.4305249779378735,0.42799911219360043,0.42799533539571577,0.42797547845123995,0.4208694321626343,0.37338793137698767,0.32723342014835355,0.27984228859898685,0.2270399833838681,0.17935642681113917,0.1347737735243677,0.13751585100552255,0.18970810446905517,0.24409057062547035,0.292220932241829,0.35092902212247035,0.40994504570397616,0.46385928724171954,0.4992068388913289,0.5551970803999104,0.6053800642172154,0.6575560915110996,0.716543057166974,0.7755582283590727,0.8301820778270006,0.870407223578276,0.8496247774736481,0.8019109818243062,0.7441165161253029,0.6974416395392744,0.6414037047320065,0.5932245610773959,0.539558646788993,0.49307059446866264,0.44878957721135215,0.41171977269057836,0.3852887021340292,0.3657036404551537,0.35727581812993314,0.3487875152678179,0.34385191098220513,0.3291747237115872,0.3107139347854986,0.2990382073545854,0.28474038639874744,0.26980365875655954,0.25602666768081894,0.26475818343792046,0.2799887174028246,0.30684958282042496,0.3361830874631444,0.35995503540023854,0.38139522800960535,No
0.1027799184109095,0.11878029527155753,0.1285030249273702,0.12078097365479179,0.09877097450571037,0.07627706007690715,0.07451194256839955,0.06883952173428476,0.07013826213483121,0.06390211702897775,0.05957125615447678,0.05881709532934476,0.05039865139834632,0.056133630329514794,0.0447647780451379,0.035413656943640515,0.047147566535129304,0.05910154963967251,0.05955181358764294,0.055992143304500086,0.04498999345929544,0.044678068250572966,0.05308421326796253,0.05950414775878121,0.05898464367675782,0.047482675361635085,0.04445716054107596,0.03439916144259758,0.015147883795069372,0.002134366811766153,0.0,0.011000588601760786,0.013613246227868192,0.005413734795856495,0.016415227049554115,0.04065618045462527,0.0758190771925702,0.11496684926468559,0.15693510807449007,0.2049821539694996,0.24758113229832857,0.29608230397979796,0.3490017844029083,0.4004426374533048,0.44123940762466063,0.49279860828729793,0.5457117087957983,0.5935607698595162,0.6368456062892354,0.6895245944237991,0.7413563310760667,0.782284127178174,0.8333214145667389,0.8831205449815935,0.8965129371663765,0.8642632002384278,0.822372979159586,0.7698034965549958,0.7168729303069812,0.6654181789426725,0.6246398842723764,0.5730761738143948,0.5201459108294961,0.4672202304948434,0.41719489050028224,0.3757203589942808,0.3234192620069285,0.27048832510399556,0.21777972578382698,0.17426084708550338,0.12667360491844537,0.07384882859255049,0.03656211561072009,0.044060343273102376,0.05511787021091541,0.05954933145942931,0.06262386330148217,0.08300877887670799,0.08950780584116957,0.08880745157052905,0.07672115896938525,0.06339012159129398,0.05046071156780041,0.04458349114749316,0.044561442756642755,0.044561442756642755,0.04455479342224988,0.04099504451533553,0.029992894670130887,0.029560944420682134,0.027356485438100098,0.015596501951472774,0.024721299939614916,0.042696737640212756,0.03540643852254455,0.04320228634140966,0.04456109456565871,0.044561442756642755,0.044561667395987214,0.04559386109808061,0.057559547917183096,0.05909907860361718,0.04713919870648464,0.03152486059657811,0.022037693194108865,0.014652511812057956,0.020719819041913556,0.028885295277760292,0.017797633227948584,0.023637677203152574,0.05005004280426695,0.0892728769300466,0.132986474455707,0.17793862492444923,0.22751129357713262,0.26923926502856643,0.32165398765415265,0.3725585923531156,0.4135084822332957,0.45598050489143516,0.48941697607876744,0.5413185439259145,0.5942492224936013,0.6471687514429556,0.6959382768381257,0.7384137554486196,0.7907219387704454,0.8321410313609823,0.8529958666873498,0.8315598246156433,0.7898534770851393,0.7371629880028321,0.6850815408485555,0.6439131388768335,0.5933658271594267,0.5404361033089531,0.48772750398878495,0.44420862529046135,0.39662138312340334,0.34370945448638635,0.29077866359902727,0.2383921818590471,0.19681371183942398,0.14698051808504298,0.09410653988743789,0.05205613088400307,0.06130008977593526,0.07401069096546165,0.07455549431939801,0.07498441567696856,0.08703776749018122,0.10790496979515929,0.11735894866637997,0.09816266992105582,0.07992051471025396,0.06705685237764536,0.06361393533818971,0.07288990994004729,0.06122815359854927,0.059559395175316165,0.05955817089088944,0.05809643343077919,0.05050202924403635,0.05924898780950505,0.05955854154580775,0.05955854154580775,0.059987092248459994,0.0709892420936642,0.07504455948376965,0.08574814469742575,0.07818588035028329,0.07458453649199903,0.08044208596359104,0.08728560815530306,0.07548124783173726,0.06879664981661682,0.055712934440455,0.044767716653128176,0.03590498119381813,0.02043630773458327,0.02783636651686283,0.01873971644867156,0.014750205939328076,0.024093234251974405,0.03805030776499718,0.06342699578937427,0.09866828545214901,0.1483057754742112,0.18939835723421972,0.23899172990464246,0.2801598735411188,0.33222991274181624,0.3809992022656754,0.4234746808761676,0.4760368079756865,0.5289677336466516,0.5816043126555503,0.623835936747763,0.6727710234114217,0.7256943824692188,0.7786199916684415,0.8280986293030845,0.8699757876912475,0.921321617633744,0.9621513786315035,1.0,0.9953893904821558,0.9581564017964159,0.9056629674859877,0.8549364895656368,0.813896567389671,0.7618638110916862,0.7089329191166232,0.6560019822136902,0.6030758376236678,0.552832446962924,0.5115093339741654,0.45927533339112303,0.40634439648819054,0.35341353820902865,0.3009392337892782,0.2589122594742217,0.2096108998994457,0.15668681076269042,0.10375619958680593,0.05311426097457206,0.04360835975124466,0.06438861163588516,0.07387597763068188,0.06249422222931367,0.0644270681839223,0.08525505152636992,0.0947426069649766,0.11508273897857446,0.10766511089977238,0.08521610678333058,0.0539384223398689,0.0457505236903879,0.05766162726716084,0.05755761976026985,0.04559386109808061,0.04456297030418499,0.047085364676601404,0.053061740231275856,0.04471905032832435,0.044561442756642755,0.04539257188515178,0.057246211254166735,0.05955467774363976,0.05955854154580775,0.05949947928257071,0.05324964965083234,0.05712745531149155,0.07235703510348301,0.06538112893485737,No
0.9195099145255006,0.9587731103086694,0.9951087386703013,0.9999999999999998,0.9739022372326278,0.9386583587910933,0.9017546032068815,0.8595561355375974,0.8173378063593371,0.7751194771810772,0.7329011480028178,0.690682818824558,0.6484644896462981,0.6063797064267689,0.5713830807019036,0.5340003413772425,0.49179715245758593,0.44957882327932563,0.4073604941010658,0.3651421649228064,0.322951673455772,0.28520511302483187,0.25056441232405047,0.20889395321504423,0.18931641288919177,0.19868810667292913,0.20788496924037614,0.20825935054476985,0.2085087767110092,0.21600329960792952,0.20933593031853825,0.21045278771144704,0.21990697332437237,0.21950614781564126,0.20809288446906593,0.1900327087766296,0.1733965627065588,0.17322058258361972,0.18294017911003846,0.18384729127680255,0.1838474690467755,0.18384706883933943,0.1827078910464086,0.17384028327846512,0.1823748405888439,0.1756559342232531,0.17165302381775982,0.17164148952244873,0.17164148952244873,0.17164148952244873,0.17164148952244873,0.17164148952244873,0.17164148952244873,0.17164193335083722,0.17272251265521965,0.18265762245825612,0.18384689965422463,0.1838474690467755,0.18384323397672708,0.1810789440926388,0.17048352207302186,0.15382287465679823,0.13272655974537706,0.11108955777371254,0.08384023433927212,0.05577870214422864,0.029849100128625627,0.0039560177165556265,0.0,0.015801167183108644,0.03522556187876402,0.056332169344911476,0.07743905801756479,0.09854768508430278,0.11843621237893953,0.13280007659714288,0.14555339657138466,0.1528694602049634,0.15937523100864204,0.15944400769276568,0.1628280994396769,0.17188537914687552,0.18156440504378346,0.1890268083907387,0.2094228343638791,0.23690459359133675,0.265867701446288,0.30383320971009575,0.33626331831043177,0.37626460910920234,0.40861083555111244,0.4497227104557948,0.4918508522582885,0.5272416117765142,0.5642125100981763,0.6063897602271477,0.6486028180989731,0.6879312548034966,0.7212000863892178,0.7630571678079978,0.8052753359195035,0.8468069976592629,0.8793109282569478,0.9197180070264543,0.9573107187123295,0.9637390820649381,0.9394840578436374,0.8976100717016748,0.8553919012039943,0.8139477354457594,0.7813485322328872,0.7409420520671601,0.6987244053347024,0.6565060761564421,0.6143228674253429,0.5769661064757516,0.5419496585752241,0.4998387389677299,0.4576204097894705,0.4154020806112102,0.3732049684751446,0.33510404487934253,0.3008048072678242,0.258734743422498,0.21653198644571492,0.18213513375745838,0.1920326548540625,0.20708620878660766,0.20825902788799344,0.2082597669321562,0.20921661103544253,0.21909273025655307,0.2204642178817824,0.22052417937841562,0.22667569161782963,0.23024885803338813,0.21935370048145475,0.19829032458030116,0.19003697739039027,0.19599250751471975,0.1960534485711023,0.1960534485711023,0.1960534485711023,0.1960534485711023,0.19605180767282104,0.1945478033717667,0.18457913792005587,0.17653334595992876,0.179350013099296,0.1801502876949599,0.17173406337268915,0.16481391828212955,0.1594573170195812,0.15943550999812173,0.15943550999812173,0.1594336435196868,0.15786338088071972,0.14806698347413394,0.15009565822131177,0.1589406458877738,0.15208308193938103,0.14185782624867183,0.12780132754596063,0.10718881471907404,0.0800206557888683,0.06344159677351824,0.03741178808071255,0.015743955395806086,0.0020871470754737498,0.017724229429156413,0.040601830971172204,0.06171452393608301,0.0817066994148099,0.10185927829583807,0.12222947450940258,0.13628322495943435,0.14782151110058583,0.1582123081072977,0.15960060276078547,0.1678277523483016,0.17162689443879175,0.17339550031473894,0.1831784427576506,0.1921372998172448,0.21208909498279538,0.23627723125242484,0.26479995381821975,0.30382989933668214,0.34542944553225996,0.3780645646198242,0.4182771265676466,0.46033246656382665,0.49442678694991415,0.5327403284446348,0.574941412982118,0.617027040927318,0.6515995015060778,0.6894169345699896,0.7316086881303032,0.7731715241006156,0.805703853474143,0.8460605833753709,0.8881076271877866,0.9194806688864079,0.9263065827912584,0.9038854341354681,0.8679697495664109,0.8258267747206827,0.7874777969094768,0.7534176293942954,0.7113611841363581,0.6691428549580978,0.6269576600262894,0.5894945901272395,0.5545806008394274,0.5124755177693865,0.4702571885911262,0.4280388594128659,0.3859759773657305,0.3511773163733911,0.3135756600815187,0.2713715222241546,0.22916603334039842,0.19439695165284943,0.19563970154116261,0.19605334000017938,0.19606915819233062,0.20103609822625512,0.20829507022300464,0.21647117852866216,0.22044683884517435,0.22046416148674353,0.2190726637375262,0.20683303116481766,0.1891775471768875,0.1762774929581985,0.1827327938585077,0.1838635940057729,0.18900601142586404,0.19595056425372115,0.1961277844296354,0.20261913274167287,0.2082130525109156,0.20825942809542908,0.20825942809542908,0.20825942809542908,0.20816092401252706,0.20125596413117397,0.1960701035507777,0.19581477698488547,0.18781445429810906,0.19233141626040307,0.19159123915256804,0.18869703533660132,0.19590660561452977,No
0.5943338542064067,0.5862135024380208,0.5789446888831922,0.5616797173736403,0.5591457176232271,0.5363201881638093,0.5111206980243295,0.47773435247569473,0.4448972038957546,0.4236738117752501,0.3570007781784841,0.28140807842044335,0.20601834058852875,0.14843372734428106,0.10287367627410715,0.0364678377800276,0.010343165111559305,0.0,0.061902534860632574,0.12857806873436406,0.16777574084763547,0.2389736605929813,0.31457948379898504,0.3897721172450481,0.42902118190967853,0.39583230851715,0.36498292389856646,0.36229176318971934,0.36584550192202947,0.3899879844951797,0.42239731719675033,0.4528317786282101,0.4904012850796655,0.523145314494418,0.5503138705860708,0.587180768362253,0.6159773638754515,0.6345746200543081,0.6171459723256945,0.612789680309902,0.632582364655117,0.6359505441675317,0.6359518641428625,0.6359518641428625,0.6359518641428625,0.6359518641428625,0.6359768090527345,0.6445436402719089,0.6631345870928724,0.6779692203059096,0.646110101221673,0.6359813917454877,0.6359544684255649,0.6393723576518235,0.6577499994783436,0.6382969230929492,0.6368745760056154,0.6557614282338458,0.6607939117052597,0.6509688629750849,0.6151755584425969,0.5846359767887148,0.5594495579929104,0.5382688609322268,0.5526088504104973,0.5993074487775605,0.6494800616846881,0.6916625997636494,0.7321233371406519,0.7357766312784051,0.7540677174999466,0.7818845724330181,0.7585029162300501,0.7207278163731887,0.6890577691589472,0.684380025454022,0.6417495953783234,0.5875286379492275,0.5147810612684287,0.4551272275808569,0.3882145543633695,0.31489805385228964,0.2600698821094425,0.2066281046498979,0.18859605118775624,0.20739591466099272,0.27750771378457495,0.35311646971417066,0.4272094324264222,0.48300104874080274,0.5365492749841527,0.582093714753543,0.6369084287608668,0.6836267226051405,0.7559338784219518,0.8113056002558139,0.8843479168501904,0.9595810278035692,1.0,0.9419340304041581,0.8811286881489613,0.8156326632072739,0.7555760962956883,0.7065300078685368,0.6700661976240836,0.6588865896469374,0.6379844138942206,0.6192483185497633,0.622876825153087,0.6264130323257735,0.593747017092463,0.5830430932094548,0.5597408108041675,0.53750883193457,0.517710010963917,0.4997205021830595,0.4634418454080702,0.42562099348778837,0.3870487707500887,0.34337525397743374,0.3245269090172318,0.31265182610492603,0.31287189735036636,0.33001219912564084,0.36394163344535047,0.40736331509693713,0.4451024085217976,0.4829929233516075,0.5202027821345019,0.5369394460297183,0.5562400455972454,0.5814072472279417,0.6057017353988536,0.612038517357008,0.630991749711951,0.6407924905661355,0.6505955799474306,0.649217912522122,0.6505209265073653,0.6361868585002508,0.6359518641428625,0.6359518641428625,0.6359518641428625,0.6359518641428625,0.636239979145703,0.6518389250735073,0.6686187289247032,0.6934117489197114,0.7101863356200022,0.6964620172260467,0.6857770159680756,0.6856079495223781,0.6705257029111129,0.6608599457793956,0.6608207826103039,0.6535666537685882,0.6284464673268388,0.5948476348262011,0.5779109188879099,0.5626568205504712,0.5862256406598236,0.627885863645723,0.6780704046898958,0.7097318174993541,0.7105875262445833,0.7105875262445833,0.7105875262445833,0.7105875262445833,0.7097048288390448,0.674024928886749,0.6189746853385252,0.5491847305640776,0.4931612078736891,0.42189497072322846,0.35185927221198154,0.3007290243081697,0.2665130421600832,0.2840019474196831,0.332973050351681,0.3932206829575686,0.4681282354387437,0.5252304736203324,0.5950759724742483,0.6706841031523698,0.7453276518339162,0.8019973260589328,0.872642029347964,0.9480714331411795,1.0,0.9539554714024199,0.8965467668593687,0.8279576402636701,0.7714805892546179,0.7253150503093186,0.6987499297138884,0.6811966080347656,0.6570669835551071,0.6368851916924161,0.6225317196940727,0.6111717085208985,0.6109804107203747,0.596595214330077,0.5850459061539675,0.564101684618806,0.5444492664086154,0.5071345591471919,0.46925443643909137,0.4315168257010744,0.3955293996451812,0.3700145367646699,0.34624128650298047,0.3574499666141002,0.3685051087720015,0.4121902735226892,0.4507326363230981,0.48403771661446937,0.5139799657460222,0.5502959408276156,0.5776651869328666,0.6146458863438848,0.6425663547348339,0.6623820418627648,0.6820858221864841,0.6600094448306999,0.6368345958884136,0.6359520030876347,0.6359518641428625,0.6359518641428625,0.6359484599959568,0.6294761486887746,0.5958505554090658,0.5862225651678923,0.5861947560750496,0.5862002245407218,0.590278439389774,0.6101979958833699,0.6230604087855252,0.6358772421786485,0.6361185605275281,0.648996723100459,0.660965032201343,0.6745804506550508,0.6855983139559125,0.674343751085174,0.6485712379505415,0.6165249506499713,0.6130825932159603,0.642804287424207,0.6927143192166767,0.7411326352797998,0.7792969542934411,0.8024460184938018,0.7884251979523267,0.8176530413665768,0.8348503075872236,No
0.10794176503756159,0.10044803741410613,0.09870084173773308,0.09344659105192354,0.10614732356507295,0.11678870710022449,0.1180390006631733,0.11248318705377813,0.11358365414663907,0.10022500255368594,0.09001287581969186,0.07038460986130901,0.04887597641512498,0.027036093863974875,0.002865926635442051,0.0,0.016101811468036242,0.029773510013073823,0.040974292496843034,0.04472433069475712,0.06121314201642125,0.08486080166859877,0.11418338316027676,0.1506558665281763,0.19162684841024857,0.23139762473635161,0.2753731621041142,0.3134268387074952,0.356660042257938,0.38779201610191305,0.4234185543582767,0.4656454232857512,0.5110980774302367,0.5537091461979968,0.5927185497668113,0.6379237237131679,0.6834064597509517,0.7287334928931921,0.7684190264668334,0.8102459862136158,0.8555198885360733,0.8948925047983609,0.9293864516930679,0.9219621297445699,0.8832149621390841,0.8449810407563412,0.80005985583457,0.7545968716318243,0.7123624442441372,0.6730497750157247,0.6277618831864533,0.5822791471486695,0.536796411110886,0.491313675073102,0.4458517258567569,0.4037102296854165,0.3643125212203726,0.31901570242498556,0.27353296638720215,0.22805023034941785,0.18257466708119252,0.1392797388668927,0.10080470425084309,0.057127851337188895,0.04863164270452547,0.08391164527537809,0.11429354873735997,0.1362454797759607,0.14650703033646528,0.1537928532281423,0.14849032786180283,0.13156800731408635,0.1165890418864417,0.1257457320293267,0.14320009640133446,0.15794921826892794,0.16004931451715,0.1485971516758351,0.14300540511208415,0.14373912261034594,0.12573561751956364,0.12590959027645598,0.11914692463611809,0.11284933203844894,0.10818434572195135,0.0966133078958844,0.10011875700504569,0.10571862620496675,0.10732062433131873,0.11449733105650517,0.11608424324529576,0.10356701689679726,0.1049995887444155,0.08810607762985256,0.06374048924192643,0.04247833560464276,0.019914845624700694,0.00601640757725308,0.004254831471582232,0.02107665100011702,0.038121163745180375,0.05533751978854351,0.05691182922000415,0.06772464328461947,0.0847399545716343,0.11166978515333081,0.14308383938550895,0.1828652892751872,0.2211002142455154,0.26590595520248406,0.3056698160492024,0.3474139414079682,0.3928258322443383,0.4341249552651074,0.47430074301999303,0.5196837205584637,0.5651664565962484,0.6106491926340314,0.6561319286718152,0.7016146647095995,0.7470967735860428,0.7916783325261121,0.8296373128430297,0.8738747033451508,0.9152901715617059,0.9523578651882669,0.9626065480822756,0.9311560558108809,0.8932312655116008,0.8492805157442649,0.803799715359272,0.758317114202256,0.7132943789271731,0.6749366318688468,0.6314960903830098,0.5860190066733715,0.5405362706355874,0.4950535345978033,0.4495709512423105,0.40458298181672125,0.3662751775981046,0.3227503927893385,0.27727282591190283,0.23179008987411986,0.1863269464426971,0.1440782219448027,0.10477863567587176,0.059530679109234486,0.025726490473334085,0.052534664050405855,0.09079552188143603,0.12525875615642046,0.14406898443441785,0.15902295107889342,0.16999764945772777,0.17527599571754937,0.16416465182388862,0.14360773973914887,0.13517479332419224,0.15205082256094737,0.150290593469111,0.14344991848035082,0.14385660974286218,0.14161808575502488,0.14440390421788174,0.13707983485755326,0.12926871375823534,0.12453295922160668,0.11078577923357047,0.10528672333088518,0.10711770117953967,0.12016950105943214,0.13395762718583604,0.1292225810513561,0.12818924463816828,0.12803418233550823,0.11974915525215235,0.10014059000193165,0.08143923479137771,0.057766810119746825,0.035475318727942406,0.031987573135616953,0.04839212025964623,0.05826680830707853,0.06094708153566786,0.07129309996444633,0.08539024729704003,0.10279360212390398,0.13023086552962182,0.16152988916970146,0.202956823613748,0.24841073743423592,0.29275200701017323,0.33072875440839766,0.37521843724182724,0.41800355387099075,0.4568662686708065,0.5020421609823467,0.5474796662771788,0.5886710258528547,0.6289524522890644,0.6743401336304626,0.7198228696682469,0.7651883574337552,0.805240213872886,0.846681083156831,0.8921146696536693,0.9354641726109474,0.9731102448804578,1.0,0.9859890399586391,0.948399474022739,0.908050984537137,0.8626552824247753,0.8171821872010434,0.7740409880910679,0.7354889344961402,0.6947073744636829,0.6629782494610432,0.6186570059344931,0.5731750446693447,0.5276923086315628,0.4822381020773223,0.44050086890207507,0.40073029609180155,0.3553943359834453,0.3099115999456612,0.2644288639078771,0.21894786923451148,0.17466072611999972,0.13673836303667808,0.10300955073112728,0.12786797989843146,0.15757325468565675,0.16798095218021136,0.17674838315378438,0.18501297603137035,0.18334154066556008,0.16237551337247047,0.150389226589575,0.16009368615012542,0.16231565106846801,0.16271054952160657,0.15357466636614991,0.1519352243222507,0.14666640784550666,0.13427061616953972,0.12824273020499755,0.1272288776427355,0.11692818354622991,0.11671645550058996,0.11856154144183284,0.12152020853111245,0.13217111986952124,0.1359821518549129,No
0.07385711799885142,0.09759200146612734,0.12602671847463465,0.15519606214549952,0.17226420893771466,0.19539913483096916,0.22761841124617876,0.2685986839074308,0.3088299283595657,0.3445366256401121,0.3850482337846599,0.4262876625398526,0.4675276587211492,0.5087676549024456,0.5500076510837419,0.5912476472650385,0.6324876434463349,0.6737276396276315,0.7149676358089279,0.7562076319902242,0.7974476281715208,0.8386876243528174,0.8799276205341138,0.9211676167154104,0.9624008834711757,0.9995472930094818,0.9892026952440329,0.948906622269958,0.9117017211267049,0.8735554070240246,0.8323561726569335,0.7911161764756371,0.7498761802943403,0.7087419202723562,0.6715615426216008,0.6333894963337716,0.5921888090036156,0.5509498399490314,0.5105305408314709,0.4748454702511764,0.434505631271779,0.3948346478466085,0.35888763476774765,0.3199528710714228,0.2854177776095095,0.2538290120916473,0.22647886976120013,0.20446728745051024,0.1767005002633757,0.13607013073236152,0.09649083099624156,0.07685979246429353,0.09506258729915618,0.12529000787062472,0.16088842645952517,0.1863475371203982,0.18984900179450515,0.17991688700128905,0.1695854434814652,0.15732290004190852,0.14292139624920175,0.12320835648223549,0.10450648458254075,0.0819870740151567,0.05950551908559398,0.05082727163594847,0.06480576758766288,0.08991872087802943,0.11950536517233723,0.15037228133881486,0.17942592608160246,0.20572879788825027,0.22792873014390747,0.2362632675390428,0.2338254202080896,0.22706233500731732,0.2234125823023072,0.22652577947190822,0.23066489307791405,0.23538946959786067,0.23785230199514462,0.24070400683994597,0.24497770192537427,0.24335501515441926,0.23514706793779627,0.242063261420983,0.26368315798074304,0.28090773625130905,0.2655663993845381,0.25364381217376697,0.24796204548075362,0.2231777333518703,0.18967576468371639,0.1567219351831115,0.1526132579721684,0.18417731310555263,0.22268122949564084,0.2638796898551006,0.30296510760630047,0.33933659028361296,0.38034185766566964,0.42158185384696645,0.4628218500282628,0.5040617861598646,0.5450291563312029,0.5812514519944729,0.6205196618232216,0.6617492175002841,0.7029892136815803,0.7442292098628773,0.7854692060441735,0.8267092022254696,0.8679491984067667,0.9089438848090716,0.9301964487571694,0.8980531760462958,0.8618472008786022,0.8225911017105851,0.7813623184576539,0.7401224023426178,0.6992517118923844,0.663242960852616,0.6236687332439386,0.5824349509856326,0.5412042820239886,0.5018356248366604,0.4656830666304217,0.4247495776456376,0.38455525372219057,0.3488722305878116,0.3105705486008139,0.27602663288422513,0.24209482032505591,0.2174129537609939,0.20472954392648313,0.1972565322866935,0.185096902192742,0.17447367208686004,0.16094725157092338,0.14515451201805574,0.12681237043060856,0.10621030705512946,0.08289466353278452,0.055340668838834595,0.038382402736585,0.038209186381932825,0.058655576107775276,0.08846167194379695,0.12072868970967754,0.15462356199981286,0.1865288473012514,0.21468978769776648,0.23753444404016633,0.2512238514580709,0.25238249744819985,0.2512545099296404,0.24573115265135392,0.24513423664202882,0.24755577165355036,0.25278278848326563,0.258449591759774,0.2585088111727871,0.2541642691557231,0.2590617770506203,0.25849686315077514,0.25161104297881676,0.23663153940482418,0.23527544371137266,0.2537635291064324,0.27838502222844164,0.27524233520380137,0.26137110216441073,0.2637315579121515,0.24768948104288402,0.2101067694408958,0.1726116284452599,0.14437629179104228,0.1501200270487728,0.1833233814189763,0.2202970308009351,0.26141323188072185,0.3024518755351855,0.33899639124988123,0.37787536756413354,0.4191006092634444,0.4603406054447414,0.5015806016260367,0.5428205978073339,0.5840605939886307,0.6252987195950137,0.6655016284234028,0.7012137323790124,0.7417485048563257,0.7829879614606514,0.8242279576419482,0.8654679538232453,0.9067079500045407,0.9479478809144299,0.9884651773227446,1.0,0.966596498051979,0.9292143869503726,0.8880558355491,0.8468158393678029,0.8055758431865059,0.7643489315603249,0.7253192842082021,0.6889048378980387,0.647888444916932,0.6066484757144852,0.5654095414865099,0.524996005587814,0.4893122866762867,0.44895988249282315,0.407721108242463,0.3664907176019654,0.32714830386082205,0.29181941473392725,0.25787529798526787,0.2284150920384711,0.20745262534106623,0.19461496503352627,0.18389323600599616,0.17293789932748949,0.16333715690525996,0.14830843832453566,0.12818055465089206,0.10997446935533906,0.08785327766943496,0.061750301241146,0.033025675485620076,0.010695142445753758,0.0,0.014821211523799449,0.04414229450485885,0.07593283838990228,0.10635315617194974,0.13101408517438085,0.1612875849266786,0.19103859160362036,0.21933154868840044,0.24423768618106867,0.2572833493155038,0.2539245431439989,0.2396925537852006,0.22751297773664803,0.2179292586710011,0.21660621360935162,0.22209836417849194,0.22329360453472646,0.22357570038706487,0.23480488742325245,0.26578162126454985,0.2799609900841138,0.2749981620960138,No
0.30512184802444287,0.31344576161220017,0.3135706640119049,0.31356616460825837,0.31150500149950666,0.30881708068084457,0.300314782681284,0.30325376475852917,0.3048441580401029,0.299169109195939,0.2994368147307993,0.30921439763024994,0.29969499493556206,0.2931321430967171,0.29081245344898443,0.27791369217390827,0.264777279503158,0.24623993661973165,0.2203721331467987,0.18845485502975734,0.15750381158092708,0.11939600864837008,0.07327584171632084,0.03760671239173696,0.005616528606130711,0.0,0.01723868489771352,0.042361520130895336,0.06977776216572318,0.10202022509871878,0.12878760697078473,0.15496818214076447,0.1750423968104875,0.19238654874579408,0.20547026102225985,0.21509310010515303,0.22671293820307659,0.24173335373512828,0.26848043801483135,0.3025426841090253,0.3483135889015174,0.3896079834326813,0.4405801988527318,0.49227470681110974,0.5293953765927508,0.5585748807798065,0.6084875559281162,0.655707572958709,0.6998353485838633,0.7524981359253236,0.8051880938669718,0.8498872928920154,0.8965414280902939,0.9470598800565329,0.9840304370714508,1.0,0.9769270961880867,0.9329187090797495,0.8802561986427286,0.834119587388193,0.7889238575587814,0.7361975412237034,0.683390406304913,0.6305838848740435,0.5793202187777151,0.5380756443213568,0.48659413185194866,0.43378754993635393,0.38117013467601835,0.33733609827742894,0.29039311815565627,0.2717190327819501,0.29585080506227346,0.309118582972737,0.31355688661895176,0.31183861354981657,0.31087533837003356,0.3273331262144614,0.3407485531567582,0.3299716377801474,0.3123209747283924,0.28432614136472223,0.26318718204718916,0.2832026230715834,0.305949515661176,0.3134392004024913,0.3076945362540422,0.2992776846859875,0.29792698821410246,0.2863145121524244,0.2849224697994601,0.29392868344782075,0.28936491465882463,0.291591919851653,0.29916038092461594,0.3067285264879249,0.30858364280177186,0.31347928467549924,0.3135589243269563,0.3087776323169913,0.28554199336166164,0.2645850869926121,0.23466797346093848,0.203849957630728,0.17200131921414386,0.13460383711949797,0.10301355346738772,0.06869099457607675,0.06055014062943087,0.07768660353867674,0.10290529437546914,0.13141430381113572,0.15927581464034457,0.19021980897450552,0.20806463097287375,0.21296272130830385,0.22392769950019575,0.23691343627866823,0.24180581283635139,0.2563229018024922,0.28247312805812763,0.31377939492226625,0.35684019886437657,0.39672495402814834,0.44103493219054934,0.4925861221075629,0.5295836068852524,0.5588044745533027,0.6088540789378207,0.6616553468431929,0.7129838400184476,0.7541527219513,0.8055215974134313,0.8500906432376416,0.8885967885704429,0.8965602154912924,0.8694824586761012,0.8217649638830982,0.7722672782731492,0.7301605424302973,0.6777870768762315,0.6250165399168677,0.5776807379432087,0.5336284284322148,0.4809913554264633,0.4282877643243377,0.38342568089941453,0.33696848780952093,0.2851652364093731,0.27031938091335217,0.2951059291571947,0.31253505490479316,0.3137436424030655,0.3225364620942175,0.32796812401596753,0.32794332925402747,0.3216261651206822,0.30794518136232707,0.2790221215931541,0.2638368550953567,0.29079848262940056,0.3050510531098469,0.3072991811465835,0.29925832807214725,0.29913756928491386,0.29840599877493856,0.2870966565896045,0.28470666928935673,0.28401822108365105,0.27617964470253487,0.2866310045722402,0.292571515468647,0.28593418600046006,0.2972397121920327,0.29913596837691925,0.29735626231322243,0.2821821319896549,0.2602216500642971,0.23774649382544677,0.20336916661230608,0.16809877558329323,0.1328632660160074,0.098515326658001,0.06723387092314637,0.032515527663155464,0.01714395773436106,0.03302980739946548,0.05719206988086878,0.08570769799018896,0.11004118550892095,0.13948203967910278,0.16175876066625205,0.17313025224835377,0.1896559062858998,0.1984940253873111,0.20967174555469015,0.2235312900350248,0.24458217771337942,0.27593997706804574,0.31463088140249873,0.35552478213628635,0.39701197385432385,0.4438326787382847,0.48552718325834476,0.5376732260976596,0.5845143089433291,0.628998754492812,0.6816903539281749,0.7319379021810799,0.7735302832238027,0.8256792428827766,0.8759945012718129,0.9175288953770524,0.964815729038075,0.9685841762516811,0.9312937300073756,0.8834765497763941,0.8402139547780796,0.7876462932506931,0.7348391583319014,0.6820735803249267,0.634896462444793,0.5906937311218599,0.5380434368821332,0.4852369672953132,0.43409820863167514,0.39281234734431214,0.3412473698053673,0.28896023433606777,0.2648160357366631,0.2915244010382301,0.2990736193212782,0.2991383642270078,0.30045007583146743,0.31218573299391883,0.3224149783783745,0.318699574116315,0.3079523728410738,0.2788067347831027,0.24916235053615532,0.25515439156581987,0.28183007115726566,0.2847012241777298,0.28470502756111893,0.2846833064588563,0.27968802579430063,0.2704819349506882,0.2701213800325215,0.2614021663169179,0.25846182510370896,0.2696733579474184,0.2775282080985253,0.28431092658012025,0.27497225410846404,0.2810517214150501,No
0.07838744081435722,0.07864977879199353,0.07643088627541195,0.08159584184514035,0.07531963901472416,0.04712416181391088,0.03447590206806428,0.05994366934384843,0.07182133149804093,0.07944972279383489,0.0693101199744035,0.07649744559527294,0.07216603884227979,0.06811479670763454,0.07473263674822528,0.07763769012178257,0.06829445942016532,0.06215189966186907,0.05387094162785733,0.04328261813712375,0.040395426513418986,0.030877721850465445,0.03547180448741116,0.04079478319760277,0.04082928325622115,0.04082928325622115,0.04082928325622115,0.04082931846423721,0.04118755675082442,0.05136388756150545,0.06404602351451683,0.06797186754569218,0.06193553553614084,0.05600587649917488,0.06204579017723111,0.05417710152842137,0.044176791967290185,0.04094349101932604,0.050204423041180224,0.07785822366805428,0.11527682511325921,0.16553189535078205,0.2152713013671934,0.2562611453215471,0.3072362726084359,0.3590065040977741,0.4099322089341042,0.4510842340152821,0.5007113862941117,0.5524803338208297,0.6042512115183913,0.6558305889348088,0.6991721062746503,0.7459741246285376,0.7977248523984528,0.8494955284501042,0.9003741111641697,0.9408283440286076,0.9726419865615847,0.9602195071494268,0.9185410029545564,0.8756720742173747,0.8241440116358683,0.7723731339383066,0.7206022562407459,0.6688313785431843,0.6170605008456236,0.5652896231480624,0.5135187454505008,0.4617478677529392,0.409976990055378,0.35820611235781774,0.30643523466025613,0.25466458561257355,0.2035750351428529,0.16233167659708236,0.11295854673584893,0.06120080442261244,0.015817781942579323,0.029186860777482337,0.052920812771722225,0.060539518117920466,0.06110004502587918,0.054491952448417535,0.05371517449089769,0.03773436122085716,0.016916091602849015,0.02820968993213091,0.04265932967429986,0.053607538905029894,0.052394462580117374,0.04280199042773969,0.0525973017755339,0.05418699274868821,0.045205998218758925,0.04084590887192929,0.03908846201074878,0.028276194924227838,0.020882381731098576,0.011223475282069462,0.0006335474075949143,0.0,0.0008685338768179562,0.011497624041621357,0.0136710241930742,0.020760090174961388,0.019483233018116053,0.02295290370122194,0.027860644293735692,0.038414224611772685,0.04221020049224267,0.05253920742871099,0.04349908264857305,0.030833842083863416,0.026395563463486038,0.016981306682796404,0.021332660551999894,0.014058541064913666,0.02486134003179563,0.050539439219620785,0.08354807744623294,0.12783822636261233,0.1687738258860576,0.21890636512993655,0.2706751620468131,0.3209905197950902,0.3618763686173585,0.4123796466001628,0.4641496095017943,0.5159204871993563,0.5676913648969175,0.6191681126435133,0.6616155742898187,0.7094084476848859,0.7611650057769794,0.8129358834745397,0.8644062168667723,0.9067626101804591,0.9480520886078754,0.9583928688395593,0.9321215486152976,0.8852358547758965,0.8334841184369752,0.7817217300227051,0.7329380015864575,0.6913606681576918,0.6424019601531001,0.6108613328477621,0.5733442828004383,0.5396394852406279,0.5072948742001842,0.4627832470584017,0.41651435857223973,0.38446309168985726,0.3347683903557206,0.28863088494384614,0.24466958738981237,0.1930196520753924,0.14124877437783168,0.08947791508445935,0.03798030424143928,0.0156396950206803,0.05016899767272154,0.06632874636462871,0.068066744864002,0.07247149262916475,0.07624238752175483,0.06578971540283085,0.04117543427582815,0.03703672040546957,0.052541407016010844,0.06517385366074357,0.06804126258356868,0.06805196343191344,0.07039722274446225,0.08096569208993065,0.08165863166327147,0.08165889298677165,0.0816579781908433,0.08039035367043823,0.06928959448793348,0.05903425475881052,0.05446034150299495,0.0544391531664048,0.05437631724097702,0.04832566562595719,0.042396006588991675,0.04843598028071128,0.04103917715177108,0.04082928325622115,0.040843027106218344,0.045023067430758346,0.061202085226575775,0.06797069521561294,0.068049023076588,0.06804900947349113,0.06790117955073427,0.05954113497876534,0.054467974832583366,0.0554962314528451,0.08004651064809964,0.11246514644759342,0.1577930718283942,0.20308499529604163,0.24782489166635502,0.29949686960800426,0.3512045341117003,0.3957608426412986,0.44127019667960754,0.49297051048806617,0.5447413881856265,0.5965049030217,0.6444622779544824,0.6868112917295672,0.7382150746760723,0.7899859067632504,0.8417483581012379,0.8896526983981916,0.9298935123733547,0.9612386776813695,0.9959943948297543,1.0,0.9647594228187817,0.9135420711081248,0.8617712990346122,0.8100074530397978,0.7609760108432551,0.7195521552047972,0.6682975589319602,0.6165267804569887,0.564755902759428,0.5129850250618673,0.46121414736430477,0.40944326966674494,0.35776098777352683,0.31274128861485284,0.2676874132051097,0.21596962878668302,0.1641987510891223,0.11242907358483123,0.06339551131311216,0.06303634662032565,0.08079953396311534,0.0816584029479217,0.08165884737638729,0.0812832337353,0.06862355998802538,0.0456413547207033,0.04482380771724204,0.0638415022554506,0.06822083217183028,0.07660238115317419,0.07918799151996136,0.0686828969585136,0.06804915430646563,No
