0,1,2,3,4,5,6,7,8,9,10,11,12,13,14,15,16,17,18,19,20,21,22,23,24,25,26,27,28,29,30,31,32,33,34,35,36,37,38,39,40,41,42,43,44,45,46,47,48,49,50,51,52,53,54,55,56,57,58,59,60,61,62,63,64,65,66,67,68,69,70,71,72,73,74,75,76,77,78,79,80,81,82,83,84,85,86,87,88,89,90,91,92,93,94,95,96,97,98,99,100,101,102,103,104,105,106,107,108,109,110,111,112,113,114,115,116,117,118,119,120,121,122,123,124,125,126,127,128,129,130,131,132,133,134,135,136,137,138,139,140,141,142,143,144,145,146,147,148,149,150,151,152,153,154,155,156,157,158,159,160,161,162,163,164,165,166,167,168,169,170,171,172,173,174,175,176,177,178,179,180,181,182,183,184,185,186,187,188,189,190,191,192,193,194,195,196,197,198,199,200,201,202,203,204,205,206,207,208,209,210,211,212,213,214,215,216,217,218,219,220,221,222,223,224,225,226,227,228,229,230,231,232,233,234,235,236,237,238,239,240,241,242,243,244,245,246,247,248,249,250,251,252,253,254,Target
0.27441560425822686,0.2785059409892854,0.3186699267177202,0.3861231762878552,0.4700536832551856,0.5559552701717014,0.6351285873324204,0.7185683725336411,0.8044233189781984,0.8834912743906278,0.9648952491204157,1.0,0.9438069349882952,0.8604802557889233,0.7820478854005364,0.697378188336029,0.6171822767548472,0.5350175303551423,0.4517216004108815,0.37249467082570265,0.29214043998004957,0.27517169407641995,0.27300686443968547,0.24234231684182084,0.20818931306130106,0.22950632064963128,0.26892858313352486,0.27739930396748447,0.27725499315149316,0.2706452498863374,0.26553419270892165,0.2710477271235425,0.27691852099544034,0.2787671301746355,0.27957661823304947,0.2788208659260265,0.2833256682946206,0.2983105195469522,0.3035208453002076,0.3072120662421669,0.3179065679086057,0.35497265222763263,0.4225588695521001,0.49987515676316363,0.5833574497655327,0.6619260494797516,0.7473127274525697,0.8297638414257862,0.9078569176224636,0.9418088834779921,0.8821646813366271,0.7989693891694851,0.7193130599019293,0.6368775550154817,0.5573250019653475,0.4748110745510712,0.39534737034579437,0.31760050592605893,0.2950968201410986,0.2945905056203497,0.26453495755154854,0.21712927247274205,0.2135989749438414,0.25196366815111904,0.27294841028251415,0.2861686697383665,0.2833567584016137,0.28026552418164297,0.2812739216491502,0.3019277765143198,0.3098401239811197,0.2980014715977868,0.28147613262407045,0.2809439001633609,0.29816643390317776,0.32175659898893705,0.31510116160051127,0.2973987563194491,0.30631557104291063,0.34910081878803556,0.4204353339588083,0.499976739821109,0.581497432875548,0.6667711136621568,0.74527014689428,0.829844039788568,0.904810682721807,0.894477359416515,0.8190990107269345,0.737937618810657,0.6538756551248195,0.5751707919830871,0.49108399945289505,0.41261575224146996,0.32871683179022626,0.2799040824836563,0.27353906987274734,0.24179776852153534,0.20806231737799186,0.22860182960370223,0.2664340687638811,0.281052354176033,0.27557792158333405,0.26291871506014197,0.2512877878870865,0.24703705950697974,0.251201206501805,0.2596374768778009,0.2643940535053426,0.25080740502949106,0.24967529081034656,0.2646327320663202,0.2619084290909628,0.2633945283144832,0.2735229947285478,0.30855598640581716,0.3762549888096254,0.45161333243656765,0.5335650017342819,0.6147169831169572,0.6958423975790535,0.7820612927134718,0.8642435040538561,0.9400656526442552,0.9629342472750295,0.8992403402280846,0.8179156735450102,0.7385417659458335,0.6554824365212455,0.569098295802636,0.4826861303070942,0.39758586307367483,0.3193341977907156,0.24642588478582095,0.18990085979365157,0.12958778543852145,0.0517163243870562,0.0,0.012318617429217138,0.0816036844480652,0.16219711884329313,0.20688491448884316,0.2757875706755246,0.35451537849141657,0.4381639913995996,0.5199043509318746,0.6002333687211978,0.6578212550673146,0.6038780350399935,0.5257047206762056,0.44632515838232933,0.38395464979852334,0.31491465516877737,0.25962327361896365,0.23464805897437335,0.2251814349919854,0.22597846958875945,0.22707550899857343,0.21147251172150439,0.21369892990414963,0.22657832682961043,0.22805404977629107,0.22081365701528344,0.20873439008133343,0.2130187297920909,0.22493170501526283,0.23913473929490414,0.24086244573603888,0.22440715476679896,0.1843304510690833,0.1577860088804084,0.18166542177711253,0.22614130929696108,0.23480983589869875,0.19039270897652627,0.20078405361584495,0.27196711151889974,0.35638467728743106,0.435689594896828,0.5183990987947205,0.5821531083494804,0.5439261277873557,0.46239560307452887,0.3831389969947059,0.313013960678336,0.2724582154910469,0.2596839050907873,0.2712604634947924,0.28520057360571904,0.2652811398481849,0.24455474067543292,0.23715566431984536,0.24694418547145425,0.26762749474663794,0.2689855179002727,0.2482956607186173,0.23744625255391827,0.24391776579642688,0.253317365872445,0.2439131062739761,0.21786756555076647,0.1795343757563852,0.15090914294097502,0.17202679702583268,0.2279969645418023,0.2554439866242211,0.22928014819338438,0.17924123612708875,0.19774349637056599,0.27477563365877744,0.3545038897999713,0.4370947810863117,0.5218137071791347,0.6000468862345993,0.657689609624744,0.6040722225522455,0.518061705028682,0.4350458629517824,0.36388513063901873,0.30703584698540465,0.28107041976413827,0.276790271506109,0.26867390242787104,0.259364211883615,0.2503622321152579,0.2433602648390336,0.2455008613427001,0.24551203137849886,0.2417620719354574,0.234723713853914,0.2284987295740213,0.23647977338800108,0.23798534938768867,0.2438540293120186,0.22678265393660002,0.18842922739170875,0.16640327670759358,0.19130919796697388,0.22975518573478326,0.2264797955636948,0.17975493348650007,0.1785665458478991,0.24833380403000316,0.33329929065242503,0.41271129977874765,0.4957660816796454,0.5778663519300546,0.6258296750559476,0.5691634890056516,0.49101585771685796,0.4106868026588988,0.33786351513604607,0.2731485383119323,0.23921579109546065,0.23587947148514088,No
0.6213892213834233,0.6357275679211449,0.6356380679549058,0.64910739949734,0.6473466182811434,0.5828374937783627,0.4864416766156494,0.36489945280736835,0.25179752995471993,0.23019852838998434,0.35451112768496484,0.49436631300052936,0.6275671962859484,0.7280601151788106,0.7260608381008762,0.6990115758957689,0.651669838305164,0.5820651758942601,0.5366092647822378,0.5884404892934416,0.668415644808511,0.6951025963055759,0.6955763500794809,0.6959087148067136,0.7115147726212996,0.7481665720996711,0.737732992031825,0.7155340501912129,0.7236639540214895,0.7689275119880241,0.8081651679375241,0.8186924013870334,0.8223564129341936,0.8431680670871167,0.858031008242385,0.820120723221506,0.7342736673325261,0.6302226422592438,0.5077556568499166,0.4105410459716574,0.4875614729372799,0.6266331284250306,0.7665991584280603,0.8956866842047626,0.9809050059803619,1.0,0.9923582236442803,0.9281461320007987,0.8590404308916497,0.789470425493743,0.8269519408507087,0.8943456411784094,0.9065009139156901,0.9006301387135931,0.8926925072632192,0.8830066472863383,0.8728814047010438,0.8262209979471109,0.7777744564995537,0.7664194524107746,0.8067550889472681,0.8402575752610213,0.8595308845426501,0.8774980469010947,0.8837342236117953,0.8542747002561546,0.8121093149810799,0.7333485406971283,0.6284989680581372,0.5034173886349942,0.3878110936353014,0.39907490927362455,0.5406114215993401,0.6755445808089462,0.8152535057083696,0.9031117878010182,0.9106917335854465,0.8827830175862319,0.8309603265794765,0.7469008497387373,0.6738197223293065,0.6250368429162139,0.6858989224022007,0.7594533657507911,0.778350442220753,0.7524271542161785,0.7572001174982557,0.7445613382939564,0.7239401108007248,0.6975039297987946,0.6483905134396313,0.6135722200587193,0.6588829875019311,0.703463455468051,0.7398535201819296,0.7538902490711621,0.7699152781830056,0.7738476544320774,0.7598708624784756,0.721225330695126,0.6551046074084166,0.5540393430872372,0.43404346479806977,0.3113425673440844,0.24497614486901265,0.3582309760383029,0.5025085255892923,0.6403596938241289,0.7716731572380446,0.8263473726178345,0.8158790882853735,0.7798479172397776,0.7056479725014997,0.6218097695680198,0.5679685824447285,0.6212768892926848,0.6874842309080575,0.7104023542185267,0.6869909488330945,0.6744851908909153,0.6807513977707833,0.6566642804950282,0.6599283670497753,0.6454401951186997,0.6018992054377534,0.5503793525713738,0.5702604526464783,0.563447212131619,0.5727222969842805,0.5868147146729568,0.5954319388318732,0.6102629964721915,0.577700777636621,0.5060372522907803,0.4543672144085349,0.49684334268598285,0.5765590975315913,0.6622366147918495,0.7164212470565943,0.7102567333060721,0.6103458749765185,0.49995883766120786,0.3696790865673716,0.22313491847617994,0.09705290818952061,0.0,0.01877319820097867,0.13866768870036417,0.2780639430422074,0.4133051081074215,0.5240263351329748,0.6100932438957187,0.6707214690824719,0.6826735874688836,0.6579839229303817,0.6567786709968786,0.639206820446053,0.5871342337442256,0.5362840832711915,0.5288072921007401,0.5792668040402251,0.6243176992954762,0.6542678434971751,0.6460660620112542,0.6595022543378688,0.6759576996349486,0.6616915594764032,0.5991139226531219,0.5290251750157826,0.5430434499416799,0.6300744629043438,0.705139821349988,0.7844825971042564,0.8035199050977591,0.7967400245257359,0.6784918021587929,0.5390146941356107,0.3986413007776708,0.2633724029941922,0.1661525888159705,0.18660317192168918,0.29629823251368004,0.42355026102218796,0.5668537420244415,0.6670685047945799,0.745189546223421,0.782214115739996,0.7918830771920691,0.7813670973505227,0.7596259557757916,0.7256051995180037,0.6866965009561214,0.6752374632917517,0.716786676595536,0.7554773072740906,0.7942947755594041,0.8101347404007253,0.8282898854033833,0.8272614289942766,0.7780680533927562,0.718945190827295,0.6958347541050882,0.7575432321379125,0.84146063144913,0.9008392557246001,0.8971463641262476,0.8816355383534074,0.7838642241405953,0.6430117514572364,0.489785548211116,0.34235232921812875,0.23021087387156536,0.18206795111475982,0.2705066881157405,0.39109800107604586,0.5142989972740755,0.632951987782219,0.735171817848502,0.7668710776031205,0.7571899989865702,0.7364488851986417,0.7231644087180769,0.7248594692324994,0.6926464661770435,0.6353529693135593,0.6130366685728319,0.6356002676677539,0.6678870868020921,0.6383321936732722,0.6133980842428164,0.6166204054696083,0.6118757436095263,0.6008217483926455,0.5393169244734821,0.47016784464871053,0.43156424167041907,0.47760813013088743,0.5452862484870824,0.608414284465499,0.6286972560012245,0.6232716465675487,0.5185800016473507,0.3800002582398978,0.24523337259817746,0.11750843199436645,0.024644844882364403,0.041887904181296065,0.15083207519246322,0.28432499952611234,0.40082197896970184,0.5004921728702993,0.5564256241848957,0.5554211873675943,0.5503606630134001,0.5181023307916623,No
0.8797410694031513,0.8658007037408928,0.8556879776571891,0.8598189234075515,0.8581690347746611,0.8835545916611109,0.8826677224136286,0.8719681407117874,0.8632685724877001,0.8552649779953021,0.8832773335145592,0.9065538084628,0.8985691756515961,0.9072482612280504,0.8954839235826735,0.8800336799895052,0.8785177623319096,0.8642572787746183,0.8479601282935216,0.7926679775431738,0.7088945788465755,0.5865291211108992,0.5718586217474328,0.70412235640871,0.8281581557777362,0.9420050701913447,0.9805581292109751,0.9335942231976806,0.9212413854252337,0.9249884642201249,0.9243645479531364,0.955002567252571,0.9084334790427655,0.9030580177542498,0.8970900292697626,0.8895864901275874,0.8792356907844483,0.8712358572924246,0.8661634431812133,0.8485139596079763,0.8446466585483905,0.8683957187046123,0.8595369514986753,0.8621466134843918,0.8626635630728443,0.8501024183301538,0.8536092555077821,0.8737219223010464,0.8893283833516734,0.8896626770939249,0.8896626770939249,0.8896626770939249,0.8896836536036896,0.8945043120926708,0.8890291119094704,0.8308881925705305,0.7379211172514633,0.6212950687226138,0.5513824711597524,0.6617554649084236,0.7854481963492908,0.9130886377173604,1.0000000000000004,0.9857913373177687,0.9459392969207205,0.9410769637900134,0.9581090075857159,0.9716866408241223,0.9265122553017133,0.9286049424519631,0.9186685787266522,0.9239104347531488,0.9145968213816054,0.9121648163847254,0.9213687740923837,0.891127994039294,0.880633706108561,0.8813472757251453,0.8765044704230003,0.9101123078495754,0.8936896726442618,0.8707607374471409,0.8815130812271126,0.8817083078807131,0.9117363357932162,0.9144633332170096,0.8959294296030405,0.8800419109499171,0.8897115104245299,0.9040062727462659,0.8914453407361536,0.8507502973801944,0.794829171028804,0.6846127038643215,0.5440647974368193,0.4610170440334289,0.5653527939175045,0.7067393703704483,0.8308642703391764,0.9478801101293439,0.9805850679756021,0.9326865748291113,0.914520355825013,0.9030988258883901,0.9408658814795685,0.9278340218253809,0.8978049324996911,0.89971829999963,0.90468113767291,0.8896714598463933,0.8744090888384073,0.8612223091401607,0.8448039248476351,0.869800333971432,0.8890560358625526,0.8985896843652124,0.9007889939418496,0.8794994895966073,0.8552976048567467,0.7783863426953377,0.7905204032180877,0.8076039954657435,0.7906120546988942,0.7898418503975679,0.7734769131543078,0.7465937763934787,0.7589721829387481,0.7894732867932679,0.7911886716834213,0.7876978620480402,0.7942473686747449,0.8153061967107011,0.8029963174601042,0.8122206347748375,0.8195642360405944,0.8248245405254973,0.8221153271085728,0.817886887417417,0.7482308242446547,0.6238746174746272,0.4817837988735141,0.35362667216229626,0.22034953624672093,0.08564586746979641,0.0,0.0611852449725796,0.1886981136362582,0.3124061973978467,0.43650020498072095,0.560129516088935,0.6866787596048369,0.7706697069610331,0.7992111654599099,0.8022567465607326,0.7884568446017011,0.797522152721887,0.8058757894344555,0.8082687391749777,0.8211477621831516,0.7826466838447828,0.765925503917503,0.7743430869157559,0.7862996942664746,0.7905646198833556,0.7867386823266682,0.7648085101625175,0.7841172846841631,0.7702586654171708,0.796964033891626,0.8026070320410796,0.804156957363618,0.819214257665442,0.8117131377569566,0.8220019367228653,0.7913381352382882,0.8301404189224519,0.8668531008163689,0.8534652748056257,0.8232937448158624,0.8268827917696684,0.8669287054209165,0.8000665276302397,0.6623904067347746,0.5386879076699453,0.3987161431667703,0.26017146275339664,0.14062460227579665,0.07958881315043609,0.17220343519311276,0.28886713278873444,0.41313144641824895,0.5474597869745614,0.6617902605784347,0.7573058771441414,0.7981230834456743,0.7927923162512243,0.7880864972467161,0.7885095133097049,0.7903263448410605,0.7861850073539203,0.8012966546360283,0.7845932954719363,0.7497174248371619,0.7448556156245867,0.7613664036950207,0.7662938084100488,0.7675525661463518,0.747106756764802,0.7589541286740134,0.7533114680797026,0.7646749973513534,0.7546162344352161,0.7823525848991415,0.7793686434552138,0.7778591717734016,0.7761807782175709,0.8012394710549571,0.8090229255252415,0.8350131436841894,0.8129626392320222,0.8160436085223073,0.8289894650668672,0.8522720501219525,0.8005594425165845,0.6796593286724506,0.5411618840818568,0.4076282231534516,0.27988536815456877,0.1567450373071031,0.08268748220541955,0.12187700303376214,0.23752189396545464,0.36135899105468017,0.4850076095004585,0.6160261709048132,0.7197342581048685,0.7706396156655333,0.7909378483453575,0.8023976880199695,0.7954554495573309,0.7942468046832016,0.7870593868131848,0.8192557724190928,0.8098549843550287,0.7683036199204332,0.7414092952857385,0.7813237796265802,0.7827116944685284,0.7933129309997473,0.7769887692175135,0.7589512409910113,0.7763587574894557,0.7693793216731746,0.7437705150219274,0.7712530681473608,No
0.5538311210911124,0.573174047805125,0.5798400824884031,0.5741883510348122,0.5885761009884671,0.6174226407410157,0.6339536946875466,0.68336196671047,0.7890089528901831,0.8901988633112561,0.9788937550959425,1.0,0.9274354186746208,0.8223168946728507,0.7131699922841301,0.5904958366642168,0.5075977209307649,0.5436897646593803,0.5526507979953474,0.5510903849969737,0.5724898807186456,0.5404506990769407,0.5290567870561089,0.549870265186347,0.5441367046734231,0.5580560440452609,0.5464550876929026,0.534832669491835,0.5319339287680003,0.5372874742241978,0.525249666361546,0.5049002903480484,0.4975850926059002,0.5072017840306438,0.5332456788943922,0.5400879324435452,0.5533337310494622,0.5474461779571929,0.5583206208308136,0.5501487473263653,0.5395099239562278,0.5400668249664977,0.5496929085085935,0.5262832883074782,0.5023623522502261,0.5007100263018627,0.5200577336589465,0.5452382215005218,0.5401449099179536,0.5316954606538302,0.5278282864014239,0.5010109388705879,0.5179263341615217,0.5444790951485254,0.5863328751683179,0.6662932331582754,0.7806287599430344,0.8591536372954507,0.8733513874201044,0.7977771552420756,0.6849688329681904,0.5774402036961575,0.5360052658612107,0.6112659370917659,0.6483328567631523,0.6597661441383176,0.6598244118070049,0.6390910207774221,0.6201373643823076,0.6486310536781956,0.6904629677765555,0.693961691339505,0.7057829732985965,0.699289201393607,0.7133882102609279,0.703028979281398,0.6826469002631015,0.6627221206172988,0.6376297935190616,0.6365861282112473,0.6092411859622375,0.594491422496565,0.5606715470537504,0.5129348869177068,0.49201955190187663,0.4977617696350438,0.5053853683096241,0.5000687031515829,0.5089298277170449,0.49321463771376184,0.4954121142473302,0.5244228091146081,0.5209800125736721,0.4806409683180952,0.46167310311729537,0.48632994771383187,0.49205613159408035,0.4978743580252569,0.5111584293595688,0.514989645060139,0.49371123674700845,0.47862993858583325,0.5041313167080053,0.576811357340878,0.6776114464615697,0.7928436557208869,0.8856760975299971,0.9244674701803635,0.8660730400869805,0.7842298534283909,0.6855856934222966,0.5692730397705232,0.4682201048575254,0.46994833656432133,0.4884957251849027,0.47510018536940635,0.4446090058732026,0.37995505746343916,0.2715223294738558,0.14635910380876638,0.03609647511890657,0.00020183271972307182,0.027931610192056144,0.127613139435637,0.25268583116404475,0.3613720950226056,0.4011270420559936,0.41786679291676965,0.35520592006027973,0.25114749829979965,0.12744996759814597,0.02731227547375159,0.0,0.02709869925452013,0.12573429020210725,0.23817027826924875,0.3223843691479722,0.3438315708074655,0.23312762294269795,0.10851330867739506,0.018895287409967043,0.0006282563586519352,0.026703704878695333,0.12438214584089824,0.2494192384363565,0.35938388547849476,0.3930902271530381,0.4421913982280006,0.5465860729758028,0.6629327995636922,0.7473474370712898,0.7000881011459303,0.6009154010398539,0.5052946463221946,0.4399611125501899,0.413624422882807,0.4248625974438234,0.4424986510118081,0.4467663923694163,0.434829707267677,0.42083783624663695,0.4156689113974972,0.3972575851201041,0.38782468311118246,0.4151249069940852,0.45140667520531963,0.42696815232922614,0.41523472766261227,0.41566189686596466,0.431000230781283,0.42081138290606646,0.41553924521184404,0.41301652968533364,0.4133482068199106,0.44600586442853896,0.5006320980667085,0.5185737773757988,0.5413819083733546,0.558635950799244,0.5799566889636547,0.6025752220442842,0.602195019351019,0.6248648294309458,0.6355811344662787,0.6349789287372429,0.6201641163178935,0.5910610958720417,0.5578988510301577,0.5446967662266871,0.5758968524374684,0.5807794488892921,0.5820236893752413,0.5534571534046955,0.4856119217612882,0.400462445502046,0.3862676702762924,0.4765064034755002,0.5843344568936981,0.6922476609274351,0.6836499759541552,0.592478455059755,0.5253555663324239,0.4790059177820596,0.4512211986444763,0.43939349792182947,0.4392928205193365,0.4661393258940665,0.4680536128405217,0.46308669990393936,0.44036391514657147,0.4198395537604038,0.4302393116953245,0.45980875596155313,0.4783475536472137,0.46915233775262566,0.4698527882664836,0.4856171304942154,0.4878262113931098,0.4809815617333433,0.4779628179795443,0.468240267618766,0.463384537720537,0.4457097082475583,0.4287171899724411,0.4351382055808517,0.45865997408013204,0.46795163854249555,0.46807492963479547,0.46882876590098777,0.48291081895619836,0.4877695278725951,0.47144311277730067,0.4520395106450317,0.4626679072426141,0.4944577894877473,0.4895197198869736,0.4827300445709115,0.4218501907484904,0.34033568425532756,0.33303894224280794,0.4229080381549606,0.5307043132803737,0.6508388339980353,0.760369923646179,0.8368261134607846,0.7643145294962057,0.6703458366014603,0.6008979788570898,0.5673862277446053,0.5445907904254725,0.5196045841265033,0.5139413485671867,0.5099917460989429,0.5075797953737817,0.4827138015292758,No
0.5721010509233637,0.4851994180075465,0.5108290013796983,0.6173366004619134,0.7156956334948892,0.8087484955158248,0.8288711446659369,0.7682980745293078,0.7399825350115825,0.7411474542154539,0.7500137692805935,0.7442708296781628,0.697808886230828,0.6530127389591645,0.6332340408849899,0.6211246402021988,0.6185126387932285,0.6363352518767509,0.6630562335438515,0.6827480182974046,0.7079084137713321,0.7193406815387542,0.7271258667711313,0.7216494589582698,0.706949907290054,0.7309976697448084,0.7674497083536056,0.7931837256192562,0.8166479657159682,0.8374372344861931,0.8418932697161958,0.8506788913817913,0.8467945691283512,0.8269850904132636,0.7795151557979847,0.7067270114041508,0.617315609627425,0.5808346099722619,0.6745283766819585,0.7735967896743197,0.865017238041351,0.8753909311955037,0.8170933259500046,0.7740363837377013,0.7367959311014705,0.7046182113481474,0.6817871982019446,0.6470281568093732,0.6241972857558804,0.6227135516245959,0.6229178647033242,0.6619223595639152,0.7236532341098307,0.7850838158523925,0.828379200469616,0.8320156105467018,0.8172371857376612,0.7982237040751836,0.7772577260655757,0.7511011730025188,0.7618062756923774,0.803711193824427,0.8565328595106481,0.8978403126969305,0.9228650187923031,0.9391659296201511,0.9270947021437701,0.9138182608058343,0.8991558687486516,0.8936806720864365,0.8787482883457374,0.8403295944743001,0.7784436638616672,0.7022072629087455,0.6119433100292397,0.6203804911909292,0.7150587385442249,0.8180203181976844,0.9087052215220952,0.9453448499954176,0.9466119431597764,0.9281303636526728,0.9304649544675483,0.9569825239911536,0.9265438546401454,0.9221835224414243,0.9661279919055268,1.0,0.9919791758589351,0.9660652225354944,0.946917674925003,0.9397610475452622,0.9294004507108209,0.9000305544602658,0.866407201893717,0.8545832262642445,0.8433813475898475,0.8570030035810468,0.8202837602544073,0.7980242527020076,0.7794733153463884,0.7594126676557029,0.721694001448439,0.6759547399531831,0.6330020664034417,0.6056975607170298,0.5804323401793283,0.6017450591442004,0.6120540321557661,0.5776176082547031,0.5674042769813443,0.6090599967420331,0.5860395274621224,0.49431136112159724,0.39905479083514184,0.3043738624926742,0.2955933508676831,0.3935848726221711,0.49075450604153126,0.5740936841405895,0.6521525398137333,0.6566661875544497,0.5978176083303803,0.5515674285857539,0.4994723478361536,0.39366572016007817,0.31000309880927857,0.24974697579603422,0.1457026341976988,0.048441186437921946,0.0,0.05771056364832727,0.14924949861105752,0.24331996273425727,0.3086560342997875,0.3826234955625112,0.4734777715024987,0.4716125265311635,0.37479512224940903,0.310039750992682,0.30938202456820507,0.372148574619374,0.47320784077008327,0.5228214641943199,0.5483451612875898,0.5806103324910743,0.6259929530994937,0.6702567029922868,0.7061293702282017,0.7219802219948392,0.725927104776531,0.7490733434298771,0.7788250822654943,0.7817768828305804,0.7894989373044066,0.8031884496315347,0.8351851941147079,0.8511685768301871,0.8626825488314083,0.8822710669626344,0.9070707355558372,0.9372100545258761,0.9279301298706826,0.879249403492544,0.8375280648869716,0.8521306994541042,0.8798443842164319,0.8663001970980986,0.8691214084204475,0.868702195345012,0.819743509005181,0.7234983987095651,0.6130809927285035,0.5023489704727804,0.39821856681356893,0.3035640989392161,0.27529976043109494,0.3454572017278865,0.43499795408952036,0.5321803715246931,0.6318246656595701,0.7182319013017362,0.7869748005596442,0.8296594179978198,0.8420560991318475,0.8397703832808436,0.8696897338927374,0.8724036051907871,0.8666510817919155,0.843090020269766,0.8025768043725092,0.7505961105720251,0.7032231470327965,0.6837598108826466,0.703335289281612,0.7284846983668469,0.75638883177588,0.7772088712486696,0.7728013213539393,0.7260154468505218,0.6654658824710666,0.6082101493751622,0.5660243124772482,0.5639863487957748,0.5626752039509517,0.5677270812640018,0.5890030603467613,0.6279865023531936,0.6465815926345289,0.6753718123572683,0.7186456482332568,0.7273188176183485,0.6445962312382325,0.5341923897817664,0.4303354471842651,0.3348423476352229,0.28687061347801457,0.3411435637800766,0.43154621169778196,0.527375625617347,0.6301126444813829,0.7108827704774523,0.7676086958877635,0.779426534832059,0.7803763296922028,0.7822761396820637,0.7659916984989565,0.7527821072727616,0.7244350447226955,0.6981875289361779,0.6609720316775625,0.6522530916955849,0.6607251199963509,0.6515939955356829,0.6463880198329943,0.6353603292246914,0.6171101459993462,0.5913577373512044,0.5673499003881073,0.5546783475654444,0.5524368436444997,0.5722203654068201,0.5749072570125886,0.6021198104486025,0.6590496385424749,0.6827265562748832,0.6663963102722636,0.6747157442721541,0.6937520373076147,0.6393116932253866,0.5422093162465007,0.4324279494296146,0.3217912859006553,0.22603226321159786,0.20472192566218572,No
0.2188949877024431,0.22489527735245085,0.22035762878027176,0.26265725612109536,0.3436089129119275,0.42401878784488733,0.5079741796231287,0.5908027118686352,0.6580607210063647,0.7218045229743884,0.7969747666470908,0.8856231918308124,0.9098407019735819,0.839681390291545,0.7539871557522075,0.6563699745159068,0.5583327544901691,0.47113810117428523,0.39170087670206755,0.3097370504873975,0.2337350326367278,0.1989052076673561,0.18189961447716607,0.15509641536112184,0.12064186499447205,0.08387089186128183,0.05956674711690013,0.06636374924502864,0.07488762446566666,0.07498448498524235,0.0686667229874347,0.05773172157619566,0.05746205311305275,0.06465314036459535,0.07475683497271346,0.07636884096517527,0.08965705280594927,0.09268349102097861,0.09269334936285079,0.09463674605869876,0.12060011568255158,0.14581275618299205,0.17013250567570504,0.20286755436312998,0.24081122994869242,0.27010372445971687,0.29435438234933065,0.3167389254399722,0.3080613523521225,0.28869190340433315,0.28104343891945005,0.2846978923121388,0.2671128730300265,0.26620161301181566,0.2704309967671201,0.2836011572773125,0.28689907015256066,0.2878424896170042,0.3082841627392461,0.36339150939569764,0.43793062160951957,0.5179540228892696,0.6003655149781109,0.6849902609473624,0.7721313532366523,0.8202492742342162,0.7635327795152018,0.6774734337300297,0.5796588082295515,0.48542306044994943,0.4270423875350482,0.36785378829158644,0.34875379248688176,0.3406558395541701,0.3302290186545207,0.29349391856573215,0.2672438904115042,0.25877820953090414,0.2837323351351535,0.29800566151583974,0.2973739625924381,0.2959188523240366,0.28111494982768725,0.2898729297007465,0.2915522124596652,0.2820005882514458,0.2690006241713556,0.26263307280754233,0.27538885373248645,0.2709340044205737,0.26925465533383397,0.2692223206819979,0.2646410565329602,0.26125605055509293,0.24632796142362468,0.24305176929638295,0.2541927202988701,0.2722705025433929,0.2821846230645071,0.270270416500638,0.27633771287300846,0.2982822241469063,0.28106551474050834,0.2621172882355354,0.26511544806357623,0.26288448912191953,0.27572482042205193,0.2858192241131836,0.2836173966391682,0.30141059600919773,0.3527502873249526,0.43042673260220576,0.5197085227306344,0.6059951011099578,0.6961241785113592,0.7812729546549848,0.8776423750254927,0.9601262595401097,1.0,0.9448939392590519,0.848698602303557,0.7597321073653283,0.6695987413383309,0.5882756042318733,0.5162960067384921,0.4272232465654833,0.3447734384889731,0.3126277366278627,0.314395451313509,0.29993460803629723,0.28190089880674796,0.2551541848403187,0.24507230831058857,0.2622184328758803,0.26919671581315807,0.2686903810396739,0.2445976692526437,0.2137715323416156,0.2250483505913583,0.21961899922449568,0.1953910735092821,0.18050277277873938,0.20056850498024437,0.22807856767555368,0.25040911132494514,0.260601232254956,0.2517178216521794,0.29374205846259027,0.3613587480046334,0.43141060597075365,0.49992637510026094,0.5649011078866164,0.6211019358383743,0.5595936997458386,0.47770676061951933,0.3987936183035061,0.3204603565019051,0.2609166674195724,0.23071492809540173,0.21974480841126987,0.2257674918383552,0.21873784941707441,0.20842703443824284,0.1994597162171261,0.21422342143531736,0.23576012722342643,0.23109703748770016,0.2248981833886119,0.21497290051975293,0.21603659322715485,0.20361350004479517,0.19206905305012123,0.19608627180600102,0.20847705249124715,0.2117888560334178,0.2171327510258978,0.2094048394021737,0.20922214108904358,0.20991939666810078,0.2186264246967129,0.2163029700940573,0.2269612878508993,0.23373917677940215,0.22759020652321071,0.23670346729720304,0.24442444259692753,0.2399757248244314,0.2067474900239703,0.1923777656985055,0.2104491899821812,0.24132309164705212,0.27853856255176535,0.2951376867139488,0.2867195368637576,0.3007168906013509,0.34234015807220786,0.42044670563205067,0.4635962520239736,0.40067254321766965,0.32740783802925844,0.26580524187679533,0.23715977242006092,0.22709044083908836,0.22685892727040535,0.22264744058970587,0.21524767021983404,0.2113919214856348,0.21222553059337823,0.2357288669242421,0.22789414967153032,0.22473060397686062,0.24415781194690833,0.2554140281751871,0.23828287558709915,0.21176969207390428,0.18477439821552855,0.14392711364201283,0.1091456899937362,0.08587520053965525,0.06103218978616187,0.05042585445127923,0.04406984436983308,0.03307090778021937,0.03265494147603176,0.0294920508435359,0.015252360285613165,0.006261318374821467,0.008170585906385863,0.014003991134787785,0.001835372158026427,0.008367201852047312,0.01909698436428986,0.021313565261706913,0.016336620954028103,0.006641014269449741,0.0,0.016570402279031615,0.05502545695066763,0.09014051425802849,0.12505590588859894,0.13495896520426864,0.13071662694218933,0.1861679773805256,0.2669653559136087,0.34344617409889633,0.41183786534007494,0.47835389622455526,0.43516846693329514,0.35639122129865086,0.27946325591953913,0.2131084955498772,0.16614615755759932,0.1582135437470389,0.15620849180080443,0.15655160506308308,No
0.3039975507086541,0.2987431186485927,0.3184074459691555,0.32031259632411846,0.3097711963139389,0.3176676506498328,0.31044046382459767,0.3099676319962721,0.3209082014999507,0.31777551202012067,0.3297979842232879,0.3361799906708631,0.32258497607167014,0.30982096832001327,0.3228522731975496,0.3198966875924505,0.30390730838966995,0.2981363753753179,0.2984678938303995,0.30732021100576246,0.32165158162994967,0.3399600568344936,0.3693221977017882,0.37082792623927485,0.3536017978447865,0.32871764142639837,0.28063252316619236,0.24088598423489005,0.2448647939199553,0.25965379768759167,0.2756549363430043,0.28780814067116056,0.294248981196386,0.31757988781513236,0.346413308207147,0.34946042069502425,0.33616470129324316,0.38121035222418165,0.4761689759085259,0.5903647368203835,0.6965610835915106,0.8035420147861494,0.9050876249293882,1.0,0.9974410442093351,0.8929206281376691,0.7762946549393108,0.6738464602112733,0.5599640064727525,0.44195927081598274,0.3277509986373346,0.2585550680123938,0.3199657375850089,0.41858926706798494,0.4679026132359838,0.4692843971672569,0.4394164364832607,0.37384473742928526,0.32501913619474543,0.2945669313423829,0.31100043065935434,0.32516475424888824,0.33394747819867554,0.3376741776050731,0.3488161474573328,0.35404309183147387,0.3710984306969003,0.38413276712538336,0.3738720431532583,0.3785594078500476,0.3803884551004644,0.36707813532929956,0.3738449527098724,0.3841354633470244,0.3729157593021428,0.3617368137120853,0.3536279509052265,0.3281065905729603,0.3270536725616635,0.339756333312609,0.3622352496198644,0.391003105839113,0.3846567192703292,0.33981189948189794,0.3017711010607176,0.26651829700231877,0.2269057161604109,0.17394200532992699,0.1499584581678457,0.18318220405148633,0.20582833997287597,0.2164593601806497,0.22711771585606177,0.23325856045252769,0.2334490130782534,0.22614815002756972,0.23475867939541883,0.24315733954048024,0.22557967117450728,0.2933147278425756,0.39715066157473267,0.5055343786048963,0.6206217705382038,0.7224825402512014,0.832486724162159,0.918803116785126,0.9004865854788848,0.8047998844048481,0.6914650485315121,0.5734569144744142,0.4556438582549496,0.34851474447484865,0.24044902625200892,0.14823076340497998,0.20518444373592892,0.306715757913528,0.36797091345418753,0.3643173862839286,0.3157515259584529,0.24983554458560642,0.20773579733248404,0.21867200281169907,0.25322663324163885,0.2823963678070145,0.28609573989359793,0.2850943413265905,0.27503753701482525,0.27792249794019597,0.26007271193471615,0.26185948693555705,0.26390612421898263,0.2330860871885534,0.17083956604858308,0.18488043778399588,0.18344421976309144,0.17921723031530012,0.2071872740823153,0.20030695754105254,0.1914626842039131,0.20387998380773276,0.20861678103491332,0.19400261766965698,0.15986315068357682,0.1267252376189285,0.11573244320163312,0.15280824735991105,0.213266942667802,0.2780161040673996,0.2804843698796273,0.2116664241168973,0.10741008025904009,0.017842184395612914,0.0,0.07666335412014291,0.18055822631602148,0.2865156641909996,0.3893837177527444,0.38778634399815504,0.2904022846732639,0.18897011941640596,0.10640158012789014,0.12217598951007291,0.1673227056073361,0.16777116209704523,0.1457878932386123,0.14421058665057895,0.1515074895618449,0.13480648102964388,0.12011044206364252,0.11779381385786936,0.0800542557867483,0.058251528217503346,0.09723024227261767,0.1477868880728126,0.19563734722528903,0.23249182343818253,0.26884509064104023,0.30735650677325665,0.31208594781269383,0.28083062497819045,0.26219970721835795,0.2469399718691898,0.26021136826822566,0.2849862356780988,0.30026605160833775,0.2945533770694251,0.29384668458177643,0.3007034232185366,0.3027723383431242,0.3077181152287687,0.3057532840708945,0.31770974134755514,0.2920786586297428,0.27425675358276935,0.26739269454592485,0.2593211379128153,0.2501705627194277,0.24986248276992384,0.2289394554282418,0.2260608023438957,0.24986946057156656,0.29590953351878646,0.3677091457847359,0.3765897717129594,0.3073533587492632,0.20965168995825856,0.12875249235685926,0.1387114977997399,0.22464446478921252,0.32483658185931574,0.44151856386125043,0.5484816838681255,0.5273634723207099,0.42861888873943377,0.33189436961038643,0.25035705580511447,0.23919938713219935,0.2716360449096915,0.27007585909465215,0.2682575219389425,0.24287098581966227,0.2172876974032305,0.21551067019238523,0.19939918283119473,0.1855262990550206,0.16593479942659783,0.16340368443351272,0.19523136796876805,0.2407671385075263,0.2762482717934107,0.29045413335002834,0.2900416893840707,0.2610210348886697,0.24342316324789426,0.22622157344322646,0.2211175170994748,0.21648722374228946,0.22442888938449856,0.24365256470615826,0.2506718931240073,0.2346594014008585,0.22729314355919028,0.25060603084964717,0.25445647980252994,0.24804386748892826,0.2467005056739917,0.24151873971074034,0.24842776758778085,0.23898728423997406,0.24184260695967774,0.2418870573960512,0.24624300072198002,0.24121501167581982,0.22370912478877436,0.21296400261516268,No
0.7809991583075124,0.8698258783908308,0.9431694164816484,0.8977419265530799,0.7866329184037899,0.6765528462642791,0.5653602902379333,0.5795814658033334,0.6816267794428565,0.7564423255260224,0.793076610671942,0.8153978613681425,0.8514711294860415,0.8411042441537191,0.7888780186719764,0.7629960134456311,0.7743218364110094,0.7651852106955643,0.7492338128492988,0.7492782507684423,0.7770847479622716,0.7800265368747912,0.7827036593091221,0.7741579945477675,0.7783969771034247,0.7762831897590683,0.7813712693554433,0.8111473313473252,0.8247281660498658,0.8153499208093167,0.8028163521309111,0.8170925130714934,0.785735238552709,0.8001672289093431,0.8080155152440658,0.7882890204943274,0.7648394250797246,0.744036281848103,0.7326062711271315,0.7223110120200729,0.731338037673817,0.8129568092372828,0.9165588222638337,0.9784730360284293,0.9135491295448084,0.8009982399935653,0.6868009359849379,0.5664484864716091,0.5403169205769451,0.6354660169267161,0.6985989317660719,0.7444221803487587,0.7701875933691822,0.7966725026904715,0.7841829283424535,0.7292097325729059,0.7227458649506451,0.7657128064107828,0.7644651914670622,0.757923713217656,0.7581654861743106,0.7642179947851644,0.7611760956251166,0.754852973809697,0.7444193562372332,0.7373605158244483,0.7333512464703293,0.7273920778290188,0.7324963488702356,0.733604976066041,0.7362558520010993,0.7334376100308884,0.7272805433078013,0.6886073423072401,0.6861191915096652,0.7094102033395147,0.7237617782911787,0.6955807500128999,0.678924004246336,0.6657812770333651,0.6743644187135196,0.6846304951497051,0.758087043594204,0.8598785002287825,0.9630949845848198,1.0,0.914382866082291,0.8049659235066637,0.6838421559326231,0.5667594344136759,0.4806646963093262,0.5438429232590734,0.653625195177753,0.727619400941323,0.771619690975748,0.7909665580814487,0.8064244704891919,0.7735366024015207,0.7263318802917285,0.738331351032222,0.7664516328610511,0.746604862884575,0.7337589092755525,0.7336166769937016,0.7437127665230094,0.7232056254586356,0.7113645853094521,0.6985456956796612,0.6583967002179483,0.6497498844384464,0.6609129939537355,0.6441722438524153,0.6092496099869051,0.5524047832076597,0.44394330229844536,0.32095749979858734,0.23337577517347352,0.22876347077382997,0.2940025816195204,0.4144113347028968,0.5283367688181935,0.5769776751282238,0.5972361271995958,0.5692178854552812,0.4894370506771182,0.3672810645138429,0.25849950523843024,0.22175756016270265,0.2485042952630696,0.348786568533785,0.47189094006019694,0.5632812987897142,0.5462885553414294,0.4384759940212759,0.3159226349285609,0.23670638936935928,0.23281034554391722,0.29889156779979764,0.41988972883988795,0.5323334216456801,0.5833577081303107,0.6244205734755166,0.6313665407659523,0.6563958002629136,0.6720754274436835,0.6650866853502695,0.6756461989263234,0.6901436233638254,0.6950617811633606,0.6425223596147345,0.6427627901283786,0.6857756992612978,0.7335740353750566,0.7306425748656493,0.7079478350453576,0.6445708161300634,0.5606388997615102,0.44750615071843436,0.3334874053427592,0.21754707034943177,0.09737497671103279,0.0,0.01100477770536834,0.11750701587647416,0.23020654672125485,0.35391451069550683,0.47157266292182065,0.584055333763311,0.6805544092169469,0.6473944456300309,0.617460161022243,0.6026864851247136,0.6050775400590775,0.6242028434127418,0.646567870827095,0.6459298086150955,0.6383318281238552,0.6236406574158866,0.6472865753697268,0.6691080054156249,0.6698349859278827,0.675568074221399,0.67427551575835,0.6671000020942972,0.6763146230909882,0.6902203595113767,0.6943502045525509,0.6999322881400483,0.7060773185867668,0.6957312837989655,0.6978095911687765,0.7058687426413877,0.6925198863066679,0.6423513705786053,0.6400201437571753,0.6852807327380979,0.7311883875718475,0.709564400365688,0.6904799776808748,0.6396935791917366,0.5571596174354663,0.4458594017926396,0.33270627547536513,0.21241702582528443,0.10639698799282638,0.05851229121189272,0.13823975938360133,0.24727587581918886,0.3685373057831245,0.4799238716633578,0.598980718134916,0.6945576036407504,0.666032445643046,0.6460845761028775,0.6589024820838749,0.6645534166841043,0.6846754581099446,0.7077639206327069,0.7341947721113797,0.7458549119521032,0.7221870874537215,0.7314620431006866,0.7393976940673168,0.7474427065602636,0.7475142491777271,0.7311767172856807,0.715238414821544,0.7130162454813918,0.7130117717431914,0.7130107026110828,0.7115302404489325,0.6972064851342603,0.6856395656732297,0.694059698720662,0.707216304581261,0.6970003220854246,0.6931857308254079,0.7450302961186415,0.7590471813113013,0.7507522599563883,0.7426715957849823,0.7073702299374136,0.62561775019245,0.510952580156173,0.40002174012080394,0.2804056712815539,0.16414926638169014,0.08315966145700271,0.11592848762319141,0.21642070616750386,0.3334871093099485,0.44368794672745526,0.5648211715181799,0.67426865720098,0.7034818495751063,No
0.5882741729622398,0.5997587665131787,0.6361617387800709,0.6560460899142084,0.6442472690676606,0.6222503379495654,0.6244442088866178,0.6144928805661021,0.6060769215474426,0.583403674774019,0.5377514804499,0.47321733629257245,0.388858827110961,0.32235710121762473,0.24892911820557195,0.2923991227289213,0.4039066445082593,0.5063725632673872,0.6108319969898401,0.710179967304049,0.8173405184289564,0.9113054636401343,0.9472847092817211,0.8806593247335193,0.7999802543635681,0.7146889012535045,0.6203150944244822,0.5825426063845551,0.5758186429126311,0.5535688114623261,0.5195272745212205,0.5152114859057244,0.5242871161142117,0.5463804983671006,0.5590007497222267,0.5640196321007753,0.5600364825331847,0.554712978948817,0.5606932003133487,0.5509281259413177,0.5504712656317126,0.5412826713025427,0.5254076269924597,0.5224218314923208,0.5322386696193817,0.5453929456552165,0.5419361899922999,0.5485274526888486,0.5473584713296833,0.5867066348905094,0.630263366773288,0.6935300476042761,0.7345795422064341,0.7129935397992151,0.6881645029119192,0.6772529717484614,0.659974277223276,0.6489161225795255,0.6271745769686601,0.5801286834456363,0.5141045184713087,0.42622082174861253,0.3502896030933087,0.2973322432539942,0.3606718248125369,0.4735420163214443,0.5841818499080325,0.6836585389982361,0.7902960985016096,0.8904240027907253,0.983327708966288,1.0,0.9152833901349942,0.8164315286731121,0.7192518833478854,0.6838869598755135,0.6724497841528247,0.6319783257810032,0.5966562127200712,0.5743147647895825,0.6062092159146113,0.6317642081137085,0.6373755321205326,0.638188042192092,0.6309041550807422,0.6360409842487846,0.6361942903770901,0.629433436512365,0.6189350822467237,0.6038503231085883,0.5986659176905453,0.5820457277816251,0.5808866846415275,0.5993835779258805,0.5889467137904605,0.5886199918974375,0.6020179993552137,0.6329254115104779,0.657868547509227,0.656970874328513,0.6458370930189998,0.6229580042599001,0.6167450262469361,0.6090494430785598,0.593661868714443,0.5610742959727597,0.4985988134917365,0.40833238793172555,0.316736002776417,0.2421021499015512,0.2797451169235403,0.3832115305362329,0.4847744710587407,0.5885960636623753,0.6926096621040103,0.7917780893530213,0.8330530082035383,0.7781586341457172,0.7627234172236679,0.7361456470316758,0.7033659874705318,0.6683329764842019,0.6337106384918556,0.6337332631095434,0.6734262179153117,0.6803680865435444,0.679342962901671,0.6761775586873999,0.6569556045926142,0.6300584824997437,0.601496323377853,0.6069063742519245,0.6083934247885536,0.6027293841956847,0.5996430911916248,0.5648211952675144,0.5662369012624309,0.6030944625154184,0.6413593556789139,0.6692212999866132,0.6722213711419851,0.599166730483335,0.5629873327233335,0.5006707704526736,0.3921196143824597,0.2923605952416737,0.1861749413137983,0.08512171589734807,0.0,0.019470646070754327,0.10204374149282947,0.18474043330890666,0.26943734062488733,0.3469254284364629,0.43481988910114655,0.5012098248016703,0.534635068162951,0.5431557178064095,0.5526047436925148,0.5742119872802491,0.5926505915098081,0.5898756384128299,0.5571919470893691,0.5217637922953595,0.5209007547082662,0.5257094577855987,0.5383692993107743,0.5190330959433522,0.5087596951152271,0.5234319735768977,0.5380824987208404,0.5501202217241632,0.5550799816933583,0.5730750545315639,0.5755932643848447,0.5646357532449309,0.572925831408881,0.5616572435525704,0.5380982298742589,0.5088966200867953,0.5165039199248711,0.5452242895922863,0.5931157457942402,0.6170985645853264,0.6005317846592901,0.6110219960619374,0.6853919560503305,0.6605267707784708,0.5594872209083732,0.45592313645279603,0.3563823978341567,0.24772062797068628,0.1620663863374605,0.16350479088201908,0.2344215383509738,0.3116322937555136,0.405090545436503,0.4953122378905097,0.5551402460082757,0.5810826350600111,0.6044723170418371,0.6178332916902289,0.6256936884402102,0.6485488996033162,0.6484706231193189,0.5850577092813536,0.5390797909324383,0.4923368278969602,0.47720999318292856,0.4841111839849206,0.47655472662458553,0.47280262549420504,0.4603396204323329,0.45551714933937326,0.4533509597891463,0.47789342886241704,0.4806642092730158,0.4851087916290293,0.4909691044249773,0.4743935621489963,0.486147594979105,0.4928521676424489,0.486734237992001,0.47150832691422284,0.4273735598607393,0.43094864868389227,0.45348763696809335,0.4815491010155082,0.5082527629297351,0.523473778260493,0.5477096714876657,0.6254966365131374,0.647687216371033,0.5584115279285298,0.4572622592324853,0.3509880330477988,0.23944326096519486,0.14049953744473465,0.05873018605171776,0.08916321499094737,0.16385512035688388,0.24609044051216022,0.3345845745911644,0.4224726552321165,0.49439109278213733,0.529588969365923,0.534540559437338,0.5569754492314867,0.5545174640544626,0.5608327671623181,0.5702533622252646,0.5657032317358683,0.5396955887437458,0.5142045798211288,0.5222410850540116,No
0.9452384429664831,0.9370986439955613,0.9348401468612051,0.9334697257079874,0.9298236608781412,0.925710732924425,0.9169416949250995,0.9179435621441205,0.9007406038388057,0.8968117815817072,0.9051371401159025,0.9034499730956902,0.8911469734877195,0.8785725394892434,0.8616701056924854,0.853252863632987,0.8572697773009781,0.8652404488209979,0.8828722110817384,0.8935757665794852,0.8939603272842878,0.8735747170397661,0.8326440677116029,0.7750594847376095,0.7032738502625728,0.6666173421362196,0.7043521861164292,0.7562571768058881,0.7966754797263287,0.827757717813969,0.8391549951391968,0.8426176962292165,0.8534670365847765,0.8497961834607668,0.8249245120974227,0.7812727492999374,0.717346750879772,0.6434113130000945,0.5606653507773525,0.5197371688769559,0.5869264516166581,0.680190430259102,0.7659958640389213,0.8524008774959435,0.9402380565113975,1.0000000000000002,0.9836037026022544,0.9491413959470345,0.9417521897415522,0.9390852813033883,0.9583585026973578,0.9541356707700548,0.9582499569197969,0.9442989477443862,0.9344734385877376,0.9233995708004505,0.9312009156068937,0.9286007921803214,0.9234531242604118,0.9335231178437147,0.9228786815674692,0.9083584374902423,0.9042652316739159,0.8905740678171064,0.875670844834114,0.8740087229754037,0.876988679056075,0.8915405844192812,0.9090062672849568,0.9148211880158181,0.9046588042154509,0.8848467748918603,0.8414052885966832,0.7845403100927906,0.7192588012617953,0.6588603900148409,0.6762548019304473,0.7269127294484157,0.7730639055148207,0.8130540112743849,0.8395524733996267,0.8624451130146153,0.8729902185699279,0.8667487120279003,0.8565674912793801,0.8264210340330929,0.7700320832925807,0.6921936875935686,0.6177415807541349,0.5380099622554531,0.4492421838507419,0.3673165032396868,0.30644731370612033,0.3698743016799273,0.4634336712810818,0.5511933922049475,0.6357452477101877,0.7292357508770373,0.8170969127166521,0.9013726112337517,0.9786991228955209,0.9822272911918766,0.956814882700632,0.9524638012136932,0.9575536553651081,0.951870700193141,0.9392477631361025,0.9441723373777993,0.9450154584656161,0.9483454404440959,0.9453763546768952,0.9454364978061534,0.9410620018837983,0.93673339127162,0.9344360786861265,0.929743233412448,0.9252966579714597,0.9121416198174017,0.8967791475212781,0.8874591800642253,0.8716617405460851,0.8349704208081838,0.8270416528758002,0.8421181753196392,0.8530427746563374,0.8730005107798748,0.8758826474097698,0.8683859845338568,0.8783562059021286,0.8834256208213127,0.8890805009887426,0.888817767891896,0.8829167925856283,0.8985912736099688,0.8961810086198316,0.8800629569669736,0.8818099719171093,0.8983079077188101,0.8931610242576749,0.898396840357065,0.9017113395286065,0.8498380966877235,0.7637357634515023,0.6785846210757775,0.585234969817775,0.5002665711971395,0.41293283841336526,0.31919011406713405,0.22664786081433297,0.14461514359303163,0.05615164324983257,0.0,0.0313598571368896,0.11675749428818794,0.19892683190974925,0.29097752683243194,0.3736806230937433,0.4636938817966467,0.5572236707620004,0.6402731768732723,0.7110970405488473,0.7764543677140214,0.8153102744353198,0.8206510051849978,0.8146423431633936,0.785563430512082,0.7733221148911882,0.7374246660092278,0.6864298960659811,0.6392935034690661,0.5977731827833137,0.6046469716764451,0.6570277190534919,0.7257884260828658,0.7856756956162096,0.8322739749417674,0.8511479696204887,0.8575537289962301,0.8445140709327414,0.8293166297582639,0.8136446451111505,0.8206234909867278,0.8293558439683533,0.8386399091845427,0.8549237793722859,0.857733077501251,0.8693702965439225,0.8771718041456571,0.8755034906108425,0.8746083099192707,0.8761367383521164,0.8760009856289932,0.8748386370112871,0.8956475753977788,0.9027376289300777,0.9110090300635398,0.90310731743267,0.9019053701113482,0.8915855946851903,0.8945797716914139,0.8917896007415671,0.8931539814201634,0.8187800010709922,0.7342440929212375,0.6467039889425703,0.5529540421653258,0.4591282616544443,0.36530248114356234,0.27148329255535075,0.18022056451203916,0.09881441942169356,0.027023849686744983,0.033447710686084875,0.10599395559857516,0.19375189959113115,0.27738773508931147,0.37066087971354666,0.45729601232737926,0.5426143061676709,0.6261645421131103,0.7020842681415351,0.7665905570999667,0.7952754329847702,0.8009353585177539,0.7900134605984037,0.7849713231365001,0.7573178347613332,0.7248674902371406,0.6698415486434868,0.6206224494974386,0.6082425091496948,0.6499442975984981,0.7133262875268922,0.7744328546492436,0.821563500172245,0.8451186684187217,0.8376882351447705,0.8259520541562837,0.8187958219129607,0.8070584809750592,0.8139208860100025,0.8247769625379744,0.8368036993608954,0.8440851114550056,0.856119402265813,0.8529044561319175,0.8520683529795592,0.856045207955108,0.867521879388433,0.8785794556575215,0.8818422566101354,0.8804336580211631,0.8914628171827375,0.8751913776534963,0.8943687485463829,No
0.875952396155407,0.8277961377621117,0.7618688736155224,0.6874275779850367,0.5990103080347065,0.5096294834402313,0.4158657093083957,0.35142038264758746,0.4159101512834589,0.514863437314069,0.6138003574218351,0.703850601219969,0.7975616617718431,0.8944982288989718,0.970639545670883,1.0,0.9658144758073819,0.9502210832125026,0.954691694339862,0.9549865260062527,0.9358016258212158,0.9271137392040094,0.9324143177359243,0.9347714665610147,0.9347775145751354,0.9347775145751354,0.9347765386312266,0.9337056238798809,0.9225617684404086,0.9169345384203749,0.917521849977152,0.9292071269378983,0.9172127225790998,0.8835432728864396,0.8303646753294842,0.777275930914302,0.7730502088971574,0.8109023991511068,0.8501220692078109,0.8809429596148313,0.8890958808247609,0.8849749575704515,0.8740094329077119,0.8534971784775394,0.8017836876777982,0.7330207870500991,0.6545574715154046,0.568026507392295,0.48337790446423057,0.5080049854997641,0.604017103436354,0.7029943619208714,0.7932774189452676,0.8863553850172621,0.966433634863165,0.974512676614903,0.936445435184527,0.9164055350664015,0.9263701212033499,0.9345785027077205,0.9343220000966457,0.9196072236313726,0.9088648744525698,0.9092170196893798,0.9150460214430809,0.9121439961891862,0.9050098250451728,0.8984856044406477,0.8894658035689034,0.8861791085869659,0.8868716585534431,0.8897572846960315,0.9043136088071035,0.9231821450595432,0.9301089192498986,0.9256192263668521,0.8785174350499907,0.8173523186961611,0.7684477790651165,0.7815606157890849,0.8225057964306606,0.855479912065658,0.8819636319290685,0.8767617069313691,0.8842992430922099,0.8733034443194372,0.8508681588302078,0.8033156870194476,0.741878212969048,0.6658487890157367,0.5705623577962338,0.4721272475337499,0.41421383243895704,0.4807991999127492,0.5687922890366575,0.6648097532408492,0.7627091187571526,0.8505964070445331,0.943626421117306,0.9852731969657254,0.9511520079348781,0.910896410366516,0.9110439660920413,0.9302104461929477,0.9392031051910923,0.9261818418829826,0.9141932509615383,0.903945581183109,0.8975556905214606,0.9039196922261432,0.904385571673656,0.9043856633861558,0.9045840185826934,0.9095519473519063,0.9052720555976546,0.9070686845451337,0.920300351409971,0.923390431381188,0.8906354134667303,0.8688345895545297,0.8622860227511708,0.8530758062783903,0.8527386914386548,0.8564645010546785,0.866505923507725,0.8568164633199777,0.8527427412012005,0.853025301203199,0.8617702629006385,0.8633468118660144,0.8719442597577607,0.8741155362791786,0.8845029600227958,0.8804674011819689,0.8687323298739891,0.8704557212996309,0.8937668306985325,0.842096819612379,0.7486533071984258,0.6592495607248203,0.5609223006330337,0.47143756633636835,0.37704498651165963,0.2792354939663497,0.19137493331674538,0.09727660801401194,0.026285397941461897,0.044354059172666105,0.13430831628467033,0.22229280367718784,0.3175631121576341,0.4056091349178965,0.5008395473815104,0.5883200659161676,0.6743080406902835,0.7452348497632744,0.7954178116923596,0.8221394108697226,0.835041746089161,0.8367668982715539,0.8168896625303268,0.7821335131330813,0.7414043532636989,0.7077800987247178,0.7249776847985188,0.7800656947269777,0.8436352087724468,0.8805403857066136,0.8790592853526928,0.8569709109299417,0.8477654109867578,0.8379721893179419,0.8378294565315025,0.8466937082692123,0.8526479773909634,0.8546390964352439,0.8661109812571426,0.8678580532743596,0.8631971556509006,0.864550787602731,0.8698212571881236,0.8850583740808355,0.8757055098205191,0.8716021402888843,0.8709142105466667,0.8959537000458107,0.840272199012527,0.7437440252149261,0.6559453470566714,0.55842158101572,0.45928346215009164,0.36732703648994125,0.2756378712970271,0.1801354309857146,0.09254633961730985,0.02132016548564586,0.0475852088700679,0.1382277845569051,0.22662959186674225,0.3223355180357401,0.4159000013502414,0.5056397688255023,0.594622369949775,0.677959091605687,0.7499855001782683,0.8099466538047597,0.8355061965152744,0.8379806286359526,0.8422558378129952,0.825311841877121,0.7881480544471087,0.7467811063962779,0.7070613709760893,0.6869948188763804,0.7308275127484598,0.7886704168323706,0.8493889796017298,0.8772092848100108,0.8726760677147705,0.8679574184335865,0.8689302980295337,0.8807548562814986,0.8944494432810659,0.8982527394849349,0.8942798418211577,0.8930540310143265,0.8857846857255756,0.8831201625023115,0.8831151930956462,0.8856927584871097,0.9080496542046856,0.9121196524905688,0.9022051946861982,0.9126885096877242,0.8784454649316036,0.7930415621145341,0.6941752999856674,0.594895312111714,0.49561526489438146,0.39639528027926696,0.30268505144447455,0.21262096040931255,0.11603357609622456,0.03297282832062387,0.0,0.0646328734178041,0.15635964594613783,0.25307555355714273,0.34088709938084394,0.4287114399506482,0.49769214016177976,0.5904025982887608,0.6762345074070253,0.7564791119941208,0.8171101334435895,No
0.5173158776890521,0.5279479918559686,0.542410804831988,0.5557813498772433,0.5820634610038362,0.6047897868430425,0.592955995203928,0.5575804095421284,0.5453749500527643,0.5352978411658089,0.5276170326228162,0.48547176903771305,0.4226711800734284,0.41622215832380327,0.5231761740804108,0.6419737487951855,0.7489242850021469,0.8615782279440363,0.9341015883517496,0.898653168673381,0.7973081266577893,0.6885869292887703,0.594286969025454,0.5724208985672128,0.5786398421072287,0.5484108587319212,0.5250283148410992,0.5539197813980463,0.5593176728596179,0.5548235305030427,0.5634640143263661,0.5551262838357873,0.5762355361674776,0.5935287130067213,0.6220724744883674,0.6590732866832818,0.6927596605234543,0.6846483676881712,0.6734123856073504,0.6595866743935321,0.6558580821403495,0.644472625367527,0.5975951339825407,0.5229619124883489,0.4767561687351747,0.5478946382695935,0.6657464745670381,0.7723569509698471,0.8870887079369156,0.9832046153409739,1.0000000000000004,0.9006172513212269,0.7920364299901799,0.6996379152755217,0.6761739907324165,0.6484556900559819,0.6144098675931895,0.5596461962288886,0.514338860796896,0.4872590319595602,0.48184386316827466,0.48933145179160276,0.48739886738944227,0.4941363132259329,0.49828784709617313,0.5197308868329329,0.5476116435340335,0.5813711767370089,0.5956829664502297,0.5946162825755401,0.5867772166237022,0.5789586267748374,0.572697648449108,0.5272180950769605,0.43773028850410345,0.34345292453838017,0.29034515012564777,0.350477080945264,0.46706084733927566,0.579538966519114,0.6887569202744444,0.7958808617061548,0.843046392411233,0.7657354263752367,0.6570416437935189,0.5528741172652811,0.4913253694859532,0.48738803784040474,0.4774642952304684,0.4618979574224915,0.4794319963473952,0.4968228487635211,0.4886674248709535,0.49470018275374095,0.49257748000323387,0.4935180580923242,0.49957974680949135,0.5180095818419921,0.5565461802605767,0.5911835298938266,0.5951839306409581,0.5680575780954538,0.550934633237981,0.5302469451221148,0.5007392282594054,0.4488491928319265,0.38185439252888376,0.3757199218062679,0.4799579268129408,0.595237761813765,0.7024329068672781,0.8195891213159698,0.9184188524606447,0.9405168087441167,0.8556353448613105,0.7462834003956886,0.637251544013826,0.5376012154306657,0.5084611217647312,0.5106321184738705,0.49028789747338797,0.4396725455352479,0.38480463819414235,0.28660614739502677,0.16760426380685267,0.07204495204335348,0.05522632312673581,0.10460279658490057,0.2170579983042673,0.332049450752109,0.39128812240131916,0.4326175919879067,0.4429894770793883,0.4500047685884052,0.45363218707032216,0.5271179428855541,0.5153825449912395,0.416315633491656,0.38513305894405603,0.3206821645804432,0.20389317953950226,0.09536842827979441,0.05929900579662872,0.08122552165609509,0.18064538518343864,0.29877085943546833,0.3492062972342902,0.2554196076939421,0.15767214364459914,0.1349487787163106,0.20981557212177115,0.28444688203428026,0.34966518034361327,0.42329130304802876,0.4651048625430443,0.48546643289149394,0.5007040629195143,0.5271351830195705,0.5377335287249978,0.49863034132218464,0.4614937375234516,0.4394255319471938,0.4373599562876822,0.43735662728022806,0.43736700477572166,0.4402714710361533,0.4376233478864524,0.41116320844252696,0.39300265613054686,0.41596408024227793,0.4267773187569994,0.42295858060354385,0.45901155381988445,0.5074033402845108,0.41718114043162524,0.29834012183100755,0.19107133462764914,0.0772205008567628,0.0,0.04364701469793486,0.1434703058322122,0.23348029764509448,0.3152006712763056,0.4125248246525537,0.4939434901627173,0.5260460791701691,0.5278972628228735,0.5335934663554229,0.5384382196462996,0.5204636531577473,0.4876204429722084,0.4617552979432289,0.4443986029950189,0.4374367139671671,0.4370181365247996,0.4281045590619623,0.4296490638242143,0.4333289090921659,0.4645716670960214,0.5049545475628126,0.5607166817234868,0.6011473995993253,0.6283122290868461,0.6287715008306249,0.6724256869066063,0.6230454159731287,0.5086691288983975,0.3935565982686047,0.28702353355102606,0.20291277848696998,0.23540142809799391,0.33661163763722435,0.43195678583552377,0.5110113033204331,0.5756447692440356,0.6049980415143907,0.6009436239213128,0.6119079125754392,0.6322892988321951,0.6330399646158908,0.5947826693834037,0.5594210228220144,0.5331814091210925,0.5184028050855658,0.5098942386773051,0.509729904262286,0.5095949739187882,0.49935770321288553,0.47605083286647787,0.4804984187540393,0.5115969128126432,0.5162173290048666,0.516534045252171,0.5109954529177383,0.5817215980891519,0.5411841097593246,0.4236752361978655,0.3124554747984889,0.2056568889130972,0.16320646889763912,0.2497964876304497,0.3452910303523202,0.40629682743922757,0.46335295279144306,0.4865332915429117,0.49622042873040995,0.49158562636602277,0.47727340056068357,0.532187649455695,0.5524860101649685,0.5279652866765514,0.5081017315719598,0.49308590859167856,0.4782107117970176,0.4735693622276371,No
0.8621064311074944,0.7683724460283718,0.754112009453328,0.7666391441952092,0.7434334046544162,0.8202278338820461,0.7887064750249904,0.6832223689710082,0.5750580267032452,0.4492044324802231,0.2984595250178028,0.2804047266649592,0.41257310802487623,0.5388893080950234,0.6562393194017213,0.7229687631256256,0.70651267706738,0.6965359260281225,0.654935884074872,0.6900853768573967,0.6608781242123563,0.6097682259855555,0.5748909751259914,0.5976273961190293,0.6486132298529306,0.6788114522443554,0.7176447996898796,0.6843241023690778,0.6625377757122255,0.6792725850602173,0.7119479853236736,0.7287103243253297,0.705429513372648,0.6877842055961985,0.7049457662251193,0.7399086278501859,0.7710169504087858,0.7715512202037527,0.7803445275112848,0.7302992629538352,0.7383677725060362,0.7891778546410384,0.8240610057196491,0.7855360170227961,0.7863521592252667,0.7770318298253098,0.7553810233733662,0.7003687981017928,0.7182441670048014,0.8124031609440747,0.8479010949243992,0.7529327916723725,0.6038259951819231,0.47182908135829216,0.3457187052820636,0.21558471813205138,0.2879122672867087,0.41033912141226736,0.531042477475661,0.6475627460036897,0.7140381175597508,0.71680499103031,0.6335324998904293,0.6191436469778164,0.6323383795734099,0.6027012327000909,0.6715127225424897,0.7349814510230344,0.7034476844426711,0.6449726778644536,0.6413584846563456,0.6855731827130311,0.6635214230250401,0.6802197266562828,0.6843260539177347,0.6679818221699767,0.6979246968642414,0.7245189196991157,0.7700756476579427,0.781037649126449,0.8108919209794392,0.8368263196787815,0.8151542696938474,0.8624361882896245,0.9578380231620329,0.97243398301746,0.9667655947586535,0.923847836775832,0.8539606281150336,0.9076812821858535,0.8827006603328424,0.9138063551395925,0.9878006963091295,1.0,0.9462400497751791,0.8076113805402558,0.6714280738744574,0.5422750013969342,0.44314965708272513,0.5122131573208284,0.6476536481474113,0.7678185221156362,0.8396406456327785,0.8673445314404153,0.8854246366838501,0.9018960884977947,0.863590246372409,0.881041009063285,0.8956174102350332,0.8265679550904954,0.822466732981753,0.771190528910374,0.7240089971443027,0.7085137679246385,0.7414203268466597,0.7883491059224257,0.8277099913965609,0.752306081773213,0.69200344383031,0.728832534019431,0.7777391439783381,0.8357518253854108,0.944301459638754,0.8876962462209956,0.8176371091303789,0.835335145674807,0.8590278158134472,0.7692337924439006,0.6653519230645948,0.6158132150278561,0.6660715212412578,0.6898453737284083,0.6253281533525925,0.6211688138765865,0.5781682291734143,0.5446325387376598,0.5335636944388513,0.5712196767012809,0.5979069183915344,0.5720447379741938,0.5264831778785481,0.5221404067767432,0.5758365077467857,0.6532850217818957,0.687757750848391,0.6777659478508768,0.6281792105409192,0.659908133401518,0.7045590831305377,0.6685400806441226,0.6543322405024927,0.5906768975757366,0.47184956891757324,0.32442504238285164,0.1790667475641099,0.053990571960300215,0.12286436150723201,0.3189924549620402,0.4662362609912538,0.6021147862274621,0.7367719595278341,0.7969515953026365,0.7237907106103059,0.6490144591145146,0.5806960882247925,0.6200099781366424,0.677158643694745,0.7666328870154056,0.7944323691527861,0.7640369210974258,0.7059184192280208,0.6243425724503231,0.6014201854321142,0.6332419211012015,0.6647103904977225,0.6021066000041424,0.5485070920198023,0.5131424216270428,0.4802804560271854,0.458483779278823,0.49136734583228314,0.4410644824107983,0.45541612600719805,0.4988840352256876,0.4580235245480795,0.4485199152959449,0.5123962706107186,0.5219555195597749,0.4258373180174271,0.3532143613336176,0.3886567389217799,0.43871939967805673,0.4343338164350419,0.4537594698236873,0.4957611211135555,0.41637671223174877,0.2907380136424367,0.14521097482317114,0.045045637029542895,0.0,0.10784727295556795,0.26787647185886865,0.39251494776358964,0.5167913823260992,0.6097756785789654,0.5408246032041637,0.44975185438552323,0.40924119165455775,0.5016063520214038,0.5475630469934858,0.6063582330149657,0.6035006356422326,0.6099605615315475,0.6084120843924783,0.526994190458514,0.5515139776767359,0.6126511144248488,0.5934537109246856,0.5583409756406779,0.5312235256124103,0.5226448877395775,0.484121673016058,0.5401260224213278,0.4989757922582916,0.5273738573359781,0.5154143383175,0.47075727829570013,0.5033735766596088,0.524414879729509,0.5053460815498587,0.44825922109782024,0.4205625695099986,0.39330302417311636,0.438037830464717,0.4513786520665013,0.48386067781826547,0.4698344824440479,0.4978782659799519,0.5102248730003085,0.48372433572389006,0.3624789118995926,0.24617790055769628,0.09461975059480654,0.031152663452868268,0.13312082221791322,0.28129489285700604,0.4215388007166556,0.5331268728360872,0.645544973507608,0.6071950748277546,0.5309090287225899,0.525613992332298,0.44023107811782314,0.5089293130487373,0.6027681901015116,No
0.8443290054524497,0.7720933245084827,0.651745149672037,0.5130770148041708,0.37782498051274915,0.24339129263479764,0.26289166621640225,0.3931903286700833,0.5369561772286775,0.6674969631351799,0.7840568660019618,0.8963829419302507,0.949794938618814,0.9335111717940117,0.8866702496934891,0.8224239398788202,0.8424379955180883,0.9064213389874625,0.9186547675822427,0.9327935459356334,0.9146623792208683,0.9131989339619788,0.9183973997670871,0.9195642685129166,0.9208327189945487,0.9035537341154476,0.8996827658188331,0.9124232579473657,0.8968360640463335,0.8699789264959068,0.8651823182316778,0.8960193161806917,0.9143117090986483,0.9182430139530511,0.9499887100284723,0.9719321044648406,0.9788875250102529,0.9671869067842453,0.9287325744410695,0.8582716815078073,0.7836152294052696,0.6993160757424479,0.6839163448782375,0.7179217117303751,0.7797835997911009,0.8457388323091757,0.9011371473199463,0.9295768294664355,0.9512570621132252,0.9728830182882837,0.9744240785562623,0.9328226368978618,0.8774089632459288,0.7651732679421381,0.636107412891874,0.4944134694243125,0.36882710208409764,0.372676162028049,0.512459669442713,0.6411951714976039,0.7612882317835337,0.8806208093744874,0.9666889270096246,0.9716112184971721,0.9322523595012613,0.8754850876522435,0.8464068984325821,0.8951809218349234,0.940717408252469,0.9471884177279315,0.951107869532064,0.9438522781651106,0.9433710463386622,0.9474463290763642,0.9480975739670048,0.9531100628233644,0.9530807803611192,0.9451063057622968,0.9313971570388531,0.9485714426586704,0.9445700680560711,0.9529055794183017,0.9531391036820049,0.9531393690624763,0.9540810068495795,0.973584774269725,0.9999999999999996,0.9875202770853284,0.9484818035008797,0.8876211681753587,0.8069801843734967,0.734869797661942,0.7038322904325969,0.7508268911708238,0.8172090663756122,0.8498112180623871,0.8772325490999155,0.8767985293475422,0.8701970100290972,0.8621657902802213,0.8599918154676618,0.8157159985519438,0.7542024199601856,0.637258532033115,0.501375317677609,0.36022248262858536,0.2620547465753935,0.3511854255190081,0.4871493168866361,0.6156673293147725,0.7375389496353928,0.8513516331375421,0.9187599387373617,0.9148940868625695,0.8705338679463615,0.8078719575709923,0.7605417663171266,0.807693617158137,0.8533283484172762,0.8633629524205548,0.8663873680386405,0.8566754078126615,0.8522955571696458,0.8793120855663257,0.8831190670082569,0.8578395774182268,0.7947279698676968,0.7871479025520984,0.7864779978504415,0.7719021292775738,0.7826628284743609,0.7869376594598987,0.769541791075413,0.7032100414271167,0.6685483717027627,0.67740281166548,0.7444619123666123,0.8016300590732937,0.8134046587269688,0.7132389310935943,0.5943305380121857,0.4666128832944776,0.3333858496734736,0.22762443218549233,0.09771997397592802,0.02126403199704585,0.06483593306227853,0.1752024139938655,0.30999621327915605,0.4430383249768832,0.5848736986716463,0.7024051067330945,0.7658581904499129,0.7867730308471734,0.7871196462914543,0.7822159024570952,0.7704978510964913,0.7346576596522056,0.675970843701688,0.6235885920723763,0.6115620167254279,0.661279070905501,0.7404406708993014,0.8164688233618151,0.8749470243467239,0.9110591245880335,0.8944604715202398,0.8761101516380276,0.8650840570460336,0.8649500956637923,0.864883078588877,0.8562847957900517,0.8495442727187972,0.8644209147900281,0.8648185587150707,0.8547068669034963,0.8578482233020712,0.8836784330461751,0.867705158466491,0.8649544508563447,0.8649500956637923,0.8644976220520495,0.852032450063112,0.8376609452969253,0.7785438866211609,0.7395811450836285,0.7787641464675921,0.8459568010572958,0.8810798862739433,0.8165511954299229,0.7031960465528937,0.5791522932736162,0.4482801950013173,0.30178355443298965,0.16934260204479168,0.06344401787047715,0.10343768234373174,0.20413216201260598,0.30938552495046734,0.4386575247230313,0.583151925045938,0.7137940237204741,0.8207719625257455,0.8713257610881819,0.8851310060710724,0.8661007809382029,0.8450040488055133,0.818493127467598,0.7760613395649254,0.7111398441902446,0.6455509118440212,0.5855715644382715,0.5679335442005935,0.6295255502789332,0.7150393768841039,0.7905894306028718,0.8522272571352141,0.8809523521323972,0.8873914778514194,0.8660876140107585,0.8364336143421078,0.8290596893604527,0.821309925045147,0.8108059727947494,0.7882679839235185,0.7991927563428418,0.8121015716982201,0.7976083479474672,0.8091652732993357,0.8272630372771235,0.8377327606228895,0.8264551949032231,0.8193439943103171,0.835611134942813,0.8311972877628544,0.8220858897759702,0.7700751526561489,0.7262063928866147,0.7373889910508171,0.8107884535822474,0.8540469270204212,0.8215976719935107,0.6980905147460406,0.567111468117353,0.43366335439953385,0.2830732705862218,0.14695860416350337,0.03164205306037626,0.0,0.05941968492600003,0.1970437496111317,0.34508755343443154,0.4779256465591022,0.617587863635531,0.7219997543256889,No
0.8414570197543032,0.8696452506625905,0.8562390059523226,0.8151309948117635,0.7085614771503179,0.5598493988651176,0.40334650394713023,0.28039398074102095,0.3653388092319645,0.5479072859440821,0.7108769213034192,0.8421654773608083,0.9160244012368848,0.9036520832851558,0.8883823758162901,0.8467324742967781,0.7743051796110745,0.7391984056070546,0.8089586562580386,0.8208897263356967,0.8241111288754803,0.7993553171573744,0.7631996580212119,0.770101855029016,0.8057158570575096,0.8045050259062441,0.8237098281531772,0.817086620330044,0.819567948466636,0.7841280026062973,0.7537503754500063,0.8087061529156454,0.811858078414204,0.8206488290879124,0.838328267042411,0.8528779498484225,0.8839268546851216,0.8462389324066786,0.8564333382040079,0.8044798850969377,0.6953390559009796,0.5394489923310779,0.37244806156268595,0.23082401194433366,0.2797923302031142,0.4397907312412439,0.6004304567591383,0.743667692073763,0.8687791028084275,0.9113942277576959,0.8810128452074739,0.8488038333066585,0.7597031120228932,0.7263631889553714,0.7554986453922536,0.7779061034756634,0.7851677103532513,0.7902359860851895,0.7793563328238031,0.7911932445403522,0.834081891183021,0.8154568951584071,0.803515514546679,0.8163747942147506,0.7832672090646868,0.7910778522590265,0.8529496682091207,0.8834001774085722,0.8473842217705672,0.8458736916091256,0.8882353676842714,0.8750223020957346,0.8454898551132217,0.7416602415782094,0.6366112076862054,0.48210555050791815,0.3208754003279335,0.26587570021244566,0.42585041655623534,0.5953315493940616,0.7456189946365717,0.8729488194791992,0.947288595687132,0.9237492125348066,0.8706169784650619,0.8027221449244921,0.7357305454503695,0.717447046913863,0.8310872714418602,0.8763525823918004,0.8365274583368016,0.8226357190625571,0.7941658122055761,0.8025951851630335,0.7923926803281836,0.824247844149947,0.8157972382787548,0.8276042087540683,0.8073947567844701,0.8016720166931384,0.8343443215824484,0.8616738496403009,0.8874477350918699,0.8771222098718559,0.8902238733105321,0.9112417582482157,0.8888488346210801,0.8649845564839094,0.795292624576228,0.6530504173126594,0.4796663749582768,0.3153662403563926,0.31107955802765197,0.47035259824436615,0.6289398025112822,0.7623083766075966,0.906562637208082,1.0,0.9682984474740515,0.937809229899889,0.8587741929815174,0.7610945282780248,0.7432093679095315,0.7490102101203746,0.6755322769444803,0.6230592013336969,0.6398998044659017,0.7302849927913782,0.8061686979631348,0.807980096429116,0.7447382207597517,0.6169975306851887,0.46638144203990084,0.3010428569252248,0.13436049548995577,0.02373969765185624,0.08293543630172362,0.23866536521291426,0.40229588515701753,0.57362473434568,0.7056721138891273,0.7564177308627125,0.7484717884982572,0.7614270198458044,0.7412018748995424,0.7475844050701657,0.6986112609813437,0.7169795073930318,0.6974877176483059,0.6983198332681431,0.6914761191553431,0.6848331860897101,0.676996105705264,0.675340275191842,0.6686250826684788,0.6861521628845271,0.6562775596493902,0.6514131247052415,0.6970438419022793,0.6942907919681716,0.701086111597121,0.6251376184001618,0.5701350965963448,0.6004058565555752,0.675230066409922,0.7685541328692302,0.793396311376231,0.7299854436183448,0.6269124703872713,0.4692743503424621,0.2934874909339138,0.12767524986521206,0.0,0.04170490087191325,0.1848003129181972,0.3433879806670088,0.506859340880605,0.6304794561801961,0.7117475009584311,0.7474279731475271,0.7404990653279491,0.7199655290083307,0.7388796794839649,0.7272012632722795,0.6560770031252421,0.6792367782670459,0.6648728179564207,0.6667523278661172,0.6610474044055623,0.6637228546904943,0.7247074993712248,0.6941580344243379,0.6539888516617545,0.6334773753562697,0.6434213078081106,0.6722159399499397,0.6715677613150657,0.6065372605224688,0.5591535241642793,0.586835054738013,0.6545744365556017,0.7123375613914185,0.7644825736626686,0.7462708929308217,0.6222239523828641,0.45724993013133375,0.2941749030922116,0.13864179370881757,0.024682860275263785,0.05045282885039892,0.20098950881780642,0.3848076446134501,0.5479504668469257,0.6623504813907557,0.7073967729318777,0.6984673326293018,0.7122222767551003,0.6937420318857059,0.7118663284884361,0.6979191344771518,0.6620257955707176,0.6655179393833679,0.6310747680469406,0.6483534166688099,0.6858264563014762,0.6818446220220409,0.6772608138332536,0.640962644195465,0.6791947198593915,0.6284137460610282,0.6185406896645826,0.6744762531263815,0.6835797741158611,0.690827671385879,0.6566429607111273,0.5982088403700594,0.5693806644048047,0.6171861732836348,0.702606507088305,0.7287241973488419,0.7825617135736156,0.7536090364597072,0.6156051980669996,0.4530054128457177,0.29012157666826166,0.14462868757505465,0.08370724380866257,0.18997618312691245,0.3410214224129948,0.4726589644658423,0.6037941127327429,0.7102198603268288,0.7210901052287841,0.7376811555983753,0.7029326009413221,No
0.4780658085288336,0.47892649730244674,0.4858573347459947,0.46812854543099025,0.42107154005595193,0.38680174454344884,0.41543318252579997,0.5222799652995902,0.6201402461455379,0.698528171641355,0.6743982850050125,0.5828133766521004,0.48375620625699156,0.389362207090755,0.38537189629414437,0.40327493917738044,0.4131044842704803,0.4132349859343809,0.38495438977605634,0.4005243646718797,0.4074635882402382,0.4177235481162693,0.4269753815627144,0.4254240026017495,0.4235413616996322,0.42646275691239754,0.44350364342529236,0.4544566723949006,0.418300132274132,0.3986346348520362,0.37529128775872866,0.3738059353852923,0.4126296082136718,0.4779118194677139,0.5611195762734322,0.6547692222851,0.7508823142207866,0.8000069004412125,0.820621263094441,0.8100309402537058,0.7875292621997185,0.7573087222124304,0.7373651455856698,0.7145337824782954,0.6689557464422311,0.6459244005322029,0.6282678851760748,0.6906696915544979,0.7994577830900176,0.8984165467021907,0.9905282488653167,1.0,0.9127587775066046,0.8006684211122601,0.6989776744358722,0.6441685222876825,0.6408305956070195,0.6467559448749167,0.6200734176735412,0.5917745449047822,0.596442624489883,0.6021928269290897,0.6006506535466709,0.5845802380803886,0.5561733177963273,0.5314688858973979,0.5131925340425165,0.5073922458005189,0.5073922458005189,0.5129711729256909,0.5202238161246058,0.5352415329291769,0.5388192556265041,0.561292581667387,0.5815095804854282,0.5701873440076621,0.5742128105760345,0.5648693175871715,0.5642526961903425,0.5581883472478815,0.524402504913501,0.5039637399204797,0.5559508053187714,0.6602541254983079,0.7606452771997341,0.849747624089582,0.8284406740555181,0.7395571020204219,0.636614477399176,0.5823778653321452,0.5669772838403895,0.5791296615781341,0.561136130528654,0.5327158787030157,0.557106568378849,0.5770803436426584,0.5751438697943456,0.5614952237016446,0.5415056858955802,0.5430836611146832,0.5387954570778573,0.5415782168048979,0.5258179523079445,0.5094354448337706,0.5082949911242163,0.5354368150738322,0.6089285629859447,0.6681558925614781,0.7078187343278204,0.6981511095046837,0.6775929715471536,0.6532188560417147,0.6316764901458565,0.6344467273391778,0.6075412712389241,0.5743562792049266,0.5235177787211125,0.48370981076668906,0.4716693450087397,0.5694577287844576,0.6821209803248554,0.7859893874194834,0.8113674985480954,0.7400957960504666,0.6345461797190781,0.5361011764765724,0.4267513550487849,0.3242016556905032,0.2224548131520514,0.12443342726866602,0.02913802510664576,0.0,0.026438379112822208,0.11757743921723574,0.22996731119617264,0.3289671926211506,0.39496181863600777,0.45119938604522014,0.5020776855309084,0.5466601003085785,0.5682261959299568,0.5665031572022192,0.5939744065626202,0.6229296150496917,0.6408268349030277,0.6320205952206193,0.5712772232073333,0.4996266477333937,0.45317470271047,0.44976438110941697,0.4563602893075194,0.46650821132462816,0.47988319873793905,0.480784423070725,0.48129900899222955,0.4933268638046595,0.5019285742026844,0.5137274222887291,0.5101416245739214,0.48995721485006793,0.46870867600125843,0.49320346374064306,0.5079209242778928,0.5079370009849411,0.5087276545480983,0.5178141420939011,0.5800060815341621,0.5280424297802955,0.42033024203715774,0.32153081361546443,0.22373826566128407,0.23025679111468333,0.3191931594880706,0.4088968690386978,0.4574935701245617,0.49394085788941355,0.5113955490305497,0.5015607506394564,0.5083320675587193,0.5185088315504185,0.5160755996124422,0.4919221355006518,0.4798260580204685,0.46584617594578415,0.45771060896374616,0.43757985476991035,0.44571583827910777,0.46087993492007895,0.4661381345476241,0.48213330774525653,0.5042346642012574,0.5275923583626918,0.5437322308426391,0.5533054105218365,0.5394199241082007,0.5414068216790398,0.5694672859400485,0.5816208997658507,0.5817619829135809,0.5698712035412754,0.5881129125417495,0.6733720731090465,0.7631663125356325,0.7198782473291323,0.6144484115993789,0.5141299236567454,0.4058266568502913,0.3414525968181765,0.38375929349351035,0.4811871401448591,0.5523071693080381,0.5870331563402047,0.6166616791439239,0.6651729378647708,0.689099298025019,0.7039417402261461,0.7366766267299232,0.7502344677351878,0.7421422014158368,0.6913764233674744,0.6037783617521288,0.5093931705652563,0.4204626459469476,0.3615588688762652,0.32249972418213746,0.3166500470405236,0.33226956187006884,0.35042231384765365,0.3699432490962109,0.35943722893073327,0.35522868997474255,0.35208355781830036,0.3617538724607132,0.3626890827827025,0.34857232925858384,0.3335249356655212,0.31406384516984875,0.33459602676659816,0.3334103092609064,0.32465606600680097,0.29799667709835376,0.3209083653481293,0.40003211503159575,0.3670287520549458,0.2704276278757627,0.16145508868035074,0.06652453373396305,0.049819703948086325,0.13786728959136996,0.23522122088555664,0.3168245561164209,0.3634507035346597,0.41269510720616953,0.42372951826845506,0.42385467149949463,No
0.9880790940594233,0.970242852341523,0.9912270335945155,1.0,0.9865247492949134,0.9568436921738228,0.9479566817509628,0.9582938847585245,0.9786190576780895,0.9780243446150885,0.9707540738087612,0.9538842550116984,0.9132023162933516,0.8835507025994787,0.8712969405800641,0.8970036427400272,0.9096047247704462,0.9138044828726986,0.9154503754039274,0.8922964559124407,0.8325849870305628,0.7525896374993626,0.6639964967396885,0.5721919347571154,0.5583561575895999,0.6537328015468011,0.7574633990304345,0.849740768647671,0.92843964778845,0.9402737239442547,0.9249959638881684,0.9185031182160981,0.916674847570651,0.8693792361485064,0.8467529514332917,0.8856971962089553,0.9041690977189831,0.9000932190868363,0.8894157306847035,0.8830510491998673,0.8906943685590947,0.9098539010127493,0.9290343579688587,0.9249367604659886,0.9032933572956856,0.8603704547982622,0.8321371218228562,0.8421886420360223,0.8772428308600588,0.9174700041439943,0.9428289412299726,0.9645601614424613,0.9562651306569223,0.923887712459651,0.8600259507834069,0.7888862656537761,0.6997962167099785,0.6067869610555499,0.5657154720574442,0.6516591496900395,0.7507961636595959,0.8433943650219891,0.925977958930885,0.9594261998997933,0.9361695643973489,0.9118474101216165,0.9022217662723366,0.8797709981716868,0.8252400959050807,0.8402169999426738,0.8811969449649966,0.9268131481781197,0.9363915974592727,0.9387959077334922,0.9275273682688816,0.9252315060850478,0.934094375148677,0.9601374411264452,0.9450214712851928,0.9055465037890285,0.8647028795916092,0.8326930797579091,0.8532306857685787,0.8775674009541019,0.8900070643924765,0.9046102216134293,0.9179098944454362,0.9022887079885797,0.8598393329932943,0.7995623751717553,0.7157914849819074,0.6332170658652299,0.5540179226175561,0.4611220145021018,0.37107352581663555,0.4055074419594944,0.5093748265167433,0.6073290163509171,0.7059708039151857,0.8076067453228402,0.8952365446087094,0.9427614973092595,0.9209740254465828,0.9195901745312418,0.8992721827141565,0.8803553669441921,0.8361994057380939,0.8352831882637735,0.8750181715671697,0.9007611830520021,0.8988193053061879,0.8935059368053793,0.8868675378271118,0.8803083744416069,0.8440020499835676,0.8028264480245406,0.7274477657574354,0.6230876912538879,0.5372053549661304,0.521497334778231,0.5684217414428905,0.6685847767935091,0.7660615578429564,0.8114905231107135,0.829752389900114,0.835334678705431,0.84928137815516,0.8420508510833242,0.8003330814674974,0.758114553374627,0.7595085271939599,0.8175887951273593,0.8520717463907301,0.8645231240594184,0.8638215296103722,0.807613725161969,0.7155623225092098,0.611714528329796,0.5145134504777666,0.4150521175998234,0.31121415306801636,0.21690524402754008,0.11399170525159841,0.023942414416001645,0.0,0.08010208642731986,0.17386635230911196,0.2747777229955699,0.3689617015853832,0.46389108555914493,0.5618951783260404,0.6555467851104635,0.7462381049630027,0.8170469669531335,0.8635017168423622,0.8633395112996411,0.8439510267293957,0.8331411593266562,0.8024093305267228,0.7799855034219187,0.7902594512514098,0.8305306585852841,0.8766593724674685,0.8978944019992077,0.8843348503006272,0.8750312285361512,0.8786945479210959,0.8863741120345927,0.8880917795469858,0.8686331412564874,0.825606538284767,0.7753778144883765,0.760504716564391,0.8056593666262537,0.8442893353945911,0.866720004171905,0.8806008708822954,0.8450547973026419,0.7607084322946602,0.6661494226728482,0.5635814878292393,0.48205968095407314,0.3937106930623395,0.28956286187228053,0.1890657850237587,0.115174585157656,0.15047469669794977,0.2420384509181519,0.34303799818132075,0.4373644784267747,0.5381698734822606,0.632754562660597,0.7283680108053652,0.8086500108880053,0.8716264366293243,0.9067663156859056,0.909429484275829,0.8842737434308772,0.8472036657185038,0.8014617410710607,0.7759601372563592,0.7828729254096034,0.8159525879375744,0.8615000674589477,0.8773745166965701,0.8740656778413984,0.8639888857795359,0.8436866504648703,0.8320135774490232,0.842330343892649,0.8532153810231988,0.8475539178988085,0.8103768747975728,0.7870082280863122,0.8157317817340224,0.8572033625452531,0.8638687503889027,0.8767565511340036,0.869661615163372,0.8102173696995081,0.7146549621755658,0.6154650069788463,0.5098222054934931,0.40831984916714914,0.3128699033328257,0.20924282486121193,0.11790104006028623,0.08534538566633576,0.16163485918334386,0.2602412631492319,0.3539800541348739,0.42973638421757565,0.5124868779716159,0.5921298410543092,0.6835127151026441,0.7709269414731108,0.8377823011534211,0.863832174608715,0.8590738669362374,0.8562307999068777,0.8353376257972571,0.8178336891666209,0.828970642428219,0.861743642474575,0.9054363052578767,0.9246091546154251,0.9253707804580014,0.9161797144093122,0.8923421417811817,0.9022226787504142,0.9210699643205631,0.9433174908227051,0.9482178281872828,0.9262707537845909,0.9116524487892086,No
0.3575011021529759,0.3281862506142188,0.3750452158505926,0.36888196714840493,0.36213260689887594,0.3844341838855545,0.35620232212425407,0.3391044886572301,0.32242338823701644,0.30475250454144653,0.35521834881732506,0.43123442870782114,0.4892885273016141,0.5135608685482849,0.5999304678355504,0.7103752761987865,0.829821713943474,0.941457786566894,1.0,0.9282429758301163,0.798041997213291,0.6160836790362794,0.44231532506634696,0.3041361646177583,0.40468346937968835,0.5241620358154604,0.49777413877525944,0.4197526547602646,0.4445351626456375,0.4179722406986297,0.39407181334755137,0.38522326270687834,0.34576419383211654,0.2971468417966854,0.34349518144673397,0.334485487921401,0.3313589755988957,0.3078620079112957,0.315740696395137,0.3279125397051743,0.3726930962609929,0.3547838290580998,0.3159349761175063,0.3125846927620355,0.3159499899700844,0.30818678769542185,0.2816718991505871,0.3349323181323891,0.338082450300619,0.33822730804338086,0.3397136088601842,0.3146856001909777,0.34988497019711495,0.303787031796948,0.2628731856422366,0.4020313545852483,0.6012528115433886,0.7613105012085999,0.7589739787258143,0.6472658549172667,0.4837099482204721,0.36278725853679816,0.3796686156700373,0.3274008299254705,0.31396822193788765,0.3992911321060255,0.38201875320299017,0.2713998920193106,0.21082736282699965,0.25316680123741886,0.27508152362375693,0.22537984321574633,0.24371988474168926,0.27243396180517543,0.3092546781060337,0.27715225212998806,0.2890617155305639,0.30905835466973386,0.35804467511644056,0.36040312158880905,0.3106098149388634,0.3136903981474841,0.3873093100972378,0.3719089444254564,0.3461586984862377,0.3896265892254833,0.37590026280188127,0.37422990463804506,0.35464105850014516,0.3884395240799021,0.5451980089748583,0.7146018447235116,0.8153109858340928,0.7497930342310974,0.6168013476243566,0.4959145376377432,0.4797176229573825,0.4316136193546871,0.42685441521618994,0.47733971184867663,0.46124072818472417,0.3766041202287864,0.400912199931585,0.4201698405862251,0.42194897898908135,0.417536445826471,0.43109977028691304,0.4148339331250792,0.45243851504396293,0.4577080929905524,0.41760663026224254,0.36479892247354684,0.3710576863944679,0.4332035601548041,0.44358473597285286,0.41505700690553393,0.42345680273881836,0.4801334679035403,0.4622923547294473,0.4388627733859467,0.3784989045377589,0.3265218380928063,0.40525464636305486,0.5667708112754806,0.645096411649817,0.5721516352140297,0.43773979069833313,0.42738104222503015,0.4156719726260043,0.38437316457095694,0.3600032350872917,0.2833955628215037,0.21469539812136063,0.24737426079865443,0.2779769094388769,0.28315406500161977,0.34867953268614826,0.4107271728748918,0.27422513132964266,0.1438864885198754,0.15607788464429628,0.2490101705514105,0.31379944964160256,0.32373118938313983,0.29683089370429716,0.2722177755877082,0.2850985074919201,0.26841315746308325,0.22630171477894123,0.22358404660640563,0.2832596864197008,0.30654589961759005,0.2856151245527325,0.30051857411884697,0.2819795181321698,0.24933478606165238,0.2796442393703744,0.2842310974814408,0.21582593470210298,0.24419151051905885,0.3161421043123811,0.30049364525183364,0.29460881900987523,0.3199684713443345,0.312467857903175,0.3221604317063482,0.46239774788926624,0.5007090205121552,0.3454356389002715,0.19171713231517984,0.14748998936080504,0.2160876219695984,0.23471593794263867,0.24656766218510828,0.24458765484108724,0.2387397342484725,0.24889348551090773,0.19187846468150394,0.16844674919306524,0.21312814287108317,0.19413181445247663,0.17245807337429486,0.16619634353679924,0.16081284570591503,0.14062343817114709,0.12104180208492021,0.07595390749799247,0.10934986553352033,0.13224708685704023,0.10014371413919054,0.06874370468486646,0.15622617896852375,0.1996852050840241,0.17188468825469005,0.2024511218550602,0.21861406725044308,0.24784076841855374,0.3714183902843118,0.5050589366624134,0.42801246834330264,0.2436704565723833,0.07673091963270018,0.0,0.08837857865719112,0.19882702995354595,0.18844444439384045,0.17269167534265506,0.22711284693311296,0.23206329890830268,0.19646507016310366,0.14131119465874065,0.12990684035584454,0.15783547589099456,0.17121677180441974,0.20485973015692682,0.19900661393432628,0.19798916191506155,0.19798887884737848,0.19798313164370018,0.19426440475578222,0.18436527622853927,0.17830646951721807,0.18906073866096573,0.24265829723077292,0.21907811584957138,0.2647196619325385,0.29403955932747117,0.2346010004336696,0.23753453912752942,0.30610812310085755,0.18404055929939656,0.0642788751268748,0.12233588286013841,0.2809392460600524,0.4565894137885316,0.6450358369970806,0.7962090458071023,0.7891206806229478,0.6703509421334601,0.55713550748606,0.46809301832344996,0.3932978599243162,0.34510188094996597,0.2767126446869348,0.2002855006113542,0.1638705294665721,0.16953210314226297,0.18820559784315094,0.2265071022170524,0.24368786675873277,0.21677941463733763,0.24050694995536137,0.2487389431617535,0.2090475175713209,0.22479760089211975,No
0.12247487988730477,0.10908287670744432,0.1167297237468623,0.11321088311120864,0.11254594242166949,0.10805534150975804,0.10644664432044282,0.1012061330998768,0.10446752132222237,0.09696536692508095,0.11860147973193325,0.17243963161528653,0.19873509441758364,0.2101276240186678,0.20983281080529714,0.19636033442972423,0.17921940544106496,0.17198079554008006,0.17019281668558062,0.15808910780346164,0.13540398694440814,0.14990802171590056,0.13027611122816873,0.1458158838590271,0.13522786717497892,0.12426940284621502,0.11993302831650388,0.12489802524107763,0.1260084017330727,0.1293336140942305,0.16022434370740113,0.25336742775983545,0.35097473153735725,0.44884584505626357,0.5591386162084055,0.6591053582457489,0.7718156126124995,0.8703969483924645,0.9200838187991787,0.8586998404728181,0.7578909918052217,0.6500766803606979,0.5414769381637403,0.43881344345308104,0.3237229811987561,0.2184062250631067,0.14832009957472403,0.15217134539995536,0.1755657309557721,0.1953235215664324,0.23061731953474363,0.2020520289222425,0.19561883309264694,0.19388550575179542,0.1768453263257821,0.1516145113025127,0.15299375541164473,0.1394849107021754,0.1442417041717463,0.13803203696295174,0.12735201639766336,0.09426652931707791,0.10966491644453269,0.11278030100885639,0.11354758021146916,0.09575808239043138,0.09629358962486156,0.11023885521459675,0.10021960930767282,0.1242828798387472,0.10249289357110403,0.1033280873280833,0.11126671097778296,0.0958544247106734,0.13042227903650838,0.12423397455488017,0.13249893077562414,0.1286462364017611,0.13561666225581614,0.13400059350689775,0.14390828083100127,0.1500436424525211,0.14724146496646418,0.15313570574796342,0.21921544176986618,0.3127604254139156,0.41307446532485725,0.5260517889880312,0.6262373871194646,0.7375847498940766,0.8387548892511836,0.9431806569266188,1.0,0.948019501081026,0.84686787254235,0.7344827178952347,0.6344044081007372,0.520881289880474,0.4052686443055915,0.2900616939669054,0.19381373317802986,0.17699991335044096,0.19969331737842078,0.22704594116228982,0.2398320780863208,0.25917090175407775,0.2819616227516124,0.2877384517084418,0.23332139255510453,0.20239297970573977,0.2097088629684425,0.20511032936923224,0.20839058850738645,0.18522684114200105,0.20131440194699257,0.19105194099813305,0.17984699561532658,0.19691795682158997,0.18341426005336192,0.19781947731809746,0.2047320447116996,0.19697124707094948,0.18915070517320798,0.20874146212051903,0.18824497085012704,0.1880256472045989,0.16008627811764464,0.129774005543017,0.12747751596013668,0.12920113092562735,0.125981994377252,0.14325198586460708,0.15377992102192595,0.14916849431323342,0.1030471806054245,0.06236912179074228,0.07512207856091901,0.05315110048056981,0.05353743043423487,0.05080833144309471,0.05753104158117894,0.06422542867338965,0.07778237595161519,0.10390131761508092,0.11612348640100656,0.1121797961094746,0.1174168839920875,0.10894209057537108,0.10875200347072989,0.10872043539103693,0.10395240371426828,0.10164194391551806,0.07990100421817337,0.08952778542173068,0.12064036997944738,0.11558285178529504,0.11911907028534463,0.12469069404443278,0.14135994269593954,0.19016211608887756,0.19534290143307498,0.17687413100932448,0.1603526731595033,0.13275111618686353,0.1056201671650383,0.052210616536210175,0.0,0.051179627611583456,0.14687856363637497,0.2556168290430749,0.36319091919428903,0.4668175648418478,0.5717232834511248,0.5522551246129277,0.4523356361784545,0.33982347332308205,0.2440055707353599,0.15706368117209069,0.09741526450613369,0.05820095169358419,0.06677243200633054,0.05734689739448218,0.056674419476715254,0.05637776280722129,0.057201413562376846,0.060970008955381516,0.04559821234235484,0.03536960692070501,0.05495539127297855,0.01992036122568841,0.027170462332435363,0.030636889599335415,0.0312750689096859,0.03809278303802932,0.01419870522998723,0.017035403879436473,0.020250296544797486,0.01498728379188563,0.02891079677456254,0.03716065514134925,0.02354525338574609,0.015055054070487461,0.02856912512645149,0.0555686753991651,0.05990449417056487,0.06814403915525702,0.07271769936482375,0.07965703249205491,0.09408154607937913,0.1209991722846655,0.11569217387503183,0.12752783581639449,0.11694821266575062,0.1144867276567747,0.07988231013004965,0.013992946319296706,0.010026934688107225,0.09478899321592316,0.19660910435875056,0.3033629034376526,0.41382285615716885,0.43466264506192953,0.3460376803124414,0.24694513339063917,0.15775401810457979,0.08633434538621287,0.05100609412498436,0.03876997191762044,0.04369019713733069,0.04778326459039839,0.05916804684589616,0.07413167068988225,0.055179016290914706,0.05497888602216072,0.04988956915619003,0.07216176026524623,0.08093310194588188,0.09674499036411843,0.10884617464100188,0.12018442922356032,0.12587260142077206,0.11934687678114031,0.10950295964397139,0.05345401063517752,0.03405459799785948,0.01688822189370942,0.015515901799042275,0.027308289025409938,0.021948266867368726,0.02363949619901673,0.027208203003913578,0.03518360044009494,0.041386057021288725,0.02785000788015468,0.030103949648092154,No
0.7386609546237057,0.7499908170359424,0.7793280302537076,0.7963016510872727,0.7601902798296267,0.7714183221970359,0.750880165694177,0.6655496372940641,0.563484929848256,0.44037779908867325,0.46400713721965126,0.6157659898177705,0.7422840968186275,0.793430664657147,0.8109465218391039,0.7894783259215394,0.7694935429424801,0.6918806372112796,0.5936674430405153,0.5374006420124262,0.5750170469589841,0.6921635188930901,0.7629605677449653,0.7905328860906478,0.7695961654193448,0.7824597933221478,0.762693925969975,0.7715542195777614,0.7738768764947075,0.7267764566093735,0.7145720698283,0.7484818837553693,0.7510045512556092,0.7461475679703771,0.7550089841600451,0.7803962223760363,0.7827332112410366,0.7548058939042646,0.6999412919522818,0.6255333300936083,0.5709781880198808,0.5712876250961916,0.6179713243296483,0.6716157261804598,0.7415003756345557,0.7835136847127151,0.7825569473815435,0.8394675797287379,0.8552328518581129,0.8769993893037169,0.9058526525940049,0.8473730402933066,0.7675313611985501,0.6463924174602331,0.49421420169984476,0.43130324661570185,0.5607650801897721,0.7165395963415557,0.8553915323372943,0.9276561000274484,0.9232992322580751,0.9510016415297518,1.0,0.9320466653721491,0.8396614414346288,0.7420171660583073,0.6649468397919973,0.6949415085325272,0.7626597969736446,0.8346843640747874,0.8465122111694399,0.8755088200760026,0.8772343924463799,0.8605448088315075,0.8602186756712253,0.8730600399340096,0.8518680583602052,0.8467371831241213,0.8209683174384601,0.7930702311214954,0.7432476325376332,0.7268807810123157,0.6975037098648391,0.6552869089786366,0.5818761997761026,0.5380841929511133,0.536316940397068,0.5788264918869483,0.6590139992254684,0.7281432059297313,0.8065667546765054,0.8222900869123713,0.8738825405825388,0.9215927457606821,0.9290948873305869,0.9121667897064958,0.8830220817716112,0.8020217987258658,0.7118653642217936,0.5720508963676298,0.428629165262274,0.43489793805952637,0.5755398863337291,0.7252431150262,0.8316433720901548,0.8651720805271728,0.8797085082032234,0.8826580884005502,0.8249278446445594,0.7170064153985578,0.6173432090694222,0.5617142355271323,0.6050000483633422,0.6958951608614115,0.7525137073192862,0.7504858854598746,0.7569424704758072,0.7593456619262993,0.7428121539846666,0.7619726404276266,0.7504052032941724,0.7475388035985375,0.7188508481923215,0.7361191482706699,0.7559614590427302,0.7404208774264678,0.7509057367299876,0.673514405904025,0.6393295754376256,0.6332462025213275,0.6233396727108405,0.6106174266630156,0.5964783878750444,0.6188785135482622,0.6384913540681127,0.6381503160270148,0.6419280081167429,0.6368120421917913,0.6364272151707162,0.6227260323185808,0.5641338480622249,0.48477632898982215,0.4400063993889063,0.46805771129238494,0.5429914990129339,0.6569298717050742,0.7410660920390519,0.7516881899264307,0.7036218643007963,0.5940174279282093,0.4428802808765875,0.30185205794970393,0.16434968372303072,0.10395193850243878,0.2197241541338668,0.37488635580754615,0.5177431421419252,0.6465714914663492,0.7402141211675035,0.7856628034906228,0.8007360715282577,0.7677878349907896,0.7335186155738143,0.700410889713126,0.640921841517021,0.5655845286517955,0.4896614493813356,0.4326419256703371,0.3833894043874597,0.4023701624424616,0.4673405541498967,0.5462377239460601,0.5893972298535957,0.6229276744381425,0.6418879179219772,0.6875157609913058,0.7029747949042529,0.7230189000738294,0.753549006685077,0.7678866395661998,0.7541194841143399,0.7583924571679601,0.7677451347423929,0.7507850004018248,0.696388356853765,0.6230594571802008,0.5663189481473658,0.5447966507808939,0.6175639014688485,0.7158004446393456,0.8120049059092569,0.8035729510789178,0.8030235176110398,0.7437654534835803,0.6285752981636232,0.4695243730315086,0.3273901641099215,0.1791513403338918,0.09939230714378855,0.1924812675798977,0.3461477636145043,0.4975247419730815,0.6398485631718245,0.7302232769089931,0.7619592743967454,0.7443419212544233,0.7079851477510521,0.6925249150999289,0.6677238818333233,0.653916774034383,0.5771328732125669,0.5132605877806284,0.45689598038252655,0.4429252670369159,0.4844264362270314,0.5723214940266326,0.6345082376069469,0.6365668297723914,0.6417720417493484,0.6382310288666524,0.627627017787872,0.6177329571515973,0.596302349138373,0.6162805575788601,0.6333311633226133,0.6459189749971186,0.6604518715126693,0.6627060744555111,0.658944955735647,0.674110110274464,0.639749604658002,0.5472024875970698,0.44763533856424687,0.4156162624704338,0.4562054976501777,0.5467796725211125,0.6311002452740047,0.6863305172079031,0.7002401766723851,0.6482725116441284,0.5528948038002799,0.399854054875747,0.2339982135651617,0.0741303301796572,0.0,0.09016763093511138,0.23996610966588694,0.39598272849085614,0.5319283112859923,0.6125909279537431,0.6319648117059415,0.6772386645521058,0.6703122705585685,0.6450063244119892,0.6348493866455094,No
0.9976122275560351,1.0,0.9654113825810313,0.9313040884710904,0.9489530080652075,0.9627541878556825,0.9577600362956566,0.9534178121364314,0.9358880384143209,0.9299566778035704,0.9170748953553547,0.9214250655758045,0.9393948341385547,0.9407855779096161,0.9243718619178924,0.9039097941842105,0.9105577953420032,0.9074123397747593,0.9090191663576408,0.9107624945093402,0.909388094826677,0.9005061808697499,0.8760602834244784,0.8242110865985888,0.760130128017412,0.6977182777294302,0.6254375256496183,0.5554402216885101,0.5874024274147334,0.6750002740355234,0.7591944987497459,0.8448859587895643,0.9067808389617604,0.9269514020111305,0.9346481664749331,0.9054941169816275,0.8733910274243097,0.8738874681592002,0.9042887381151505,0.901634775827886,0.8913045879727184,0.8948738890524863,0.8949592003765656,0.8801462285831905,0.895553714012479,0.904488821983048,0.9234254147115251,0.9262599549302464,0.9127640285590206,0.8927864375615195,0.9005790324082104,0.9123726500657283,0.9260378695116711,0.939095921316695,0.935254966101752,0.9465636205956232,0.922229742622851,0.876248667971983,0.8088646272085422,0.7350917060859352,0.6662895290634929,0.5793006538366665,0.5104913924485124,0.4797060556035009,0.5490046440292833,0.6404831537505058,0.722900905952951,0.8126997786424717,0.8969259623728938,0.9667910745959292,0.9709560648443643,0.9687686247799849,0.9520623294887622,0.9196374122457969,0.9175133263700417,0.9453913474616398,0.9477751446014686,0.9419521972805192,0.9361150106598384,0.9310818128090599,0.9292887923425721,0.9371420796120518,0.9457355475780855,0.9565432433306271,0.9489196049220241,0.9272677380760013,0.916131038277094,0.9167523964758821,0.9337131363252849,0.9478629086985562,0.9519296262215504,0.9558969341384809,0.9329948557453438,0.8781273275313946,0.8261503940300687,0.765258142028951,0.6881260568109715,0.6310405021925432,0.6936644167870711,0.7860891275649915,0.8777180088968408,0.9534571486409313,0.9918859923800265,0.9929949117936809,0.9996890482951843,0.9634076921365673,0.9375518546561694,0.9551371170197718,0.9688278262473196,0.9634631433651584,0.9556328782582564,0.9519701276855987,0.9366964136321942,0.9064812894264844,0.8886820621976188,0.9069537756574091,0.9062047932336137,0.9150950346172397,0.9175930695906849,0.8955462739646225,0.8779559531377998,0.8994335040691555,0.9327086963422397,0.9349067176825296,0.9363682556301809,0.8906842967741668,0.8040388106502392,0.7218006127219074,0.6314136751356267,0.5421740282204504,0.4592910366116352,0.37113035567750785,0.287970076913578,0.198178157716542,0.15315633927221484,0.2081707081259654,0.2995365161912391,0.39144694187472573,0.4742009644589804,0.5636712704063092,0.6559996663336944,0.7359811586468186,0.7919480428975447,0.8563514925144262,0.9018282060208791,0.9079149211709652,0.8969796677855499,0.8808751603244906,0.8673596953405376,0.8573055668322391,0.8660735253560068,0.8916426424446176,0.9078986635673529,0.8966001308127853,0.8767520915462117,0.8760586786433793,0.8740429746628964,0.8880886366212892,0.8908628287454046,0.8960420720224991,0.8895369027381816,0.8552844561676238,0.8553555916298357,0.8829924831025706,0.9155998740009372,0.90824536237864,0.8595318067558089,0.7780670729949142,0.6861454568292675,0.6005793546944846,0.5144442645005363,0.4243924926952909,0.34204539527557265,0.25334453745628216,0.17082030096193646,0.07956821634157718,0.0026870973016812627,0.0,0.08076488838722673,0.17337244204858226,0.26607543195695715,0.35850275093473005,0.44303552587416095,0.5244138631277051,0.6021400055478172,0.6779488037784165,0.7419648730699087,0.8182404269316335,0.8758359583044735,0.8872145279037023,0.8840766083456564,0.8760292395539406,0.8707322436088787,0.8565717753796349,0.8370768960596444,0.8405937204860119,0.8643365965340344,0.8778868670699618,0.8639796145605958,0.8481109003571383,0.8457880013516181,0.8418098624644514,0.8470116821338078,0.8495240851844326,0.8428167596843368,0.8546968971145508,0.8432897919346294,0.8165118714234092,0.8330324142414236,0.8652007301033198,0.8705740116783756,0.8425002585400869,0.7625268700530987,0.6803386358803629,0.590032169431276,0.5024030847700591,0.41822795708632765,0.32720524500629566,0.2507980171458768,0.1830118189987735,0.10348150767582287,0.04265051885518356,0.07860940570718955,0.1677416794372033,0.2534805459031386,0.3394302298715266,0.432007194739894,0.5236159863291667,0.6058963136425719,0.6843626619775454,0.7393978290874581,0.807112195648017,0.8523525855754137,0.8626208419283774,0.8596568384344714,0.859665029095964,0.8620597226172593,0.8587533183769622,0.8543762859332951,0.8595996248147761,0.8732166788774198,0.8931467628466709,0.887900807579443,0.8779448699215728,0.8785839838424256,0.8768727411735413,0.8867511777913424,0.8933789834663046,0.9032882963166919,0.9119951182408825,0.9063973850811244,0.8860749208992256,0.8983279633684558,0.92956086350681,0.9429035403235515,No
0.9359337493927216,0.9385823139024141,0.92765213708054,0.897009518634782,0.8448847175419796,0.7682288572141558,0.704114085910672,0.738422380246738,0.8205528278233154,0.8383256461971995,0.8883525480532324,0.8856557196607753,0.8536931491882305,0.8046989960991238,0.760755957915979,0.7457931745835356,0.7896762722605035,0.8326284571996667,0.8705559910387133,0.8600767944064174,0.8420974275871824,0.8435519239475924,0.8545218061539588,0.8289061716916328,0.8211214576387253,0.8338283348153204,0.8305283328113862,0.8304683460629301,0.8019121883259435,0.7990826309351364,0.7990458185124383,0.7937575186904806,0.8007384714485366,0.8455430538842101,0.8383343200787925,0.8466516506465513,0.9042107841863758,0.9509317468135139,0.9676276040385723,0.9799912634219274,0.9705177370949389,0.9515169598355082,0.9461869409078858,0.9358172479953577,0.9160408528210668,0.9056389272533734,0.8728696524845283,0.808641428433357,0.7187609461752822,0.6272639430274167,0.5605310339731036,0.631043397539222,0.7384916606854155,0.8205333826373686,0.833743915281131,0.8405670382684121,0.8221009479375971,0.7842597716000865,0.7670626236755869,0.793120520271319,0.8503345844959904,0.8890244791198203,0.9074999747495585,0.9201630562992875,0.9149907404161151,0.9351491248532411,0.921198845939196,0.9240947932007666,0.9165107297889943,0.9095333034843285,0.8937479198379163,0.8780291348651099,0.8758292749922023,0.8698407933576426,0.8658774456610514,0.8653968163149797,0.8677382944860588,0.8963847034158157,0.9352252460819126,0.9791651595411115,1.0,0.9958421254319227,0.9980192784769955,0.9660032132883267,0.9417518885038803,0.9262154599040384,0.9220809357823319,0.9034411558991549,0.8700440198963904,0.8012100805305002,0.7247366941889872,0.664361632449527,0.7407586069697625,0.8421907443082879,0.9459755216302161,0.9685148858272488,0.8891815412478459,0.8585692552795621,0.8762893671350458,0.8571168606543131,0.8171215752409111,0.780401437514525,0.7957151313518209,0.833952197945858,0.854814473583513,0.8555812366772715,0.8500853051783102,0.8539874891730146,0.838481870112473,0.8421574383586377,0.8405820210332604,0.8206833549469712,0.8236754770779076,0.8285470828126669,0.8160059616830604,0.8061313960446057,0.804852986142286,0.8341671211730253,0.8296198709748546,0.8194632129317361,0.7684386251795425,0.752587576425197,0.7408424738228381,0.7328066575110515,0.7362674718798066,0.7492034223682058,0.7640305803012453,0.7563141985275394,0.7522906458420464,0.7639297740020679,0.7569971994638505,0.7723176020645508,0.7888076181779784,0.7901017693740542,0.7695714726106608,0.7411409495198913,0.6965142353272471,0.7027734461651645,0.754408635787307,0.7946194025551203,0.7913834111868723,0.740857116093887,0.6946404038472354,0.6031601268704208,0.48570437829663815,0.3756390182854559,0.32306262122545126,0.3719906174392418,0.46809648737634113,0.5696996537633208,0.6637547971903919,0.7453634265170566,0.8138628208512046,0.8430623909192518,0.862177583454105,0.8625315325558467,0.865100554297876,0.8931267756955559,0.9207048315332353,0.9207901143677488,0.9146325187140683,0.8800339568446787,0.8414273336012537,0.809367446941792,0.778985110499471,0.7957839412137715,0.7925099557446291,0.7997308782146231,0.7826354032328169,0.7935662368551233,0.8211664833666168,0.8211011222053588,0.8320683903567372,0.8486112736405742,0.8411020888068044,0.8464199480511647,0.8402580183103865,0.8464963261258482,0.8279859266123601,0.7956890529142768,0.7420573142814311,0.6967968230745085,0.6731329639272556,0.7106802278739766,0.7385395879416352,0.7620240457680616,0.7464781004424261,0.6939355133665108,0.62210288145566,0.5067062273585328,0.3889176614855061,0.27113560696274686,0.1570559264297775,0.057100336730126156,0.0,0.06631993127886693,0.17370151659855537,0.27983195282892837,0.39552992978998214,0.49728805307308566,0.6044629557560461,0.6949522086906192,0.7816480062866469,0.8315367869299397,0.8533578883604016,0.8726553393671601,0.8748639770606919,0.8825311298750775,0.89614084431616,0.9039362621929921,0.8889283896708573,0.8499924502945242,0.7924904292049679,0.7639611812047433,0.7731944220724376,0.7391754601072424,0.709069326433879,0.7211146157755559,0.7277562772378432,0.7304590052184508,0.7212636911546033,0.7432411121295379,0.7496994192027713,0.7598006716557211,0.7497244022045559,0.759440618820765,0.7752606633152586,0.7615221910209713,0.755393634430785,0.7765230630822106,0.7955553291313344,0.7813152587247099,0.7391300126314393,0.6917432837960495,0.6720617848760968,0.6995998431653736,0.7376302294520984,0.7817377607346327,0.7701343285507822,0.709339578770479,0.6618352834100132,0.5652947832523512,0.4478126343580615,0.3300857916000388,0.22768715863946598,0.23075376993474706,0.3244384351338967,0.426427697376508,0.5280852469531618,0.6298997058988389,0.7080742083631026,0.7926905226262515,0.8429129312457513,0.8634153396497757,0.8745684355294263,No
0.4212363201248035,0.4139351443725734,0.5098484662356673,0.6257062273642999,0.7349738016181795,0.8393984773833219,0.9301126078686957,0.9116408003024064,0.817006882583132,0.7128412321054305,0.6068809818402823,0.5216382533228545,0.5043983343877603,0.5232042625812703,0.5093611960721351,0.4843511615761522,0.4641886399676909,0.49942284322309005,0.512991062295256,0.4993259477700702,0.49132107220059007,0.4904747074347511,0.4786219658670814,0.45866796659588793,0.46931336214638364,0.47313129798204345,0.443467123789532,0.4164218473110797,0.38587418384776173,0.3518944265062567,0.3727989310155979,0.40101938957093664,0.4246129054013652,0.44513564355680435,0.4524562632761695,0.4604191636777686,0.43686134800652354,0.394275837095432,0.3152570834790045,0.3262429752917533,0.4364819794437387,0.5525020759889632,0.6685263125648357,0.7827286488393375,0.8673616995884119,0.8593553952010033,0.7671652586602784,0.6651030328376928,0.5553330288872118,0.4721519090238173,0.45489153978998464,0.46305114391474556,0.4508553346921609,0.42274022622910445,0.42633962338176845,0.463509551671613,0.4649444076770606,0.4606985646807815,0.4597356473585128,0.4614275489255357,0.4595622533967729,0.4631133451204703,0.4686793803201068,0.4851070963114874,0.47076684775109845,0.43561047874195635,0.3906307874055841,0.37097030649728024,0.3893952506644145,0.4250546805278441,0.4442366458244882,0.46243317827655783,0.4537459099847685,0.4403430446850738,0.42490427504613804,0.40427418732600895,0.3335627617501693,0.35991495210122837,0.453981413811011,0.5556717146758032,0.6690407266886065,0.7850148704445266,0.8931995367449161,0.9320018711452707,0.8550109102650656,0.7538673392770732,0.6427947326766317,0.5401082431901876,0.47121350099159054,0.4757842338911291,0.47952923056925245,0.4811168920700237,0.48256841836303943,0.43032963965036997,0.44400451022890763,0.483782967102627,0.5021781623632768,0.5083379559061312,0.49705313931786854,0.49976495093795714,0.5009675538125138,0.5216800814684905,0.5307628219420497,0.5294023261074594,0.4948377056160087,0.45520452729618466,0.4015615227531888,0.3815369433587006,0.3800220546429798,0.4068925218702879,0.44521739985453346,0.4826483229854701,0.4973338648793195,0.49160243258010716,0.48252747003550933,0.4688123498913721,0.463462352002586,0.554211702912367,0.6695390985871552,0.7838151578742476,0.8858974504554196,0.9872001038848381,1.0,0.911523288352261,0.8071095362435923,0.6915477912572952,0.5815782736129749,0.5265506003641751,0.5219249977509901,0.5179405357558737,0.5189877987397273,0.4841050052494551,0.4545963404914808,0.5061940309202448,0.5114584819132753,0.4703732659416424,0.4300048708596935,0.39214484949420036,0.39545816439659376,0.4313160086093868,0.4523659722099702,0.4537160490537735,0.4558181921261344,0.47088157707712464,0.5522846152538623,0.6121599440750587,0.5239605668870699,0.41962973689373007,0.33509987424825116,0.3199221051671204,0.38101362170506237,0.3994754977606032,0.42387478458940464,0.4251242047632511,0.40326173957512657,0.3616937375275313,0.3235642473918059,0.2953032073693236,0.3025072182730768,0.3501601897638196,0.399505706795773,0.42856425726865277,0.45964117516920266,0.453301919610118,0.4405260142342913,0.4305652818733141,0.43003926972122475,0.41808902918992885,0.43389805165654094,0.4311241249094273,0.42248729333646473,0.35867511799463836,0.3597211596837129,0.3632502798521102,0.3878797405154675,0.410878358931162,0.40637468198603566,0.38275701930227335,0.3672696417633965,0.27304099412045746,0.1587507322586843,0.05878890107167445,0.0,0.05557733966154643,0.15290135516405146,0.24906415897379564,0.32526776037933125,0.34578021872540265,0.37057919872648126,0.37071693101878367,0.39330274578918045,0.3522868102610599,0.3522472010909743,0.3331906117793677,0.31136864054709257,0.3072110401457939,0.34626428829789946,0.3815107343971862,0.411021688830679,0.4062610667688906,0.39071474876446644,0.38473088787490717,0.390983382383451,0.3874096525837025,0.3845485340050674,0.3898150739394102,0.3656342373260868,0.34406332784371685,0.35860244220279336,0.3920055631813608,0.38791212995611124,0.38168166905095724,0.38176872890044145,0.38549789135311263,0.3229033682414659,0.21274409422242302,0.1205194882366718,0.10726630098894718,0.18825076568673405,0.2733732723263458,0.3485918792199212,0.38010635047783925,0.38519072134665944,0.3601713141206351,0.35644623367468364,0.33482694031082616,0.29680270278936005,0.2726966514472551,0.30101132067100655,0.34601811008405514,0.3725125036438377,0.3709111435594301,0.38338426108544654,0.3960483640512549,0.4036305437495762,0.39457863373517554,0.41982938923296453,0.4312252257761182,0.4369252615772723,0.4356160446554833,0.41420478763463153,0.38365042666804383,0.4041621532878139,0.43737038442835807,0.43958799406773696,0.4480973009883149,0.43843664632452617,0.4381586084033513,0.5028180635273078,0.5305490992114228,0.4285746665585437,0.3242574591402798,0.2476211370320489,0.2685074956018014,0.3419604500402458,No
0.24476945219738244,0.2014892520016085,0.1544441951315605,0.15570618267290914,0.21008394491865534,0.23665577260118553,0.2406750148031902,0.2648352018805351,0.2692669314653289,0.28884342600187374,0.3088450509259131,0.4005333932199555,0.47560856469373824,0.46260179512979605,0.5114428816133039,0.6343633608499948,0.6345968602727003,0.5136291480776096,0.37165534515845167,0.3305287597788569,0.30332498069992564,0.24591909274691925,0.19532065582709368,0.14161008525097873,0.18378167230472187,0.25302231454383683,0.2684399340500052,0.2685842398051994,0.26561728837908216,0.25712141119447995,0.2580064520464642,0.2648599377617007,0.27259969429356623,0.3102042625199628,0.33037030947563917,0.318689551479558,0.29631107857832273,0.27963965883415653,0.3343825525255619,0.36580486559156977,0.38717297805130535,0.37611727719366694,0.39178940602152235,0.37178400201286177,0.3384799140129502,0.36509284077956217,0.43802795889403967,0.5294558002857652,0.5677989334326119,0.49573122788765644,0.4941439267555845,0.6259772004301691,0.7665202031649265,0.7985325337078057,0.6865404386476719,0.5448103264128203,0.4062448226851325,0.36070459199710836,0.3289574342596655,0.2714252552193166,0.2108462462887024,0.1575409091399278,0.19089283172293214,0.258996102221448,0.2685574574374554,0.2688399533720185,0.2865171383657996,0.31279837645916597,0.2994538820105266,0.2792368811557093,0.2693160449738885,0.2856338054991969,0.2727543931804064,0.2669948585624944,0.24401861815008008,0.22836829074341658,0.2074339256997968,0.2226315754776973,0.27233718353002967,0.31336557015485855,0.3092907083289971,0.32222240576600747,0.30248841961081396,0.3137473210395081,0.33145786139965683,0.3712373671975868,0.48331100550981976,0.5832199868113035,0.6630982137252559,0.7766455400632228,0.9274709554919225,1.0,0.9164197103510592,0.7736676586952873,0.6297781025578724,0.47516060840874186,0.3587648511008723,0.3090218165518577,0.31241034111709975,0.27427839940591614,0.2265470570512269,0.19083071739027524,0.2408505950013886,0.28984021841913776,0.28850629232885083,0.29137991106201167,0.27606828896212665,0.2851450458714675,0.29850944318435424,0.2996073579224312,0.28722626011887087,0.26903125149569007,0.2685770205826099,0.2633177481586486,0.2404666293298261,0.2542627263444448,0.2197083185702562,0.1816275002480534,0.21221251165023247,0.26709768168118586,0.2938674256252751,0.2874847546276422,0.2840503598797586,0.2873807900567025,0.28434389849464736,0.3116831578951613,0.30276349467869235,0.3702627762209296,0.43962237593788256,0.3760895854240127,0.2741762991053749,0.20868182622306009,0.19334104571801713,0.17431658315617238,0.17501868248740937,0.17231836924734,0.19216190288063473,0.1753768116758989,0.1360986807687956,0.09317789111539287,0.07714572311233159,0.11114109144477702,0.13125070011976891,0.14574132214102598,0.1624422358814579,0.17316252003447818,0.19308390638849104,0.19531135094579977,0.2167463365785558,0.20199069502636569,0.1938680721610666,0.19315744675217505,0.176456238860216,0.16788442043674578,0.1089140803773132,0.05684836791449488,0.07310668230736894,0.14931617650057216,0.19764078011457453,0.21942759162170056,0.1476263850626216,0.08074219557845552,0.1541822629660654,0.30256110070988296,0.46308808618258546,0.591887623451175,0.5472566092547346,0.4714082968306643,0.3647780093967423,0.2754542888859213,0.21820117949490303,0.1949706987539761,0.19383213016009648,0.1943323228952174,0.20188636602204557,0.19267129801892935,0.16488419883850458,0.11761342142669928,0.07906511271524685,0.11565289148364499,0.13209880809550434,0.15208823567658758,0.16826422046063705,0.18957401455033818,0.17519567079450304,0.18170336062836157,0.17161248851646516,0.19224523010039896,0.17560108752735193,0.17170104833302968,0.18338038956817737,0.16741639460608315,0.13889846308207954,0.08413265084366106,0.059056583974032684,0.08222436774941233,0.13772946086195237,0.2053886650910286,0.2508075463947703,0.21600720911716298,0.23127850845981257,0.2614464579154081,0.1496274999633762,0.1290407115033556,0.2298119819466855,0.354782911966641,0.3719387382292805,0.30143093949472366,0.23943035859723594,0.23792264127281193,0.24962613460967553,0.2840887418292706,0.28076058434107143,0.27877689500990144,0.2779604739642396,0.23181539413754315,0.17926203921378647,0.18237667101420207,0.20280209064927845,0.22883144420401802,0.22937150263480266,0.18709724283373141,0.1635893857157802,0.1623188878306676,0.14684170347999537,0.15720006384813345,0.1626705380494533,0.1624050814968676,0.1386163672252536,0.06854250279162599,0.0,0.01450831491315796,0.0902253814437115,0.14539932709164294,0.20661122241138052,0.18854088451770856,0.10807898912768099,0.13935970747455428,0.12273408234892624,0.14756380253246348,0.2525043757731922,0.31456687998419053,0.2385422977342886,0.18323482850461215,0.16571095443349027,0.1800488920303085,0.15851916181339387,0.1413262295065998,0.15494364944204086,0.12260158919568376,0.09910227655368065,0.051280981616208976,0.05592326888920063,0.08884920670942176,0.12947738790846142,No
