0,1,2,3,4,5,6,7,8,9,10,11,12,13,14,15,16,17,18,19,20,21,22,23,24,25,26,27,28,29,30,31,32,33,34,35,36,37,38,39,40,41,42,43,44,45,46,47,48,49,50,51,52,53,54,55,56,57,58,59,60,61,62,63,64,65,66,67,68,69,70,71,72,73,74,75,76,77,78,79,80,81,82,83,84,85,86,87,88,89,90,91,92,93,94,95,96,97,98,99,100,101,102,103,104,105,106,107,108,109,110,111,112,113,114,115,116,117,118,119,120,121,122,123,124,125,126,127,128,129,130,131,132,133,134,135,136,137,138,139,140,141,142,143,144,145,146,147,148,149,150,151,152,153,154,155,156,157,158,159,160,161,162,163,164,165,166,167,168,169,170,171,172,173,174,175,176,177,178,179,180,181,182,183,184,185,186,187,188,189,190,191,192,193,194,195,196,197,198,199,200,201,202,203,204,205,206,207,208,209,210,211,212,213,214,215,216,217,218,219,220,221,222,223,224,225,226,227,228,229,230,231,232,233,234,235,236,237,238,239,240,241,242,243,244,245,246,247,248,249,250,251,252,253,254,Target
0.31923897469428264,0.3160035925726524,0.32868691287459717,0.3418415210099607,0.3457972608556322,0.3312191747609007,0.30904401573897455,0.2818030896203191,0.25315512117511985,0.22199591487924908,0.1881222684813425,0.15090741827013698,0.11864780529370422,0.08657754035365473,0.05358275938861057,0.024910388956994933,0.014905783625686397,0.040513256112387874,0.07235406008144019,0.10494206629247416,0.1359526157776142,0.16693781417185083,0.19724420419127153,0.22374127197904536,0.24945203536842098,0.2736492922384829,0.2910013188357824,0.3043835821991364,0.3175437627347858,0.33983648752587114,0.3697065621821235,0.40373580341445037,0.442322685509814,0.47909647287584545,0.5207970450413414,0.5632322019362869,0.6012289958757747,0.6410248714343058,0.6835836077550427,0.7261588836406269,0.766933777309463,0.8041457709487464,0.8463714209197971,0.8889010360473749,0.9278603455979771,0.965967611229723,0.9908210892880011,0.9675472153734709,0.9255328579351109,0.8872771393771096,0.8477560066447004,0.8052083168389504,0.7626248724662629,0.720041428093576,0.6774596551194164,0.6359100661624421,0.6001371403850658,0.5691980746483246,0.5323107701390025,0.5009050968622956,0.4646500852243899,0.4316871198015594,0.3905513088377811,0.35922196356508496,0.32570048097336646,0.2847484185648913,0.26234692531299253,0.2902784627688869,0.32638334389275603,0.35252362054776853,0.3593261797227979,0.3543534691475191,0.34202241153900304,0.32152692474548383,0.3173958204252688,0.3328758187064237,0.34403501327664354,0.35070785447669295,0.3492837936144625,0.35071429118076825,0.34060577608316434,0.3327425303730499,0.3218664183135945,0.3121437022602863,0.3175540327241312,0.3303268892648378,0.33913935828997144,0.3313858018257002,0.3108639000541801,0.2863172318697774,0.2547654633138542,0.22193320323179033,0.19143696984829772,0.15813884967230274,0.12422685793721311,0.09197132343002978,0.060036816480349864,0.02973799431782098,0.010037833243762284,0.02692438538880715,0.05522737679950207,0.08473748769488776,0.11628879209790266,0.1466124138866115,0.17616121221409153,0.20349204736238258,0.23209380253802203,0.2542960514129263,0.2725314837416023,0.2894237674096033,0.3056812133076242,0.3190604150967641,0.3443642434220867,0.3772267378120465,0.4170926157069089,0.4540898853816321,0.4952777189670817,0.5320816351181709,0.5737969800967228,0.6162295494351154,0.654200610609828,0.6940243605392006,0.7365835722244539,0.7791670165971406,0.8217504609698277,0.8643339053425142,0.9069173497152011,0.9494455634874815,0.9870830522259805,0.9977671461800385,0.9671517299515929,0.9298108890232691,0.887504744080397,0.8449212997077101,0.8025079422524827,0.764575362407888,0.7246935158956657,0.6821335808097592,0.6395501364370725,0.5969667935398276,0.554758860924485,0.5175853069342601,0.47675484522245537,0.43417897316643483,0.3915955287937477,0.34901208442106124,0.3064286711009686,0.26435359274178827,0.24620383328938467,0.27803704890493963,0.3117027167497365,0.335434998971594,0.3397185328816107,0.3353960658342058,0.3146962905027971,0.29788058925958427,0.3094528133261444,0.3266937938176503,0.3388681976169513,0.3397785345068264,0.339776641030611,0.3385550085968131,0.3284476211271615,0.3181310006829229,0.3096560331612278,0.3076221904887385,0.32262422136318636,0.3342592392064906,0.3368804618302911,0.3255196228434566,0.3037554242216657,0.2768957759253462,0.2483547550195856,0.21715380214996538,0.18370675577412154,0.1516694356660856,0.11930573994582938,0.08188508131472994,0.04832148043511342,0.017404129444425043,0.0,0.018826343151398195,0.046647373907301115,0.07817881523289649,0.11283248545849667,0.14395839384330833,0.17248361215923713,0.20063699293353732,0.22550992226292876,0.24970900466351187,0.271903102167505,0.2884494501350131,0.3035970329628931,0.32076860104663363,0.3478234476930925,0.37972362697648754,0.41649804904299026,0.4537693513567548,0.4942056538606253,0.5361935740773586,0.5730886528959972,0.614400238507193,0.6569738556283663,0.6979003938660137,0.7350173983932634,0.7771844448031272,0.8197677710650543,0.8622463918353295,0.9006591988053531,0.9400128059133611,0.9808988343990314,0.9999999999999999,0.9742701505873549,0.9328636263489379,0.8960590528508469,0.8544483195599414,0.8118666038325947,0.7692831594599069,0.72687358582847,0.6889636800617257,0.64905630566914,0.6064954405619568,0.5639119961892692,0.5213285518165834,0.47874510744389587,0.4361616630712096,0.39357821869852183,0.3509947743258345,0.30841132995314846,0.2658278855804609,0.22354428156745654,0.20249454068828954,0.23634862038390902,0.2735985636252801,0.31017558978446724,0.34221335760415006,0.35454659855491355,0.3542830340937927,0.3428524358033723,0.32224016192269567,0.31508348067447034,0.3332362955702629,0.34752673547546664,0.3542933872776587,0.3499356681567739,0.34726101664265496,0.3422682173104631,0.32920632249839377,0.31957655126806006,0.3260109281853364,0.34314951102163327,0.3531270201271596,0.3461037838383513,0.32548955161180937,0.30195398005390206,No
0.2375936909646965,0.24951647880840566,0.25588210664777544,0.2474619065185064,0.2309206061317861,0.20518664996009872,0.17749470464619566,0.14625415193354852,0.11551265411210077,0.08323411298113648,0.051012964846905096,0.02144306626881387,0.0,0.008680184162925153,0.03439151059937284,0.063864091311159,0.09353626418044425,0.12319201639104116,0.15091379349485923,0.17283120302251387,0.19082486295363021,0.20726116262002625,0.2257400985012108,0.25183008245716065,0.28366298705956794,0.3211846771718796,0.3594753558271102,0.3981899302202738,0.439603262369755,0.478141698710395,0.5214028624233205,0.5608761839150063,0.6028111713264717,0.647223725464467,0.6877432000398291,0.728557767753435,0.773002047445589,0.8175104159536237,0.8620183983620286,0.905544553700337,0.9261238361582886,0.8990161262281098,0.8557871227097464,0.8172709811683674,0.7737366018017193,0.7292298614628419,0.6847582149641172,0.6434578209223509,0.6034031721838793,0.5590183267618878,0.5145099582538537,0.4700015897458185,0.42563174215323873,0.3857067613337464,0.3442645645269493,0.2997900550448649,0.2553433861684209,0.2230215247738052,0.24152817931586412,0.26169370460839714,0.26438884389282524,0.25713638713635456,0.24256531932643322,0.23007002096502638,0.2230728322491211,0.23666612098362605,0.23835285504465809,0.22529400922701281,0.21818219130603378,0.22203412088865337,0.22933824893389887,0.2331132552812365,0.227040058507036,0.2101243000821691,0.18214392784748523,0.15350255892247522,0.12368614537105582,0.09199741378859816,0.061442475411905395,0.03012907596713532,0.007312329186275113,0.017072776775365783,0.04428789260510557,0.07267107695911967,0.1010048054987076,0.1291687475553842,0.15323518902809852,0.17266791702418094,0.19150985811250343,0.2077821359187384,0.23022460202021255,0.26015525804201345,0.29522988372522474,0.3315768031253834,0.3722308382918855,0.4113127153670979,0.4540174528296872,0.4927377919010969,0.536266344260935,0.5750150745692271,0.617918536938342,0.6622258033881561,0.7016969105004758,0.7436366654988105,0.7881233710221962,0.8317427235667885,0.8702676138913672,0.9106962750084622,0.9196029474390519,0.8841959386340617,0.8406210608902276,0.8020990647362376,0.758613963639647,0.714107445422552,0.6696075830961135,0.6270867184169722,0.5880605221298081,0.5438959107215979,0.49938754221356274,0.45487917370552866,0.4103824815704564,0.3679972251584842,0.3288712100844684,0.28466767933347437,0.2407945387848094,0.22493948079645953,0.25185575558583695,0.2707910405785554,0.2719097792831635,0.2633553280187695,0.25270583491796605,0.24331812420504462,0.2493754744020158,0.25610739798423676,0.2519752166223581,0.2436085909192085,0.24142606464843763,0.24755037159786797,0.2584049982669643,0.26164150481231974,0.2506430715036758,0.22990625148010868,0.2010408491104445,0.17211003084721832,0.14210877960845147,0.11037703773480367,0.07971832899274012,0.050334859238118534,0.05239624268088616,0.07571277169181378,0.10391454732929106,0.13459244441819873,0.1631284333830716,0.18861731621753286,0.21468429064638217,0.23494090815510793,0.2517132165056315,0.270681452105312,0.29284522335385277,0.3238213327296129,0.36039949505013524,0.39849762001183264,0.4367374152647665,0.4755323467955306,0.5174707345385741,0.5574939441517612,0.5988081080452943,0.6432369845966663,0.6843966070618515,0.7245754685148,0.768983260326777,0.8128397343168541,0.8514305573778742,0.8946762232226062,0.9367921535407555,0.9679255913543783,0.9564430367779162,0.916089411947216,0.8716198315622887,0.8271393426275389,0.7855952973393134,0.7457687238416975,0.7014098731538037,0.658321973004673,0.6252905677286369,0.5835187233150003,0.5390979350450626,0.49856050494830884,0.4577677333827612,0.4133155352986462,0.3688071667906112,0.3243634052383686,0.2905631795116226,0.30850390012812423,0.33104934989920975,0.3389567493409531,0.33515127566077996,0.32201364709990865,0.3111678896255827,0.3078658562547123,0.3239101319466493,0.3222887954508853,0.31729387607920767,0.30779316866063766,0.30380095188591705,0.30317144752598946,0.2973191449403674,0.2950029411958315,0.28159272922768763,0.25882985272473413,0.23128703687846341,0.20323210045931406,0.17057875351103435,0.13743636862440356,0.10505838371800214,0.07309449301403959,0.0459702320030031,0.05650904489568087,0.08314320904981987,0.11235259257170926,0.14096926363826978,0.16993075972621452,0.19746412120593893,0.2197085536275294,0.2386717903561535,0.25406304464147667,0.2725743057640799,0.29891794181347797,0.3319959875208158,0.3686302755003057,0.4067386869963612,0.44634605123299886,0.48594701498786663,0.5282449443613126,0.5672873952498185,0.6114602799634872,0.6538664365103137,0.692964728200361,0.7371741507885865,0.7810659692729169,0.8196675583270916,0.8628812850261001,0.9073860325825298,0.9518886433482574,0.9932168455499715,1.0000000000000002,0.9658206296281528,0.9214963364877424,0.8774457329639869,0.8386306927935201,0.7957876316682275,0.7512846629495931,0.7067762944415596,0.6622703211610148,0.62101486603295,No
0.4888723422140443,0.5370552112241799,0.5885017237005278,0.6211494745894567,0.6434224018239415,0.680919521776789,0.7169664193222326,0.7547192820649354,0.7731435676582331,0.8009588560518247,0.791298029249338,0.7564372623358039,0.7272442533169278,0.7574593284494208,0.8051135076181372,0.8517796960529974,0.9026438456498654,0.9279966325708476,0.9362342406950125,0.9288752899299139,0.9230930834806003,0.9057365186479743,0.890980200231445,0.8706048534146983,0.8494928396900653,0.8197544592538625,0.7941674528861765,0.7750592267611752,0.7585494297337424,0.7567281981623512,0.779600085026866,0.8098088783506631,0.8406067099944617,0.8719747771256653,0.9007763711521303,0.9205109653639868,0.9312509745354102,0.9354201646830621,0.9273423954976295,0.9266217288546462,0.9274678580949186,0.9365319914310034,0.9514802173357085,0.9589945381879262,0.9587920250888381,0.9494402924379192,0.9313270864176807,0.9390115142752508,0.957180794174758,0.9624560333016142,0.9795156963464172,0.9910839571985036,0.9829467992704432,0.9430258914023121,0.8907051774365068,0.8394379356467826,0.7951999440880057,0.7436823577781729,0.6910700014296102,0.6384721091340891,0.5891901693623062,0.543746212833614,0.49143642126651155,0.4388232649509697,0.3866054589690108,0.3417015958590316,0.291791968030772,0.23918963780761404,0.18657633725444234,0.13396303670127085,0.08134984494448294,0.02932043200565637,0.0,0.023566637696522896,0.07162373567242075,0.1242041180502792,0.17681741860345002,0.2294126876183339,0.2788619127192128,0.3241269940771231,0.37645096662216393,0.42906425069103393,0.48167755124420564,0.5342908517973769,0.5869041523505486,0.6395147907271582,0.6906557300290409,0.734832592568475,0.7865384018380758,0.8391455724844249,0.8896360131432081,0.9310072332855212,0.9486769339801676,0.9567873507267325,0.9487936723107208,0.9340396552532894,0.9174576183155195,0.902360847157828,0.8842497473760783,0.8600363859812706,0.8318427916285197,0.8035238204121232,0.7833395045156505,0.7669486820258208,0.7597628506632143,0.7768067857203461,0.80509622441788,0.8384899074442168,0.8680019704639174,0.8975958977914683,0.9191177734403116,0.9327229287305984,0.9373929477591415,0.9368834185323441,0.928941173414695,0.9272412551456487,0.9366889190071294,0.9497537053193462,0.9587356059054118,0.9651097823550706,0.9663000087061732,0.9463190030068588,0.9415401357347232,0.9637792188508035,0.9724798822781603,0.9830999670241632,0.9990952779096832,0.9999999999999999,0.9689497583613923,0.9252324583714994,0.8737305374188488,0.8211210044086242,0.7703614904457051,0.7259582323599182,0.6740974406777883,0.6214846684399321,0.5688723911785821,0.5173050641489835,0.47315845307089666,0.4218491920621269,0.36923783635234886,0.31662637332755084,0.26542833227129103,0.22116780436792205,0.16960341732550266,0.11699101415534441,0.06466293551469904,0.020490274318481938,0.004912296860233756,0.043140126731643025,0.08879482927930937,0.14117615048678533,0.19378945103995682,0.24640275159312852,0.2990160521463,0.3516293526994717,0.4042199142421722,0.45335845387681084,0.4989036265443828,0.5512628842338835,0.6038761847870547,0.6564894853402267,0.7091027858933981,0.7617116309370865,0.8124317659717514,0.8568526426714423,0.9086687936079808,0.9518363251682472,0.9615933156604054,0.969182703516755,0.9610142503874114,0.9490102754797832,0.9383559044722244,0.9158843157909718,0.8950227025479945,0.8733628723905259,0.8445566517931623,0.8139372964326762,0.790088932739628,0.7773981969424323,0.7793031009634114,0.8081838323803009,0.841027573583779,0.8699706908148951,0.8998438990428689,0.9269770307906108,0.9428246100754011,0.9481933210061385,0.9481471016156978,0.9422375165972238,0.9411277597723792,0.9391120045844027,0.9435472396913337,0.953905627775392,0.9588248984062598,0.9479924925518134,0.9296625208121604,0.9363463117177536,0.9560992239501206,0.9640335517720441,0.9809903780488748,0.990630085302214,0.9765032877494423,0.9280566671063034,0.8792049142800261,0.8334122588606335,0.781021744495571,0.7284086475235124,0.6763289840513859,0.6316249773870429,0.5813817538552247,0.5287749412555124,0.47623475277796457,0.42896645267120703,0.38166681508544376,0.32914140972110195,0.27652810916792914,0.2240320576669822,0.1774015311744631,0.12945606445193858,0.0769087653205085,0.028425670829164917,0.01294432263550871,0.04585744100250677,0.09768559100762442,0.15025582455017739,0.19834996737839472,0.24484044821608186,0.2973188489026485,0.3499321494558211,0.40254545000899167,0.4551587505621616,0.5077720511153344,0.560349667109531,0.6086338217120087,0.654949245481154,0.7074055826497477,0.7600188832029177,0.8126170943879171,0.8622602802440854,0.9066730969803992,0.9383386832131445,0.9460416139979043,0.938055092389008,0.9290093077969493,0.9121624461626415,0.8982628448825057,0.8808210241796638,0.8508572787272427,0.8235369096592652,0.79627682219794,0.769986421301282,0.7514245493665698,0.7349602253673847,0.7407063027214956,No
0.5346737262898105,0.5347267891609258,0.5389019457492661,0.5364613727276037,0.5388659476105744,0.5500243782170735,0.5457941962687392,0.5479886437238302,0.554722671599633,0.5573903739050088,0.5584407072038784,0.5549353173045506,0.5537438958130423,0.5455995250319723,0.5388078700261809,0.5255878170098807,0.5155638107102674,0.5060379453113721,0.5214438085767104,0.5335038379650965,0.5388452846900311,0.5532034291402281,0.5717026792187068,0.5628273762683382,0.5330077704273153,0.5017934383540434,0.4656963723153691,0.44008996273205025,0.4158463918830817,0.39089905895729404,0.36522413972053536,0.328706586382689,0.2895233965755599,0.25428995403912213,0.22107191358999012,0.18196414956704565,0.14390835246044342,0.11278479494103899,0.07470296918374375,0.05050839401560325,0.058224665912968154,0.08679672257750215,0.12337853054513181,0.16259236271920097,0.20181105234503582,0.24102974197087046,0.2802484315967053,0.31946712122253995,0.3586858108483748,0.39790450047420944,0.4371231901000443,0.47634187972587894,0.5155605693517138,0.5547792589775484,0.5939979486033833,0.6332166382292179,0.6724353278550528,0.7116474042727889,0.7486114382920799,0.7802802971208618,0.8191878877481715,0.8584065433378825,0.8976252329637171,0.9368439225895517,0.9759615773867261,0.9999999999999998,0.9703764551042677,0.934461774510327,0.9018969802167922,0.8628523662383942,0.8238613248469278,0.7915461070649952,0.7553091437826331,0.7178839392698573,0.6864781975387415,0.6490792657168765,0.621028474905924,0.5957280769104962,0.5756479481322205,0.5629365006182789,0.5483367164620321,0.5364963114499168,0.5258705959887084,0.5301231456593742,0.5179126556038207,0.4989267007032361,0.4826275338498922,0.4688553011714274,0.4501818182883113,0.4305717493036183,0.4094438939305072,0.38182147699472613,0.3615798086888473,0.3386830534779026,0.31556538191581196,0.2943945630885667,0.2833291412706014,0.290043933760878,0.30778476176390934,0.3335634013115787,0.3567595117942839,0.38258749733645847,0.40840041779202374,0.429762136009052,0.453427377521306,0.47217163084711933,0.49031183168613635,0.5017149189226804,0.5129518830883086,0.5144275927531956,0.5144254806950246,0.5121573767951897,0.5003263060332859,0.48778406340748925,0.4840794137409823,0.48466731230431526,0.49325204589460125,0.5025833127491379,0.5043046631276553,0.5043173709223903,0.5070792021133406,0.514223267001712,0.5189024193823495,0.5186081617477463,0.5183924957103061,0.5244313788868662,0.5245512626323288,0.5237831451472095,0.5185991921021187,0.5242991339770049,0.5245514936434665,0.5245514936434665,0.5245037886949333,0.5193273252934947,0.513595948577205,0.5033082764864587,0.48973805072149124,0.4756632521289952,0.4792336311186838,0.4928991863045251,0.49821250989725274,0.5120625785002229,0.5310969004143422,0.5392268550522297,0.5229704292569217,0.49329971419283014,0.45807544775144393,0.4253191220492427,0.38623414916644316,0.3470157450457525,0.3086797202208795,0.27744069020590656,0.2394804647993456,0.2002801078465044,0.16455993314569395,0.13181223547751175,0.09272941500224596,0.0545048654983451,0.02356682585036074,0.0,0.007531863563083663,0.04306966152283298,0.08014665117790187,0.1117219660590989,0.15060451652814888,0.18982315328936594,0.22904184291520058,0.26826053254103543,0.30747922216687007,0.34669789061064904,0.38573883559773825,0.4182862105222589,0.454244573303507,0.4934503704826685,0.5322236387468922,0.5595420046839652,0.59095630859503,0.6300807308603509,0.6692959003467922,0.7063461176728794,0.7301938470769327,0.7667176061959176,0.8059177728265763,0.8421572702967153,0.8743822164587283,0.8989358416702806,0.869814315205309,0.8363655636362035,0.8014083110433892,0.7622254856826214,0.7230067960567867,0.6837909996686184,0.6464853561467598,0.6150896082295971,0.5827873544227227,0.5587545689170836,0.5398757064658715,0.5245026206971084,0.5145138331113559,0.5029793266165714,0.4936362925474731,0.4818877046385097,0.47365958640331063,0.46454107886550333,0.44790745623166495,0.42833069040030125,0.4087213755476322,0.38911206069496274,0.36950274584229303,0.34979817449716943,0.32661914699141503,0.3092179927104344,0.29422865908843954,0.29335738338296946,0.3074397609092794,0.3285775506598727,0.3561156210562699,0.3846175092369839,0.408548886419682,0.4321145646266922,0.45607967588333853,0.4785660211034577,0.4957223089010425,0.5119759823861176,0.519524602600639,0.5253658893086339,0.533432437679332,0.5288953932481548,0.5217192254346212,0.5137366976313777,0.5054549994336237,0.5043080533175333,0.5043070283507785,0.5043070283507785,0.5043070283507785,0.5043248962451943,0.5081102111689271,0.5147493621600403,0.5224649107698547,0.5245481357530026,0.5245514936434665,0.5245514936434665,0.5245514936434665,0.5245514936434665,0.5245514936434665,0.5245515575517199,0.5249457726777094,0.5323311781182443,0.5345316952043617,0.5278326999114704,0.5158667044643954,0.5031917630163569,0.48615624508277433,0.4747329285059685,0.4842924894474403,No
0.9396271420263673,0.9314905027635256,0.9206894227729752,0.9051571628384092,0.8861461619857913,0.858244496055877,0.830362870460077,0.8191638787669431,0.8180368398071285,0.7908725925738598,0.7549649574606698,0.7348894838541555,0.7181460014227243,0.7273608255101967,0.7558089607233329,0.7894543807533498,0.7869920721489054,0.7749746221370355,0.7844777923951374,0.8012726021734538,0.8238083428098828,0.8472498560036696,0.8677053724805996,0.8828541920842674,0.8883981306272506,0.8958296771527261,0.8985177235033652,0.9002661303081971,0.9083765074532255,0.9146702516040537,0.9196789068628997,0.9271817600609571,0.9308740389855357,0.939049519408703,0.9401216842638753,0.933731896977422,0.9142348920679038,0.9111557809795203,0.9305649475779425,0.9401228587752595,0.9454470329346665,0.9585124999252674,0.9606532991010401,0.9447979333787102,0.9081830853362121,0.8621137241548498,0.8160400910158452,0.7771821400106182,0.7316330192193146,0.6846703866842594,0.6377206773432926,0.5939070692421746,0.5539228553151114,0.5072266896045283,0.46026235223962453,0.4132979774240959,0.36635027257857944,0.32264392065114955,0.2825652005380952,0.23585429011409342,0.1888899429794615,0.14192556816393231,0.09497986781386614,0.051381351730661606,0.012832121790519846,0.0,0.03138052081894627,0.07699337794686478,0.12395658997364345,0.17092096478917196,0.21788526633173944,0.26452736809311883,0.30416505933821436,0.34837194007618955,0.3953289992338067,0.44229337404933533,0.48925774886486395,0.5362221236803923,0.5831353280003733,0.6255866353343378,0.666810535124549,0.7136657833094988,0.7605763227298321,0.8029402377238943,0.8441917376556687,0.8848485845419549,0.9058418277120213,0.9186996602581317,0.919216545303672,0.91310713862999,0.9033998991030623,0.8901292060323791,0.879442377857796,0.8673411335083245,0.8548083454978133,0.8384140162005367,0.8308258107016766,0.8256996414008111,0.827907110142279,0.8441742940882186,0.8644062671352484,0.8877942946383475,0.9085354042246958,0.9239105802370016,0.9296839489488626,0.9274779032335883,0.9219518872746368,0.9292434330365666,0.9300509607910012,0.9371950996746548,0.9443144420837057,0.9504916467225297,0.9547811292511368,0.9608692328785216,0.9610046842401503,0.960985087596606,0.9569656557674842,0.9397987625220687,0.935515200211156,0.9561340014027342,0.9651853237532779,0.9693165567747282,0.9823151111963977,0.9924477648044228,1.0,0.9826653397660441,0.9422754071054669,0.8958243408065976,0.8564475003807779,0.8118738215116026,0.7649182097386189,0.7179575453310458,0.672843764266873,0.6338013535901883,0.58747439542215,0.5405101752939838,0.4935458004784552,0.4465854683690391,0.4015806156758479,0.36246933494404066,0.3161019959317153,0.269137766033821,0.22217348891557398,0.1757103043655932,0.13647734727227878,0.09186474271506506,0.060199136920731755,0.07951068317844534,0.12174384179862019,0.16867484251538611,0.21563393609685022,0.2605589113490614,0.2997019413595601,0.34611866497329413,0.3930828769600203,0.44004725177554893,0.48701162659107733,0.533976001406606,0.5809403257452059,0.6276168318378961,0.6674750375169722,0.7114316538496746,0.7583839788611604,0.805050655144905,0.8448449523966515,0.8879259433888973,0.9227626968821987,0.9445470324126357,0.9595529697821026,0.9603812657123754,0.9524141545519489,0.9489002339651313,0.9382061541644782,0.9236469413624624,0.9047977069551643,0.8808417980362111,0.8493404133464724,0.8241160570623427,0.800634710596912,0.7784560947904342,0.7636553389858032,0.756223591333673,0.7670382563869222,0.7895926635101835,0.8177303711560946,0.8451039555543365,0.870006932500071,0.8968791879689733,0.9122505616263248,0.9239202021911819,0.9296657385910125,0.9297635908003792,0.9305354778947532,0.9390110055786338,0.9481891372131404,0.9518387252323983,0.9599849559690024,0.9610041436485257,0.9610046842401503,0.9611383130623314,0.9656634650229363,0.9574014042672552,0.9418341618966879,0.9350657109155209,0.9576543769107826,0.9708820495780106,0.9757233227104816,0.9886819712488875,0.9846554352987422,0.9780793547415823,0.9440404883325317,0.8995994182399785,0.8602356139727225,0.8137202118646745,0.7667559461444435,0.7198860731089107,0.6784516550704096,0.6362188285862003,0.5893122865153382,0.5423479116998096,0.49538353688428094,0.4488087874689395,0.40931253106066334,0.36489441770247244,0.31793987725517425,0.27097550243964563,0.224011127624117,0.1770467528085885,0.13008237799306,0.0831183353482885,0.03707216292086357,0.015239929962930998,0.03744370231205396,0.08352669516364075,0.1303946529421678,0.17167512796552087,0.21404372511388203,0.26097004867459783,0.30793442349012645,0.35489879830565485,0.40186317312118325,0.4488275479367121,0.49579149729298577,0.5419840908528644,0.5809084504105635,0.6262738103132512,0.6732355823813487,0.7201885158401162,0.7643631078640729,0.8040485457053419,0.850202648057717,0.8886184722834951,0.9168767062095156,0.9349778502407282,0.9401444656929587,No
0.8983416110675704,0.8643010726856539,0.8187797256453282,0.7815207281179892,0.7360035318190457,0.6891262756323335,0.6422485417266686,0.5954854291482243,0.5553250216252625,0.5136260089615019,0.4667878300414523,0.41991009613578734,0.3730323622301219,0.3261572747176029,0.28140160865414665,0.24383791041738556,0.1975715834098457,0.15159547432146936,0.14257638878903278,0.18608745719776132,0.2308929375821629,0.26843726559342396,0.3142496554959997,0.35192604715644893,0.38957568407321186,0.4116068230557024,0.41415103629247185,0.41997300528126114,0.40681262735937573,0.3892516617769697,0.36888472307586606,0.3426285122394692,0.32863296134009956,0.3250897978617666,0.32993889116327213,0.34633975108857196,0.3687211502500187,0.3735776885363602,0.369938121821612,0.37871246228513056,0.38833620636258526,0.3890351063242934,0.3925316742678302,0.40690708567950584,0.41305335776372165,0.4131288916847151,0.4131288916847151,0.4131288916847151,0.41312293178328896,0.41068320510267786,0.4015177187188492,0.40044399404355224,0.3911207933736873,0.3850225305654613,0.37351091574584827,0.3653843157648071,0.3729305962299565,0.3844977402233887,0.39068629641432495,0.40406485268177206,0.4128690303209106,0.4082186727272654,0.3898446064360923,0.37580219226420586,0.34894846393069234,0.3204513070110402,0.28758230056619727,0.2524697954374602,0.21734580792447478,0.18219758447826973,0.1470493610320649,0.11190113758586007,0.07685024278250618,0.04908174462318016,0.03330738319964888,0.049331721087395586,0.08497831958376656,0.11825139113989236,0.14945532409834006,0.18066523986762517,0.20797852894844726,0.23226394841325426,0.2605542354102406,0.28452696393793464,0.3103949338982954,0.32456199796334206,0.3427836658282588,0.3657308737392684,0.38034213911203074,0.4006810401552341,0.4196035113431036,0.4466379308431121,0.474659215499589,0.509878718354938,0.5468361565569679,0.591235141233738,0.6289973863882936,0.6733490860565567,0.7190792567807336,0.7564275631366957,0.8019270957282087,0.8488006586455008,0.8936172141026104,0.931153202243421,0.9757540810130465,1.0000000000000002,0.9792718146512651,0.942388564388905,0.8977099903973731,0.8508356125362913,0.8043228120173265,0.7658958357413443,0.7222462868180248,0.6753748436096034,0.628497109703938,0.5816389210836486,0.5389623957716088,0.49971763223033716,0.4530363980187213,0.40615866411305634,0.35928096247933294,0.3127202874280277,0.2885077078397047,0.3188416338545892,0.3604521664960745,0.40120999620263986,0.44197967253462855,0.4794340434475537,0.49687124100686186,0.49747217627619666,0.4946956469055708,0.47973167866104016,0.4574048290747157,0.43259781377302464,0.4121172835251239,0.40192838435589473,0.4065849204006675,0.4189775873507815,0.43746869143384726,0.4476545875666178,0.43863735188919084,0.43652899192616545,0.42687242279486903,0.41589912480676783,0.3977761520493541,0.3821052900290225,0.37029631274284713,0.37643271672674206,0.37697812305655964,0.376978219872383,0.376978219872383,0.376978219872383,0.376978219872383,0.3769781423726115,0.3765181507765083,0.3677651583203614,0.3636573434172228,0.3484502401123899,0.3383566929018438,0.32918202814407027,0.32878383446141934,0.332119926958067,0.34645235337966374,0.35837793958187025,0.36734430616972014,0.37609784263064916,0.36796666997730765,0.35368063684593554,0.33057533616850265,0.30399645088448723,0.2756762453925474,0.23815754765327002,0.20582765104216239,0.1707325600497147,0.1327020068416731,0.10014514200486824,0.06520943023299774,0.030747863813113563,0.006040389808237956,0.0,0.030524309349340806,0.06262773237446728,0.09216126600891239,0.12114685315666329,0.15233125968523997,0.1810653864298042,0.20963703173440873,0.23365147126688557,0.2580844790922736,0.28623098402856106,0.30426250110801867,0.3178227911358267,0.33343851263577506,0.3505092637862328,0.36620508032462706,0.38504309663392244,0.41107668946247977,0.4453115109363648,0.4825321391336892,0.5234566828373135,0.5616064037199127,0.6072344188339149,0.6447209911724141,0.6897425408183413,0.736617546930799,0.7820790530483899,0.819315285580198,0.8652017009418491,0.9110189794375045,0.9444467247296247,0.9439705163516343,0.9073484102877576,0.8665621931322576,0.8197414945478074,0.7735557554997763,0.7361654620972293,0.6911559370557929,0.6442805402729823,0.5974158074738394,0.5538907634354089,0.5154010165013883,0.46881982858776694,0.421942094682102,0.3750643607764357,0.3281885753599172,0.2831730761310227,0.24585982327462053,0.22127590087383586,0.2508707775535335,0.2931295681105599,0.3306306512128898,0.37384886908498305,0.40545455088979376,0.4130795158817484,0.41124644171246083,0.4013268630059137,0.3877757975202323,0.36735441174941674,0.3459910428987085,0.33009836315994634,0.3292814294578885,0.34269948078081236,0.36567177162982323,0.3829989372521856,0.39487593159763335,0.4012357516087197,0.40929778672455996,0.4131388387616577,0.4176477154951421,0.42503487951839136,0.42517911491547467,0.4251791156221596,0.4251791156221596,0.4251791156221596,0.4251791156221596,No
0.6720755066015309,0.662261367813272,0.6476615945948143,0.6314355418618198,0.6087091491549543,0.5875639992842805,0.5637807508606494,0.5354445707723587,0.5128455922099358,0.5056741089539136,0.4921435765739392,0.47014356483369973,0.4462993369784873,0.42818879102795465,0.4255404252961867,0.44455667831942697,0.4690073182852848,0.49683812029771174,0.5262363286113843,0.555637415029212,0.5849410463650477,0.6127535054980433,0.6403303289196327,0.6667644518744047,0.681946885364525,0.6948644829500934,0.6991457506627183,0.6989597488710344,0.6940010917900119,0.68800143216206,0.6853221140219332,0.6862323055401338,0.691809333103925,0.6978134325150784,0.7052675641371298,0.7085401822380102,0.7069211195529388,0.706173287310502,0.7061719494657024,0.7060406866955213,0.7020712113225156,0.7052251727205578,0.7123924018716183,0.7137268620463224,0.7178652066867486,0.7154195264257559,0.719808838466425,0.7180798770203303,0.7098999695250541,0.7067096067113348,0.7158354257615651,0.7267627040303521,0.7394106562645952,0.7531180825489998,0.7481136623713871,0.7168046473931298,0.6826001549243113,0.6501126925958378,0.6134862136984953,0.5767230807122736,0.5399599294976694,0.5032110417474203,0.4686864924757274,0.440900799991987,0.41340285889110456,0.38278460864365876,0.3540704122317752,0.3245148156673549,0.294426685766031,0.25780887053672635,0.2210717379714882,0.18712052736738255,0.15436898995859855,0.11771588716849729,0.08095275062551838,0.04435410951978497,0.0128953516228838,0.0,0.021203220151422897,0.056473882553732924,0.0923868912908245,0.12376609333924676,0.1598019666525447,0.19656425868686572,0.23332740990147033,0.2700905611160745,0.306853712330679,0.34361686354528326,0.38037997741393254,0.41690452033269093,0.4489385562496167,0.48371977621872103,0.5204730030186586,0.5572361542332627,0.5939993054478672,0.6307624566624717,0.6675256078770759,0.7042887590916802,0.7410519103062843,0.7778150615208892,0.8145782127354935,0.8513413639500975,0.888104515164702,0.9248465956250715,0.95912525970129,0.989105756952104,0.9844041712380673,0.9496979396449692,0.9182459745146323,0.8821268208950679,0.845374971587955,0.8106353943751161,0.7798942951340708,0.7501498333145775,0.7223522244815501,0.6989372412642447,0.6793476320234921,0.6633506927897685,0.6495815584838387,0.6350892691947732,0.6203119750397552,0.6029692992344979,0.5791659982541171,0.5552225599225784,0.530906594850735,0.5056933102359775,0.4789077967630652,0.4542349343370537,0.43025635053293193,0.40773200111261604,0.4022482822399192,0.4171629523114376,0.4407167350315016,0.46895936789399856,0.4983766295921715,0.527805106228044,0.5586846728523309,0.5919556991839718,0.6192912786638225,0.6455517541885405,0.6694137418715569,0.6903790940069763,0.7023253714117024,0.7060427754907268,0.7024697032739442,0.6944961236037535,0.6861247463936277,0.6852945995991591,0.6857271320259002,0.6931415203269162,0.7027270558813816,0.7070012635265033,0.7124162877662348,0.7115136077001161,0.7118222172241291,0.7184784842189493,0.720085809823825,0.7200911826649958,0.720068496339481,0.7174614863831243,0.7155352398194894,0.7187169521991303,0.7136410701391622,0.7142784578101593,0.7190552534019996,0.7130823609864838,0.7076736034539608,0.7165960817149317,0.7262925970532206,0.7362397267058993,0.7503814438297263,0.7480956572984623,0.7212484863540289,0.6870506335771496,0.6553064967542419,0.6201930788717658,0.5834370637848736,0.5466741817354834,0.510383583735845,0.47882225194492517,0.4433410857335965,0.4065809243114988,0.3698177730968946,0.33305462188229046,0.2962914706676855,0.25952831945308136,0.22276974626090057,0.18745790512600952,0.15581901679343219,0.11943509947692993,0.0826721799797065,0.04594376032517816,0.013466881219097615,0.0017574176436116473,0.021074678167971816,0.05477566394691352,0.09151498695337507,0.12827813816797912,0.1650412893825834,0.20180444059718755,0.2385675918117916,0.2753307430263959,0.3120938942410015,0.3488497908611729,0.3839527016485386,0.4157182772295684,0.45218698742412217,0.4889500337143758,0.52571318492898,0.5624763361435856,0.5992394873581899,0.6360026385727942,0.6727093047122441,0.7042685375597544,0.7325845242873423,0.7625386211159846,0.7921538422536507,0.8287431016915692,0.8655062306764381,0.9022693818910423,0.9389531030470044,0.9720029191879094,1.0,0.9848738652018347,0.9489161779429842,0.9173494513707785,0.8821685743925487,0.8503918953717964,0.8164389901394236,0.785610359139167,0.7563809179604113,0.7288556061260025,0.7053805204138155,0.6856939899442123,0.6702138354368847,0.6574477625101713,0.6399587494162655,0.622579338929842,0.6023794995658067,0.5811364922531892,0.557330896801369,0.5322361916297871,0.5070898254232399,0.4807230061094396,0.45240364746055156,0.4251598201102073,0.4016838062495985,0.3884497861859901,0.3933055463981752,0.4140313027844665,0.44380373259422584,0.472089907243269,0.5014959574771198,0.530922406519909,0.5586847121090162,No
0.9379677502211089,0.9526383114904043,0.9517668774444105,0.9221892692394128,0.8774406543017378,0.8352443725239259,0.7924748325110652,0.7553073577231547,0.7096478158766873,0.6778666105027403,0.6957279384948233,0.7130017742681584,0.6824114881913886,0.6575915473512802,0.644922106491372,0.6071250352098182,0.5580836887244444,0.508827078524792,0.46045221481660026,0.41816333558400964,0.37013952453709964,0.32088439778240985,0.27162678264259266,0.22251014425517635,0.1785773981207679,0.13521719478366545,0.11838006942110424,0.14273621743911336,0.1788787048580478,0.2236654184447091,0.2659373773150975,0.31397165442716646,0.3632274128230054,0.4124850279628224,0.46174264310263957,0.5109261868077443,0.5556978279508918,0.6005016140891369,0.6489349066043787,0.6896886416926514,0.727498784082823,0.7627353624122669,0.8008720479907078,0.8416608878726769,0.890697372008907,0.9399547670100806,0.9880973752156846,0.9999999999999999,0.9621614360504033,0.9189835460876871,0.8830428772814106,0.854643523973449,0.8312651652036073,0.8068664561358522,0.7869033415167078,0.7704038326615908,0.7531047361623328,0.7271617800961331,0.7016886984663865,0.6770464634527346,0.6498822378599821,0.6214104531174452,0.6110358692349763,0.6218666554924944,0.6519877076927673,0.6901676662233703,0.7299896103954419,0.7647673377221308,0.8005566945205976,0.8355652568098518,0.8657178164091771,0.8847027219160842,0.8908536862681425,0.8848524805350929,0.8861735438141859,0.8783722558033279,0.8737590774432692,0.8756562170815773,0.8822946105790531,0.8829061602429377,0.8880722022618427,0.8925937883959324,0.8995369927757338,0.8997022960496813,0.88366647785335,0.8584097354527626,0.8522218245062957,0.8720937803878971,0.8878877262672412,0.9082984192032936,0.9256698877630808,0.9232403717985186,0.8908610806198364,0.8461144674865867,0.8013295095184868,0.7566065154387661,0.7074248002363291,0.6581671850965115,0.6089095699566948,0.559651954816878,0.5103943396770602,0.4611367245372434,0.41187910939742667,0.3626214942576089,0.3134051088394325,0.2679661957767655,0.2238057742780749,0.17467981217927675,0.125429311553929,0.07813645532401214,0.035796670220258786,0.0,0.009407933766814147,0.04906929169076846,0.09431579865534989,0.14347953994118623,0.18890899361949487,0.23307782552572076,0.2822125364027418,0.33147015154255854,0.3807277666823763,0.42998538182219315,0.4792429969620108,0.5284308833609493,0.5733180612797394,0.6180108111025108,0.667184679040343,0.7164422941801597,0.7656999093199776,0.8149575244597943,0.8642150773212368,0.9127298504244908,0.9306870812759763,0.8953631893518578,0.8592895974598688,0.8383942358808055,0.8217824016615508,0.8026680110143501,0.7803976746265892,0.7660199647766234,0.7453143218778168,0.721958889250451,0.689330263832142,0.6597554521922956,0.6334713468034187,0.612674839477619,0.6040778906893863,0.6275103458815999,0.6613603917766501,0.6979542566375027,0.7360779795195626,0.7732694851012499,0.8102217598599951,0.8465832828610215,0.87896192821947,0.9020125984944128,0.9168845043936912,0.9275570063110931,0.9307626050038543,0.9280773648359776,0.9201480695442422,0.912688563067504,0.9215666264146344,0.9300227240110891,0.9368933885911758,0.9406656347715122,0.9516375618096712,0.9554405228261892,0.9550871294886608,0.9445840559682924,0.9241066839321938,0.9046288747083476,0.9153801119588326,0.9390248105724873,0.9572457180971635,0.9776967353519536,0.9943106565948686,0.9881145856509354,0.956627656143208,0.9128845106836124,0.8686541223545426,0.8195197348345374,0.7702621196947207,0.7210509622451885,0.6758465801528294,0.6314710278694812,0.5823204376163876,0.5330628224765709,0.48380520733675414,0.43457712777819013,0.3886269419010905,0.34493439806471815,0.2958635067519283,0.2466059738453128,0.19767666765324765,0.1546793416570963,0.10790887594668708,0.059829789533701994,0.03565720236911807,0.05949901995475193,0.10418455580651664,0.1523624765328193,0.19462249422752764,0.2428293492931698,0.2920854447918362,0.3413430599316539,0.3906006750714718,0.43983244553442147,0.4858381177686867,0.5294668398691497,0.5785423571498048,0.6277999722896205,0.6770575874294383,0.7263152025692562,0.7755728177090718,0.8248304328488897,0.8740880479887073,0.9233456414035087,0.9721685386779674,0.9958439367025854,0.961946831577935,0.9248240341200761,0.9021361577858208,0.8811787255691016,0.8671247693879315,0.8503407779673694,0.8319278336444725,0.8077000864445752,0.7856413939023822,0.7575273790580724,0.7281386855224515,0.6988428527591698,0.6739267003567856,0.6656035335696288,0.6797472434251054,0.7104210885777794,0.7504500779209248,0.7919512922851285,0.8290545847322838,0.8674750495005813,0.9016257985851243,0.9323100562772771,0.9561305837276978,0.9643530517407916,0.9601500437689819,0.9519465771380528,0.9408698529373843,0.9374015965134349,0.9419154471114034,0.951668356794754,0.961252400023025,0.964706514373287,0.9707602738015916,0.9810564257996991,0.9827392994728027,No
0.22321281116434144,0.23181883588670082,0.26586017023829256,0.29923712704682437,0.3336244192291804,0.3693309087723733,0.3714989621074998,0.33678115714026724,0.30214083535417724,0.2642633954720206,0.2299107626718171,0.22308995004231713,0.2260447514404067,0.21161809877108428,0.18273967744017372,0.16418152472238212,0.17129589625986763,0.19732158708744807,0.2298238067441596,0.26309260344608454,0.29911568762982466,0.33450320516311804,0.37643226279476893,0.41300797421839586,0.44604841913433324,0.47879002061894127,0.5101081452058964,0.5325423399752296,0.5516165249977079,0.5566585380710731,0.5547961362776344,0.5453082794824617,0.5370396081743982,0.532859861590826,0.5329803756282143,0.5398670486572252,0.544911288608197,0.5526932240134348,0.5647132585843169,0.5685875276370416,0.5690025941815668,0.577447351658825,0.5805151620806468,0.5805239476848145,0.5805117245211857,0.5764602615212047,0.5594521267118999,0.5577617566162454,0.5739760887084322,0.5861876408591518,0.5843888543813409,0.5994633881623948,0.6179572658318029,0.6216386159922771,0.6038137200226168,0.5588294223359163,0.5168785799241933,0.47245818719452926,0.42841903176292284,0.38605108008750166,0.3371043905127893,0.2913430010216649,0.25050627229942357,0.2017380645801301,0.15326448249855718,0.11334979658283739,0.0673256874206114,0.03690515490009583,0.04519597298883493,0.08602847616920895,0.12759150465044988,0.17649035949015146,0.22553532156344325,0.2691980223254411,0.3119315934422353,0.3609389512193586,0.4100317322879683,0.45912451335657845,0.5080378232578475,0.5497584003899818,0.5944991877501371,0.6435731050857867,0.6926658861543968,0.741758667223007,0.790848854278813,0.8381877589291036,0.8780081467201986,0.9246940179584549,0.927548303698781,0.8806396095263382,0.8358991814755963,0.7941839523881686,0.7478118567819245,0.7086413853014677,0.6706928358215243,0.63588613668718,0.6043130818501945,0.5793237421072139,0.5610909587440469,0.5447641010718174,0.5310464362601557,0.5152300161333907,0.49548101131633016,0.47524919539856003,0.44957596379040843,0.4201894168045961,0.3909401493358102,0.3583793315622452,0.32567182125314,0.29293080620429324,0.26099804861244813,0.23134948962490798,0.2001137272475626,0.18117400575418752,0.18400533014097475,0.2040257335724014,0.23320038603301962,0.2648538703922756,0.30162516330170375,0.3400830355979092,0.3805883801693588,0.4149716806546122,0.45024495258691055,0.4829977558461198,0.5136643384866764,0.538492955448409,0.5568459623685147,0.5671876186858502,0.560749976017016,0.5649489814383082,0.5541773683075399,0.5433554279645367,0.5339425548058705,0.5412820981004605,0.544762342681655,0.5483507467036468,0.556389685408583,0.557378531379368,0.5709513983708314,0.5766354821653894,0.5697508024007725,0.5790118832980826,0.5805228588684082,0.58047180417259,0.5748029288235821,0.5602341384331573,0.556877614804121,0.5663518662417211,0.5732059229382207,0.574964693329131,0.5921149735480395,0.6030553085377877,0.6005919846585539,0.5725023921453167,0.5272156016641012,0.4843321189333323,0.4408312618071575,0.3917973143008564,0.3433923605698366,0.3035009579268839,0.2564379765487095,0.20734941941415008,0.15949323117161995,0.11979053365955772,0.07244824715590692,0.03242243223159913,0.0,0.009416714970161388,0.05033265797214237,0.09921994457238381,0.14174973988362805,0.1856541871423829,0.23470037132864596,0.28379315239725633,0.33288593346586715,0.3819678738886525,0.4279354566397118,0.468602756561322,0.5173345251950732,0.5664273062636833,0.6155200873322944,0.6646125526441464,0.7128449016004992,0.7524566451709962,0.7999698549832202,0.8490614601301116,0.8981542411987218,0.9472468153922153,0.9949904998832317,1.0,0.9535579729787846,0.9044850339262198,0.8597442465660654,0.8180647196864017,0.7741724755747073,0.7321177974181596,0.6916892641632879,0.6548693650274866,0.6212930330991151,0.591553370239049,0.5663118374448257,0.5463156771213764,0.5323186667782149,0.5159748770747055,0.4974946619116458,0.473666326059621,0.45148252477078277,0.42423019647560123,0.395489513223263,0.3685310329199023,0.3347428297824837,0.3047234594334334,0.2718750646870043,0.23579260827763848,0.20277575732308173,0.17316804265298802,0.14570340198534315,0.14050759725616713,0.1571002554315719,0.18728247634241546,0.2210639503189884,0.2566702365498401,0.29378012193881275,0.3374576252999042,0.37446384063318305,0.41107100077074277,0.44495961038454035,0.4785632444240526,0.5035162441723666,0.5268164960068906,0.542157872848603,0.5454585602644122,0.554205733016075,0.5456299049695519,0.53366123405302,0.532834111484308,0.5328338175038787,0.5329584335995436,0.5395474634438575,0.5489152934095118,0.5564849563654373,0.5568912668046937,0.5647100555744453,0.5642166157548059,0.5569500568143471,0.5625826474401507,0.5609084114207836,0.5629231066473439,0.5496010108446541,0.5340142068706668,0.5328759427932896,0.5392159951345492,0.560877385046052,0.5760069407864576,0.5972536886758633,No
0.9253072533506534,0.9409019717445752,0.9498813369502068,0.9593762566878143,0.9485609020951995,0.9429319730205807,0.9377181395963761,0.932049497701561,0.9221870251592654,0.9217828318565671,0.9217828318565671,0.9217828318565671,0.9217944365131481,0.9262290624297878,0.935464048548198,0.9356931667407449,0.9356931667407449,0.9356931667407449,0.9356931667407449,0.9356931667407449,0.9356931667407449,0.9357020360939323,0.9393078608159477,0.9493095622071515,0.9496114592103124,0.9528250785919652,0.9551715976571749,0.949656311396843,0.9490477823741776,0.9344167447048686,0.9094396960270141,0.8897699573654583,0.8808006615989417,0.8960006249348824,0.9267505803344358,0.9490797543105378,0.9697560040419666,0.9870570193723034,0.9994247292269232,1.0,0.9911959792053193,0.9711935066610988,0.9310241594556232,0.8867140002832543,0.8472497521923694,0.7981984650916565,0.7476039881654697,0.7026242722725806,0.6601322539234005,0.6096185519557538,0.5596123736272232,0.5196850973275315,0.47165523389984165,0.4211272378513342,0.37798189119397674,0.3336402188452898,0.28308025934128955,0.23248628215572342,0.18763082841800127,0.14501651889529965,0.09450148496910526,0.0463106135054312,0.02097672806511075,0.043027405268811325,0.08280657632784516,0.12985549457375467,0.18047108319564864,0.2310936977347966,0.28119798431278253,0.3214624590272468,0.3690539847998733,0.41967429287062763,0.4702970017824586,0.5209197106942902,0.5715424196061218,0.622165128517953,0.6726883878278209,0.7155625660942557,0.7601539627522493,0.8107456292811008,0.8613680450084606,0.9106078680163519,0.9242836568713937,0.9210674852748428,0.9098618354351853,0.8963997223683955,0.8765034106190219,0.8660062254976015,0.8550373516778382,0.8346956145452205,0.8094642084995773,0.784152324742712,0.7588337837755295,0.7308870742695839,0.6974143650864559,0.6677535709178284,0.634481013225332,0.6006740639829276,0.5641106059465042,0.5285297768823836,0.49525299716650983,0.4684767028069736,0.45039848953288675,0.45608916165356894,0.4816663838100417,0.5163597497824812,0.5631833037131375,0.5970502185872775,0.6241750040314527,0.6610070375040396,0.6992799895276431,0.7407028688816966,0.7788974016169727,0.819529485868729,0.8558756516278332,0.8896516650157884,0.9222056221640753,0.9462225514838818,0.9613665349283482,0.9635122611144316,0.9634699218171954,0.9566350037144509,0.9474040190535584,0.9350538553970256,0.9231220485029548,0.92178333140264,0.9217828318565671,0.9217828318565671,0.9218081164828882,0.9267306241270044,0.9355031470650004,0.9356931667407449,0.9356931667407449,0.9356931667407449,0.9356931667407449,0.9357006033159645,0.9388722940788914,0.9489107027886008,0.939598579640617,0.9366224304484949,0.9476426785167713,0.9496020872929676,0.949758633226419,0.9581757987310922,0.9570736885426929,0.9335657907112864,0.9084627003087382,0.8944562869209829,0.8962624913728456,0.916679425759626,0.944183651865607,0.9721035964141089,0.9850165448176802,0.9913014250797287,0.9913345062774561,0.9904259515191285,0.9653915150169734,0.9256483844813039,0.8784351846404035,0.8291988243098944,0.7897885374575395,0.7404843085365242,0.6898620916209519,0.6401174377401264,0.6004555832208234,0.5519013351983775,0.5012990411424649,0.45515436754489036,0.4136852188704081,0.3633237990064875,0.3129970873291017,0.27240041997586384,0.22535722463701258,0.17474329824334056,0.12430031992388502,0.08232843311309779,0.03701129082801846,0.0,0.003507086689959582,0.04469252260276235,0.09516030836422784,0.1400675773904494,0.18267125211224888,0.2331667047568864,0.28378941366871757,0.3344121225805503,0.3850348314923815,0.43556267832651563,0.47862029335323153,0.5230252967784748,0.5736153322555284,0.6242380411673594,0.6748607500791906,0.7254834589910217,0.7760625331794673,0.8211475329267106,0.8635814941024549,0.9121543924890685,0.9200968200853845,0.908235652982166,0.9077925704886924,0.9001993277299869,0.8843255334995028,0.878349804573308,0.8590103997260101,0.8343266953748989,0.8148475462671092,0.7900689831762793,0.7630607127631253,0.7297304044559896,0.6995107586953067,0.6668671637906889,0.6330910749045846,0.5966832129614983,0.5564497882120583,0.5228099235828048,0.49653196821740364,0.4690571400277779,0.46325132679521386,0.47696542443759804,0.5059094725183046,0.5439919657835661,0.5907666266549816,0.6304590570139941,0.6700320690596566,0.711612052794417,0.7497461746237426,0.7901688235002484,0.8286649899437286,0.8651917753571254,0.8989965191029663,0.9322482751103558,0.958695224214476,0.9773222024870369,0.9896142402784389,0.9904272886029033,0.9775381586663614,0.9632432486673626,0.9511613816976108,0.9479169245985943,0.9367790779174219,0.9356935706558316,0.9357058356753334,0.9402053922741258,0.9494193397605586,0.955052855592577,0.963362915350158,0.9635138365091005,0.9635138365091005,0.9635198403063523,0.9662573971101898,0.9766190501460699,0.9678595671755188,0.9659914755939849,0.9767615681085973,No
0.5007482250248714,0.4863380314562824,0.4734356679625322,0.4725569147366473,0.4783234704988084,0.4972867492780475,0.5030428300113159,0.5022676898701404,0.48443206727063925,0.4510808083965876,0.4131150094694007,0.3725170895300809,0.32788669373827695,0.28310203704103554,0.24093758740818316,0.19877298644013397,0.15760557842692746,0.1309412817215807,0.12776894118917115,0.1560430844080245,0.1875974836280654,0.21489243115822276,0.24803290392179456,0.282513707445724,0.3141494083023537,0.34330235467795234,0.36306353294525673,0.3917085540452332,0.42130635976164443,0.4418195624655952,0.45763066139282627,0.4770024039761256,0.5153416057040516,0.5655739798370636,0.6278546484348779,0.6874521246967986,0.7396798398287205,0.8017584604154,0.8536551808708381,0.9047051632828191,0.9058883484992255,0.860722708254237,0.8061772770072086,0.7497957600737584,0.6866175763177647,0.6233719851322816,0.5604848076972755,0.5076829560863021,0.44889237453347564,0.3856619932618437,0.32241640207636024,0.2591708108908777,0.1959321184633671,0.13601723434666368,0.08413264786225749,0.02562354371966702,0.03535728476649114,0.09700415166974574,0.1524508553448518,0.2084047825743771,0.27154101696646826,0.32906955803990634,0.38294823442524795,0.4392331992079006,0.4940618968446193,0.5487169051423932,0.5776545084596201,0.5794409435339083,0.5794397356907481,0.5776414978850908,0.5608407102598472,0.5397251797510432,0.5147820713088387,0.4817225418918958,0.46935562401865427,0.5026853962483728,0.5372849206121217,0.5589575585209965,0.564140749948109,0.5641690808833708,0.5641690808833708,0.5641102765405241,0.557152204905242,0.5520005087713402,0.5587991731929551,0.5492724305219623,0.547990768474838,0.5352062813439447,0.5194107523479339,0.5046436807014727,0.49207573407063787,0.4878218876452647,0.4893273239847775,0.5013425251155765,0.5076832131801194,0.5168989671276609,0.5046558411270401,0.4879461441237041,0.46287174426141764,0.42897722136725136,0.38693304745808055,0.34030917066720967,0.28965628717320957,0.24504420840106,0.19969465978746115,0.16145555879235785,0.12731364162411962,0.10735214056214248,0.12069131304258507,0.1610899919040052,0.19370973926098323,0.2315683858516273,0.26393185477969894,0.2954783391936049,0.3224583037590598,0.351163174873772,0.3794502037115328,0.40499565013675376,0.4250019920693098,0.4428893723867118,0.4650657889805543,0.49799766994067785,0.5424053990299456,0.5919497052900557,0.6515131012553175,0.7028547461796557,0.7639167148390547,0.8152635410516225,0.8745940370198868,0.9106286437836482,0.8948404653031896,0.8350271389638295,0.7717835144482161,0.7085381057053781,0.6460088814365079,0.594068234544114,0.534066814621803,0.4708279313922943,0.4075823402068113,0.3443367490213287,0.2810911578358457,0.21787682933604957,0.15980675382901133,0.10635046241006751,0.043462888738062144,0.0,0.0353086676659502,0.09053273005250118,0.13173184742930832,0.18858525868343312,0.25000078722985597,0.3011516424472025,0.3628596095300711,0.41689835566818756,0.4711936853933776,0.5190924015882654,0.5540391246643646,0.5683450078853349,0.5789821003590325,0.5729024927657802,0.5627301538104494,0.5411486671049679,0.5096377351141479,0.4780195138349499,0.4493539910187385,0.45243739034108676,0.48237674859671964,0.5076166151826977,0.5175714645929221,0.5069060424814515,0.5023041253280653,0.49082062763046874,0.48678732741213304,0.4747352127794855,0.47111500822546315,0.45890495324397396,0.449202011068361,0.43627928085957546,0.4139049210304355,0.398838467877189,0.4011801926974705,0.40781491541483517,0.4074659334909265,0.4256252724530434,0.43973318587961385,0.4327157970769231,0.41613514733015045,0.3909602389963176,0.36277539292785566,0.3253764272385715,0.283209147957336,0.241052727468277,0.1965696171000184,0.14890431587233932,0.12389093623504266,0.13390626898804125,0.17434401174305592,0.20988186708925616,0.2532921666146106,0.3074410759579598,0.34692044550252543,0.3785462486570861,0.4143632016256884,0.4450078268973421,0.4638475565156863,0.4865095635293981,0.5042238160321748,0.5248367602635047,0.5385668014084883,0.558494726655673,0.5856779317784375,0.6300966182025323,0.6840023146299745,0.7390337693276878,0.7977122362343883,0.8504882235601858,0.9109970141185211,0.961271882037138,1.0,0.9876106065477899,0.9384873667471689,0.8850680509720448,0.8220925074366678,0.7588469162511853,0.6956032075962906,0.6341800024207487,0.5829155160252562,0.5211361203962084,0.45789133319526343,0.3946457420097804,0.3314001508242974,0.26815455963881485,0.20490896845333184,0.14166337726784706,0.07847611707252788,0.0315062161902393,0.07083194773439683,0.13391146911965013,0.19148249256864203,0.2453830602783067,0.30840175402957826,0.3711836377527482,0.42365756293320933,0.48088174817763374,0.5312679241067286,0.5806899752643684,0.6197416716683009,0.6382210344755643,0.6403266862552917,0.6313491294289171,0.6223571773164571,0.6038004813058411,0.5767443378743402,0.5472837974722133,0.5126653171944024,No
0.5265464978544001,0.5534708313031316,0.5724775639638242,0.5718959435105397,0.5744733554485097,0.5861428312958277,0.5915719540759001,0.5886278920338279,0.5787008224602901,0.5974758377685585,0.6318664741088902,0.657386999991479,0.6685564086700453,0.6520901880885734,0.6107808753265886,0.5652060821843334,0.5173853134577684,0.4707442425773609,0.4200313125528934,0.37136400767583466,0.32507015296832054,0.2744207266398002,0.22423595351357417,0.17864774788393967,0.1329254221118774,0.12816739692509016,0.16544838071194068,0.2043810761666165,0.24474684157114546,0.2861000958345542,0.32352136512589424,0.37197049914819025,0.42285448303428264,0.47375358635441245,0.5246526896745425,0.5755517929946723,0.6264412973109361,0.6755900757997428,0.7215250416499059,0.7720442480410084,0.8229431654537602,0.8738422687738905,0.9247383710983847,0.9743063923460202,1.0,0.9639054034718506,0.917365979403588,0.8695460021258297,0.8238404321221402,0.7785490908091119,0.7353043464439295,0.6940701500784581,0.6600763705676229,0.6379420637879636,0.6160384063942561,0.5859229202076406,0.556184078644969,0.5241366913928214,0.48968852858170675,0.4539999675509323,0.4228365554236386,0.42087746707872276,0.44540096469993573,0.4804908034584603,0.5204622620992854,0.5614406852652354,0.5972157443992856,0.6296514643726165,0.6517507001156231,0.6646421249939491,0.6674906835838401,0.6606356787672216,0.630022063794001,0.609622418307457,0.5955273286734564,0.5850447950207998,0.5925202931556275,0.6072011543754643,0.615707246193858,0.5890998323242456,0.5535603600534886,0.509514696409656,0.4622462404982619,0.41491211599554667,0.3642011710930225,0.3171004750608294,0.26934928101859645,0.21850602117923545,0.16796831485278918,0.12198870995023914,0.07340628340676814,0.037505467256291,0.0535176980870129,0.09707921551136467,0.14729823513801021,0.19814160794576707,0.2459126256629074,0.29299403567609894,0.3437895376470199,0.39468864096714984,0.4455877442872802,0.49648684760741,0.5473852464548628,0.5976793239740905,0.6433266734622725,0.6929834226822242,0.7438782200664982,0.794777323386628,0.8456764267067576,0.8965753949512387,0.9462943564982369,0.9590261043830941,0.9145137999314461,0.868883273878289,0.8204628318796314,0.7750454091147287,0.7296188889858257,0.6867375748205042,0.6478889682451707,0.6152551177987444,0.5897250516066255,0.568648592874426,0.5473124675929788,0.5171297093928457,0.4797123589156369,0.44512582809295775,0.4127731197192175,0.3943253636813846,0.41004179199271973,0.44417561612924783,0.4821220171280123,0.5202210299805432,0.5563046202346189,0.5905830802126402,0.6228038183307405,0.6409828248449119,0.6390518520672366,0.6265703330451784,0.6192649890530726,0.6226112596703215,0.6168991805980599,0.6015250676872486,0.6085355585736345,0.6256163407764928,0.6354697192147081,0.6112309712494883,0.5670873984140039,0.5200282120394168,0.4736863049596405,0.4237068378244364,0.37808124278728183,0.32832427462184854,0.2774284735481962,0.2265293702280673,0.1756302669079367,0.1247313937588459,0.07423890798697175,0.028992492621290222,0.0,0.02552790595068477,0.07405647099248647,0.11973478820582395,0.17003122513127644,0.2209296330811895,0.2718287364013199,0.3227275666068655,0.37320096491642896,0.4190749057956691,0.46832966017095057,0.5192201088604076,0.5701192121805381,0.6210183155006668,0.6719174188207973,0.7228164679179427,0.7734481960643218,0.8196612355241291,0.8684260619657587,0.9193064213444477,0.9674577924877283,0.967647648892993,0.9207747176673455,0.8765380169295738,0.8371615757861046,0.793804547328018,0.7468005276478245,0.7029168167857973,0.6593977375588933,0.6263190656281135,0.6002279426196795,0.5790943462981444,0.5550188621084302,0.5276944891312163,0.49556372135276017,0.4608221614886783,0.4253284714050962,0.39391871277061163,0.38873738539308733,0.4158403277616972,0.4549055211282216,0.4963776033493348,0.5346641387230859,0.5715288744237448,0.6026643589987548,0.6295272371239771,0.6524566714337832,0.653649576395531,0.653363970761458,0.6540968361112676,0.6608981955921043,0.6515492629110671,0.6377617755859901,0.6463837476606427,0.6607822056876465,0.6689610891100866,0.6409881920530687,0.5960443029830544,0.5502422996523428,0.49984246964516466,0.45266451292853693,0.40499294633712035,0.3541562737921994,0.30433642961922625,0.25872146398702245,0.20856394444086201,0.15900876417336407,0.11332770155528593,0.06581236042637884,0.05484291537094843,0.0933886153978456,0.14188744736194814,0.1927637910140566,0.24366289433418709,0.2944720503023275,0.34176731378228475,0.38932456554778916,0.4401551634731442,0.4910542667932747,0.5419533701134049,0.5928524734335341,0.6437515767536646,0.6946310632509458,0.7433275894871005,0.7895898144210067,0.8402438458926231,0.8911405140177804,0.9395567937893352,0.9442134437105454,0.8983845660921121,0.8525661890849772,0.8063167918165677,0.7616946167267657,0.7180935877106156,0.6801690862599643,0.6522873908443303,0.6294310617933339,No
0.20547105108898944,0.22098549582305016,0.23273276096645823,0.2391806953444573,0.24038705186293208,0.24410625998862945,0.24929231739298618,0.25289513318690227,0.24789608919394834,0.24749771805884868,0.24325911084044693,0.2393367286969088,0.23691768479703534,0.23390221799258248,0.23604433997659457,0.2453322982507089,0.2439130218852712,0.23965880690909724,0.2334158811654301,0.22609418380292756,0.21629903984852206,0.20301549244132366,0.18527472797957434,0.16233945657060844,0.14097677988567003,0.11978203136361443,0.09903377591381801,0.08205254950226548,0.06873609673884862,0.07918570919900536,0.09861292801161015,0.11533321396208773,0.13156978021071852,0.14209646989981328,0.15411190912541128,0.16071180902594673,0.16944018033359787,0.1830461280894673,0.20164810119643817,0.23179211318045967,0.2585508495158788,0.27883117151505155,0.3091575972835934,0.33695075333137625,0.36978501445162326,0.40110452451371237,0.42950227696428134,0.46266585595080856,0.4959636132326055,0.5253007608555107,0.5555755973472181,0.5889193296839776,0.622298329729406,0.6556605722399975,0.6865244329506026,0.7153194777147311,0.7485518341674477,0.7819308342128763,0.8150317545156156,0.8431950260074879,0.8748124964024899,0.9079798709029248,0.9362184825211757,0.9565514989250365,0.9460433824187935,0.9175244039902812,0.8842323428845311,0.8508533428391032,0.8174743427936741,0.7840972607018932,0.7519750430410017,0.7241445445970667,0.6912206508943037,0.657841838310204,0.6244628382647757,0.5910838382193466,0.5577048381739185,0.5243258381284894,0.4909468380830613,0.4575678380376327,0.4241888379922043,0.3908098379467755,0.3574308379013471,0.3240518378559183,0.29067283781049014,0.25729383776506154,0.22391483771963316,0.19053583767420434,0.15715683762877553,0.12377783758334737,0.09040608686330165,0.058799714685345394,0.030629874442799743,0.0,0.005985254659868211,0.03853858903339957,0.06785507101514221,0.09804626267625971,0.12706464833780573,0.155198067957786,0.17703284594373714,0.18791021825550058,0.1798673610825714,0.16443793293736686,0.14670264076004336,0.1437087857675141,0.1542530390176906,0.1658698604717257,0.17576636159634185,0.17883009905890956,0.17067740069409232,0.17412616081898746,0.17187750826041315,0.17437863997597725,0.17848604239793953,0.1770283688063179,0.17545576948856767,0.18102765644458607,0.18031785473851025,0.17524033354270152,0.1779036616206371,0.17755625992476065,0.17382993516525502,0.17304068238268222,0.18338123331419065,0.19232990668286876,0.19786966414471951,0.20310571207534345,0.2019002388432678,0.19696288364045245,0.18736051470707982,0.17472237797448886,0.15892444106294135,0.13898635035065365,0.11931380816193649,0.10090678620037341,0.08496290851981536,0.0881597832117953,0.10748727713360862,0.12726876095856055,0.14338348552659474,0.1599327193210216,0.16866984554494113,0.18117396065780222,0.19296201742013297,0.20337265192982956,0.21695196414601847,0.23619686608963564,0.26548436972747114,0.29395405138490527,0.32180993757917187,0.35367098870892777,0.3852652946577122,0.4134244161814262,0.4465459996368306,0.479923305625781,0.5121980530479917,0.5399821206027617,0.572799642777418,0.6061784372159991,0.6393488799581737,0.6677279675190317,0.6990624333793793,0.7324319416540408,0.765713000553343,0.7948598669731926,0.8253338607330873,0.8586854460920823,0.8920590076278554,0.9234879101275963,0.9517903516193182,0.9837281882644484,1.0000000000000002,0.9858954402823212,0.9541200605180642,0.9207639581391949,0.8900961897399817,0.8611344617879697,0.8278696798385388,0.7944906797931108,0.761111679747682,0.7277326797022534,0.6943536796568246,0.6609746796113969,0.6275967450525939,0.5950376882580262,0.5673466397019657,0.5347206903595727,0.5013421751279266,0.46796317508249796,0.43458417503706914,0.4012051749916401,0.36782617494621217,0.3344471749007838,0.301068174855355,0.26768917480992616,0.234310174764498,0.2009311747190694,0.1675521746736408,0.134173174628212,0.10079417458278317,0.06749961122007764,0.04630930974796077,0.06815178782706144,0.09670327343176188,0.1294062931065143,0.15716228600789184,0.18788723553847175,0.21464501371751776,0.23461518841254758,0.23951875098492748,0.23242087907379072,0.22132170000746076,0.21771375922301028,0.20718346459243508,0.20945383708358833,0.22275884502752885,0.2208956320890596,0.21855928236163402,0.2184146644685958,0.2144095044045382,0.2182671175736386,0.22415324046421348,0.21537706079402952,0.21717550616249204,0.22092164790117685,0.2216588810040765,0.2158409852792642,0.21757494005837863,0.21750304138585408,0.21179893191138155,0.20720526069892098,0.19922386102263112,0.19534866703845166,0.18802126924241813,0.18779179287881886,0.1903509773313088,0.19608397465910454,0.20015460396378293,0.1989161197619711,0.1951862335018706,0.1893161617706074,0.17936717642069966,0.1636258790768521,0.1467156664824638,0.12678530690164802,0.10682195997052757,0.08882445298982855,0.07545276192431927,0.08001614747007246,0.09890309418709098,0.11775557031440376,0.1349234021272181,0.1524452682462798,0.16229854613524153,No
0.7700650048828579,0.7780880764275702,0.7821275361399995,0.7871160618180069,0.792536166528627,0.7939957359239802,0.7977814370857208,0.804142177143536,0.8061546046468797,0.8091511838477334,0.8122224188992679,0.8142885118431262,0.8092755718892091,0.8030110774412458,0.8006387541526618,0.8033380459440229,0.8183998840817597,0.8335043398791431,0.8215984783448389,0.7902790756707847,0.7595053243317742,0.7296276289213204,0.6963921847947194,0.6630658192187535,0.6297414545042477,0.5974479663758914,0.568743172989584,0.5358737727132346,0.502547820994947,0.46923721694915116,0.4379757232975238,0.40853581749182893,0.3753589032652341,0.343390768167852,0.31917661794938706,0.2876009566019196,0.25427838535528774,0.22095201977932194,0.1876264201126393,0.15492328713703818,0.1262863700831302,0.09375890390481906,0.06048296920290208,0.032221268962399185,0.031111424933214116,0.058589204384553506,0.09092433911266007,0.11958544151991268,0.15238165333323017,0.1857073378352131,0.21866031298031624,0.24746634856135225,0.27957666253231256,0.312899222645386,0.3462255525941342,0.37937404859762663,0.4086241892863664,0.4401008033933988,0.4734172208691925,0.5067435864451586,0.5400699520211245,0.5733963175970902,0.6066995007073845,0.6376879526239025,0.6673638970222853,0.700587950244931,0.7339143158208967,0.7672406813968624,0.8005670469728283,0.8338934125487945,0.8672197781247601,0.9005461286044476,0.9337369358418242,0.9632575409325688,0.9935921999894652,1.0,0.9693531096467236,0.936030331508229,0.9027221497249323,0.8715517575840745,0.842935918188469,0.8156954858394618,0.7919537929810552,0.7726977982549079,0.7563869287402412,0.7399042931807398,0.721210889871829,0.7022201572323044,0.6809358963742211,0.6587221939382566,0.6365034298538068,0.6137631249512832,0.5880453452831798,0.5610018748350927,0.5359561890126845,0.5114178758260521,0.48893995707670196,0.46889573024853354,0.4645759604339111,0.4766724009333661,0.4985500434677009,0.522582672376736,0.548977525373783,0.5756194135751567,0.602266459558366,0.6291258865878611,0.6569058386078812,0.684775176290376,0.7143496077821934,0.7416379201321823,0.7653672194866763,0.7845745036063569,0.7976705193051055,0.7954523979324606,0.7933442250378302,0.7891415246062334,0.7930014250469608,0.7981144148188408,0.8062992776953462,0.811885136359048,0.8123264997402246,0.8158130209589212,0.818317603232305,0.8177678139884654,0.8130904581430796,0.8122331026755465,0.8122292740629562,0.8111963966153468,0.8065754461773831,0.8067516400664065,0.8114046901077618,0.8091709643981737,0.8011856884503721,0.7975045551989861,0.7979587336662599,0.8127018368499468,0.830275481986152,0.8286122617320506,0.8031551164813413,0.7711920492763182,0.7378703232453818,0.7045439576694157,0.6713774161075281,0.6420010634221442,0.6106650960469495,0.5773758377917431,0.5464105025984285,0.5167024086828254,0.4834870561381465,0.45016069237373396,0.4168343267977686,0.38350796122180236,0.350181595645837,0.31685839103225183,0.284682657719364,0.25591693106056906,0.22298965308732593,0.18966359742203037,0.1563372318460643,0.12301086627009816,0.08968450069413275,0.05636529198371948,0.02469010110141623,0.0,0.002707876357901373,0.029115953181016507,0.06198803381033352,0.09396357817953693,0.12283617795751878,0.15585785347267284,0.1891840813705774,0.2224150602986284,0.2522550664880047,0.2830762523801193,0.3163757140184185,0.349702079594384,0.3830280313126719,0.41589743158902165,0.4446022249753287,0.4768957131036852,0.5102200778181907,0.5435464433941566,0.5768728089701229,0.6101991745460882,0.6435255401220543,0.6768404320697994,0.7083528302095017,0.7375844979436044,0.7707171727698949,0.8040435383458611,0.8373699039218272,0.8706962694977931,0.9039199226712942,0.9245560738073777,0.9007317243644635,0.868269797395264,0.8397029598847132,0.8104994959080773,0.7847101831435184,0.7632614736948293,0.7479945389864673,0.7320187581935647,0.7127233114810207,0.692741477205369,0.6727177875183883,0.6513237480697807,0.6290191741378566,0.6052209383758662,0.580092073584001,0.5525337126879795,0.5283881899383576,0.50314318581076,0.4776610759687278,0.45473259598050314,0.43150629851780636,0.41532700684417817,0.412247351486326,0.42713972533666006,0.44870276279527604,0.4744720022668673,0.5011125392363238,0.5277546182546589,0.5544099867715266,0.5814482446146074,0.6131185523849934,0.6429105820233323,0.6697490952112015,0.6968230294602866,0.7197884061491406,0.7433862764251717,0.7609451732589463,0.7661291130607721,0.7632954558899172,0.7598774403505375,0.7617911143663274,0.7668229291686866,0.7769837885610371,0.7848906113820628,0.7929479738119598,0.7977003837028236,0.7999820406522029,0.8000036156123713,0.8000038908740383,0.8003875601736454,0.8050104699882861,0.8096113348009548,0.8122024331767501,0.8122312749244165,0.8121828024679163,0.8069950276613065,0.7949763017517586,0.7901932140145482,0.7936489543745389,0.811538085844856,0.8269015320660329,No
0.7263727334024097,0.733162855154396,0.7081213324438809,0.6865672713599407,0.6770917677572388,0.6991829172686959,0.7165657773170928,0.7291845247058146,0.7620815076337852,0.7714473592731277,0.752051053442955,0.7002989211257178,0.6433932004094765,0.5852173239238605,0.5375603295498566,0.4818208119332641,0.42410168460803677,0.365898920078894,0.3015665673659744,0.2408588109414178,0.18531320829054954,0.12135568135788799,0.062447338349352455,0.01083105418604191,0.0025603441441939268,0.04970625453462896,0.11354151431805715,0.16998714331821363,0.2295967161758885,0.29400665584987484,0.3584526026262569,0.4228985494026385,0.48734449617902054,0.5517904429554024,0.6162363897317846,0.6806823365081665,0.7451282832845483,0.809570871812223,0.8721818793377574,0.9264690232882764,0.9884073928041814,0.9999999999999998,0.9493369144385857,0.895255280190064,0.8412249947641579,0.7940859958252171,0.7614473263912458,0.7398062700122143,0.7179919934070924,0.7118715227729442,0.6909601193084949,0.6624919601375485,0.6394768430306377,0.6051617600124797,0.5674707727847486,0.5419736578852967,0.5225142313961442,0.5308808294723157,0.5501456132010516,0.585207136546128,0.618411863088921,0.6583843465055181,0.6907933855915804,0.7078245241275749,0.7163279132430553,0.7037738744554314,0.7186202747374055,0.7221105804060175,0.7049042227651319,0.7005394961416245,0.6908349876644768,0.7089119457206794,0.7198626811365305,0.715101876323452,0.6888513732831878,0.6707950848892847,0.6744858687933466,0.6978693070945614,0.7143177709574215,0.7391517406190158,0.7623223192628188,0.7499954357767085,0.7131652272953894,0.6527707197439649,0.5924217205380395,0.5366011347156301,0.4725160041905758,0.4088201481531428,0.35406776082260216,0.29225491151745797,0.228403690808064,0.1734266884380673,0.11199913199556177,0.047719076626021595,0.0,0.02080541420779114,0.073080719298932,0.13612588259864222,0.20042058632757453,0.25775077156427906,0.31644608504098426,0.380823966316147,0.4452699130925293,0.509711788997451,0.5721807823930221,0.6265509300950127,0.6899700223536469,0.7544154778438836,0.8188614246202663,0.8832985157724182,0.9444808277252263,0.9684015759930402,0.922875908933366,0.8688953605193837,0.8196141555820604,0.7725968694977612,0.7390298581053079,0.726245278134898,0.7191578250229937,0.6961514802010524,0.6766788766064089,0.6559331354139777,0.6255401233179876,0.5916158685538726,0.5578556510813144,0.5365699116613702,0.535561552404302,0.5585551579495742,0.583567339450157,0.621514223685917,0.659928186662772,0.6904271679332601,0.7076090428260604,0.7035148744450772,0.713380396985859,0.7224863790603229,0.7041427704079772,0.6996109160271871,0.6997428858363028,0.7069034383141901,0.7099133630036432,0.6846419054342292,0.6560700988276642,0.6619509533114563,0.6821924763634308,0.7018226917970078,0.7289042426423944,0.7402374369578759,0.7423161838336994,0.7123854632796995,0.6526474408166478,0.5882208746522422,0.5240711419676001,0.46801978873784655,0.40793618364785145,0.34352125667726896,0.2792858598709871,0.22260472340988957,0.1632245580863454,0.099306424784948,0.04465281952113753,0.0021613602160495127,0.014378242559500043,0.07165034059547826,0.12855448054596108,0.1876430238639446,0.2520346936977409,0.31648064047412383,0.38080914567156365,0.4386667139971039,0.4968213364420533,0.5611802584490955,0.6256262052254782,0.6900721520018596,0.7545180987782409,0.8189625793913369,0.8819470473072972,0.9361475909971324,0.9818132101259416,0.9463389014447936,0.8908818250755666,0.8306680406812881,0.7852336802150035,0.7464725748323635,0.7233302359506653,0.710549404580872,0.7054455400781736,0.6844019049802996,0.6618464860426487,0.6452547021309918,0.6131292952206377,0.5760611052715301,0.5524426550394239,0.5342589262088338,0.5356391479459324,0.5639126300208519,0.5897620649887532,0.6254268987545488,0.6553410794420012,0.6852741765991543,0.7027329085656453,0.7175538301758706,0.7115863747229099,0.7051326836623228,0.7054366021905334,0.690735004400975,0.6925817890972088,0.7106225068959404,0.7070555831164878,0.6792384514454801,0.6641385315344899,0.6760936940403746,0.7038880905274818,0.725716860768898,0.7498864482515788,0.7591451886857674,0.7438289650673207,0.6917126727373357,0.6273707611095507,0.5629425768592891,0.5022857450132656,0.4466988948866679,0.3826841776916996,0.3215436383084189,0.2663486392012684,0.2024186467668383,0.13927706931443984,0.08505317279022528,0.026380582201882108,0.014305315748899483,0.059333035786483634,0.11809908791396961,0.17481324005727994,0.23905314550154433,0.3034981985957885,0.36686948627977234,0.4213252299839192,0.4837559420025308,0.5481987102528973,0.6126446570292801,0.6770905932486755,0.7413335525722202,0.7978215865489624,0.857382005676478,0.9217884459824777,0.9828581833803443,0.9801901045737911,0.9280367550093487,0.8678483228951459,0.8199616856670382,0.7798917957607354,0.7469200287991449,0.7271931842865167,0.7168630695201996,0.7012255087743442,No
0.17736938007539016,0.1704262433621384,0.1939602673181422,0.22780419624761783,0.2606874258875731,0.27301482868178484,0.2943436954974741,0.32891148911505197,0.3658371832306968,0.397565385147328,0.4104920680856403,0.41785893326873014,0.4455643619589287,0.47953010007686303,0.5039954449925463,0.5235792053188504,0.5363492648617381,0.5336998994736524,0.5296709765528991,0.5256492490335494,0.5266477357582993,0.5324170493481437,0.5331903676466376,0.5331911115585242,0.5326822165748653,0.5225640393650739,0.5080618902186385,0.5065089687060573,0.5193903902808303,0.5321795438483101,0.5333195877753993,0.5082606051888221,0.4668235230225368,0.42584204920890345,0.37990643807221613,0.333682221181262,0.2897366408095121,0.24856486224933527,0.20258748049003472,0.1565185512723143,0.11493077565533694,0.07176735050829908,0.04100591906822737,0.059911082139642136,0.10064092080114428,0.14365367351948555,0.18985125218732257,0.23608751250686377,0.28095421372904483,0.32147662771796837,0.3671705812572472,0.41341041531886646,0.4596506014732862,0.5058907876277057,0.55212916145182,0.5974139570233934,0.6378616277307554,0.6832111584879947,0.7294499507592498,0.7756901369136693,0.8219303230680892,0.8681705092225094,0.9144100497187224,0.9600065700868341,0.9963187221890817,0.985667025573467,0.9416120125012011,0.9011936849930526,0.8557333613274578,0.8100711326236751,0.7695614496797605,0.7246514094091667,0.6784282892852442,0.6343637274182496,0.5936276732522334,0.553776253812204,0.519537602435852,0.4896704701596879,0.46596084552492445,0.44654106173668273,0.4237860099418618,0.4032463031727076,0.37743994969858274,0.34692584827190753,0.3133169710836312,0.27634135529054915,0.2422068449368664,0.21031017628038562,0.17772650178032934,0.1526716883350815,0.1531086470494546,0.18172851631194364,0.21736975567245054,0.25334674943530233,0.29211031981353,0.33034117176764255,0.36734277680489535,0.40401865186635666,0.4387782378674725,0.4702729903553704,0.4911636566211568,0.5010080572476043,0.4974112099757151,0.4899423116523163,0.48736258884045647,0.4874727605406044,0.4926186577080014,0.5012345238200078,0.49727565731208845,0.49499734800962036,0.49485654112016375,0.48816723488236047,0.47451182177778195,0.4742701686712374,0.49007497606360606,0.5033975067384886,0.5060344191140682,0.47695604743174136,0.43603787472785704,0.3930403462821448,0.35231748872075364,0.30782093838256186,0.264285476449879,0.22278148124640573,0.1767257001835305,0.13100751508047992,0.09044407930118492,0.04573889468325465,0.005859103089092765,0.0,0.03557112785282468,0.07785315682657379,0.12401217961359601,0.17025046322714865,0.21551741330819962,0.25596803697920634,0.30133250154900537,0.34757134274513946,0.39381152889955895,0.4400511291695981,0.485683053129063,0.5262261703644158,0.571134272847934,0.6173706920311026,0.6636108781855232,0.7098510643399425,0.7560912504943631,0.8023314347838846,0.8483765871440767,0.8802672716871816,0.8540727450685068,0.8082427616797856,0.766369449296155,0.7232534184419357,0.6793636940926169,0.6381968815003447,0.5946537381600778,0.5560263655106439,0.5205537620999414,0.4879372398863715,0.46202272614039885,0.4399156162783904,0.4198881863150581,0.39889237747042383,0.3747632672375478,0.34369512420306014,0.31167941474757277,0.2786707083401405,0.24438979729887889,0.21032296360748926,0.17730609318500778,0.14687550049755715,0.1312249925127612,0.1492003590990516,0.18266235736270842,0.2206650757393458,0.2577601202320621,0.29530277650450154,0.33326650312136197,0.37032122824308633,0.40918336639294983,0.442669386812087,0.4689230573085459,0.4815548018288933,0.4865425188272574,0.4810431771629571,0.4755113292605846,0.47248134899448657,0.47936226003187254,0.486828784884475,0.4873471070218667,0.48898011444189105,0.49416833593486453,0.48684550073763244,0.4731779732315291,0.47099834560772313,0.484846541680499,0.49749130900056904,0.4982693805722922,0.467866746039846,0.4231683048654953,0.38273935083512756,0.3391599409565953,0.2983871261155129,0.2525439117652757,0.20685011310963652,0.16632769912071332,0.12146369535740431,0.07643487801257853,0.038412773741684614,0.028643512576548957,0.06331630076259032,0.10762297732754156,0.1483613325166201,0.19416681816180437,0.24040678947993843,0.2866469756343579,0.33287616698314704,0.37713815438766596,0.41806600560401197,0.4639660510781132,0.5102061387659018,0.5564463249203213,0.6026865110747408,0.6489266972291621,0.6951667886467474,0.741041254575725,0.7818492948352616,0.8262536390136235,0.8724858603607057,0.9187260465151252,0.9649089595603932,1.0,0.9780744499195557,0.9361590209817079,0.8914904072261476,0.8564575599314908,0.8128103335689425,0.7666525192848226,0.7241777666412879,0.6818769831243638,0.6406068575823154,0.5979072445277098,0.5580351523686757,0.5194509826709661,0.4859651865548438,0.45970047583011286,0.4402036701530261,0.42081144728377873,0.4008424581462249,0.3768084131853773,0.34960873210121846,0.3150409817833202,0.2829737926874385,0.2543338119174625,No
0.36523103935360113,0.3818786239351686,0.4234379768204066,0.4633410355520575,0.4965134415793011,0.47614792646750304,0.437130353927909,0.39246356587605846,0.3665896441572789,0.3635807060040961,0.35684868614638643,0.36888104961401824,0.3974094125942875,0.4359178426782149,0.47503128751577073,0.5150279081957714,0.5573011083813815,0.6018218566668871,0.6434127253116462,0.6763740280037465,0.7059213460335461,0.7292925209424388,0.7302273114952202,0.715686417928828,0.7093597272481709,0.6922860295784996,0.6898890267450934,0.691874790101908,0.7045540520317746,0.7125668398938696,0.7012552699236456,0.6910985637643494,0.702582544434396,0.7203935709201768,0.7193327915260521,0.7436530679315176,0.7614307829390172,0.7695472384599411,0.7582837302762717,0.71589658453842,0.6609257823627788,0.6022787378686232,0.5436103010689382,0.4854187462643422,0.43539205878191156,0.37964937423916734,0.3209911034253994,0.26233706912951105,0.20705414834766755,0.1566401273623319,0.09837312455959513,0.040916783972929416,0.0,0.007468852183124541,0.05301859009641552,0.10882990035333018,0.16748842291495336,0.22615351460342614,0.2830632005831597,0.3323968181391792,0.3901080696649386,0.44877605735817716,0.5074446211134787,0.5661131848687799,0.6247817486240805,0.6834503123793823,0.7421188634391218,0.8006169710871653,0.8520727578021996,0.905840207520052,0.9376225858589209,0.899386785619172,0.8479978925977669,0.8027746348862028,0.7589784734593648,0.7305386256727553,0.7040941149694111,0.6845073046881545,0.6665448679762629,0.6494263542954593,0.6232378370932812,0.5960266808208063,0.5671721451503078,0.5285722809058437,0.4884674244755496,0.45544851334274083,0.42079781052912835,0.3941407202735572,0.3831472292948821,0.39523864290766686,0.42773056124245246,0.46130837759777954,0.5030512593564349,0.5431575366458103,0.5851068725410211,0.6269701116287705,0.6698086581962994,0.7000914202602753,0.7258229196667927,0.7367424400440801,0.7263238054193517,0.7115460721016806,0.6948417586689286,0.6899151240675054,0.6905030735821394,0.7025812055942049,0.7208725807357201,0.7328961297456458,0.7362831783336523,0.7218174281454186,0.716347968617183,0.7403389997133185,0.7569243889941724,0.7611301479599495,0.7887919311516043,0.8086852378266542,0.8064452993008342,0.7794324593224038,0.7353417741441504,0.6795354976463217,0.6273755395354006,0.574082499354579,0.5154816645802311,0.4575085066315119,0.40779685093381324,0.3515246863030803,0.2928623399810768,0.23419708502085013,0.17766621509553548,0.12812364803314913,0.07236435044665734,0.044381737656868925,0.0715877405407106,0.12234450412498155,0.17481097822096348,0.23339009727022297,0.29205866102552425,0.3507272247808253,0.40939573775388016,0.46774054993685765,0.51848435765668,0.5733641911274625,0.6320148592240482,0.6906834229793495,0.7493519867346505,0.808020550489952,0.8666891142452526,0.9251945068015448,0.9624577071304394,0.9204899355926821,0.8660991376906846,0.8190284846553675,0.775162739063721,0.7399037625486728,0.7170730215130761,0.6927424901310049,0.6661822229722429,0.6422313419368959,0.6164981842158408,0.5885661369882065,0.5631069871129133,0.5287969420987229,0.4935710259302435,0.4569013420984085,0.4222819317580766,0.3866576734039249,0.35250378130728177,0.326371637457735,0.3189922005546175,0.3412010889907544,0.3762387721213538,0.4152918058601205,0.4558768457020599,0.5065535142017532,0.5473351304088867,0.5916397386519945,0.6296400024567137,0.6646652291002546,0.6940090728435437,0.7118649292640884,0.7214411702324697,0.7197047214307488,0.7104036119424875,0.7022891310536712,0.7040213983151451,0.715032399647294,0.7251896883639286,0.7314966963372413,0.7450429804389069,0.7408735635909818,0.7281554075696339,0.7295459265695114,0.7528883622697282,0.7526925175368231,0.7760870817286076,0.7971503267134297,0.7980599387686935,0.7834435958970507,0.7373754176369112,0.6870683903734374,0.6293209142448735,0.5793573029449774,0.5235101525469115,0.4648496364692205,0.4064599939167184,0.35562943877684705,0.3008731197476078,0.2422305657812973,0.18356867702037194,0.1273452191793869,0.07776003123020425,0.029738713902982994,0.0329536688549914,0.08393656340304023,0.1386361207777862,0.18946667591765842,0.24785631847015943,0.30652488222546204,0.36519344598076176,0.42386200973606414,0.4825252711802226,0.5390099429272883,0.5885955859110943,0.6464813851174622,0.7051496441792875,0.7638182079345868,0.8224867716898896,0.8811553354451889,0.9398229692486948,0.9962755200798783,0.9999999999999998,0.9530721185434066,0.899537544150707,0.850860379212304,0.8041758189363055,0.7648247523768716,0.736554142551592,0.7100158395684673,0.6863106519911988,0.6684970485222075,0.6451880821679352,0.6169436240292772,0.5876115923830287,0.5580979166440558,0.5243825000369378,0.4891442491424758,0.4494120685762768,0.4109792869175093,0.3808844611484834,0.3551062698671259,0.3572504753117538,0.3825131140995295,0.42091493926698975,0.46003877752448474,0.4985144161531345,No
0.31004979660284215,0.3290007321630857,0.3769117505795134,0.4229138346650516,0.47206375982854354,0.49884363269045506,0.5338234130113597,0.5317091624316359,0.4891743965240485,0.47831515219287946,0.5258620520490278,0.5766364238940889,0.6274958819667154,0.6793131875098215,0.7111515499891756,0.7377496692326067,0.7423320888425753,0.7368349917089079,0.7257730794033868,0.7079019644974736,0.7086651795127432,0.7143846546414503,0.7155621273382828,0.7326717396423557,0.7330385856537771,0.7127712944275437,0.6925427967170816,0.7011135665792905,0.7211665127985842,0.7537931241154587,0.7739582686232449,0.7922842049300765,0.785637985039056,0.7498353387283698,0.6959723987842987,0.6379127079998956,0.5755877592158463,0.5079923676017928,0.4427221721981396,0.385701410742064,0.31904662159058295,0.2514076208602771,0.183767935286415,0.11613186004959863,0.05101012197247745,0.004476545831000989,0.0,0.04937392662289097,0.10604468435008552,0.1726960138116922,0.24033532224932053,0.30797493706193535,0.3751806478577868,0.4333639573108674,0.49693413602479364,0.5645563434562844,0.6321960290301463,0.6998288813769342,0.7647222034130636,0.8217435853293096,0.8632941566059209,0.82543870452277,0.7750488899097081,0.732012636270583,0.6988213902486664,0.6757272938021028,0.6460380152945655,0.6067972694449986,0.5671810303518416,0.5207908491030668,0.47257019440841086,0.4273540536662872,0.379776232729661,0.33500853117022356,0.2848297144412577,0.23947363415445078,0.20247907367304396,0.1851173447899419,0.20519454590235053,0.24364743111472698,0.29733241738634164,0.3530901914700664,0.4079474491177537,0.461492226537239,0.524816668241503,0.5748164616335085,0.6248114195844949,0.6694577261368835,0.7002649206021374,0.724142098177937,0.728781466215112,0.7346613393395813,0.7238275118512276,0.7223869080881498,0.7165778787803996,0.7223917993335767,0.7294765520222097,0.7386915516416876,0.7384297730146385,0.7539866462143872,0.7419223350734052,0.7308508235925975,0.7508570420182208,0.7798479496432478,0.8091369334974337,0.8249183958762716,0.8367812449199485,0.8034023700944339,0.7491964584387407,0.6926584850091775,0.63011711017535,0.5677078419369237,0.5085824669515251,0.441171446824558,0.37360233396696074,0.3121368408915717,0.2520784327193264,0.18462086384255882,0.12187539257982505,0.0689518957713744,0.049244147010256034,0.08765717655185079,0.14849260765391348,0.21603820597200585,0.27904588436627864,0.3202300523776427,0.37724465171088584,0.44467952631687124,0.5123192118907323,0.5799588974645946,0.6475892803647789,0.7119969497011311,0.7695179377353529,0.8365404158815162,0.9041798818448616,0.9712265203825061,1.0,0.9423835924607773,0.879730236426385,0.8384824353022791,0.7981126813821606,0.7663358852445938,0.7436578544987165,0.7260742934337361,0.6929410362390795,0.655048221801485,0.6138321983712505,0.5654864117380782,0.5222398029124724,0.4774564781056485,0.4290269326695211,0.3775963272683738,0.33843911094171863,0.3038433268141678,0.29745623828846335,0.32738377908303895,0.37941074392661855,0.4318905483671309,0.4849505850622693,0.5368367434813135,0.5875452174122238,0.6371709050047114,0.6854194985930433,0.7299759287731304,0.7547367792972941,0.7661896211497394,0.7631672407309593,0.7437174385206626,0.7327569342734925,0.7391621236109334,0.7451258886854157,0.7559308116064525,0.7659675274303992,0.7727825430987796,0.7664088731634404,0.7457846494445777,0.7312901222650572,0.7446898308799019,0.7817764482308474,0.7987051764390367,0.8095466684387209,0.8039339030094301,0.756773158384692,0.7000455187551191,0.6421865659733026,0.5764317016259204,0.5197279980068235,0.45372139750488083,0.3860865904568729,0.32039353381366387,0.2635116942288469,0.19714147357613543,0.12992855306094397,0.07249740807627214,0.02917649821021695,0.0353051846540835,0.0840932600866604,0.1476084524772392,0.21522893502051588,0.28129925242065745,0.33803434354992135,0.40417408460111126,0.47181213924965926,0.539451824823522,0.6070915103973826,0.6747311959712454,0.7423708815451078,0.8100105671189701,0.8776502526928311,0.9451154783536708,0.9888294291068251,0.9420125719002019,0.8854289364886974,0.8268854251059357,0.7773106646333594,0.7421745813294933,0.7189891946307996,0.6889637186387678,0.6617366574137469,0.6242089899989809,0.5882715956797133,0.5429633156962672,0.49525638489544876,0.45001085142184927,0.39743597392528285,0.3436010634657094,0.2936581857759386,0.25522337220763136,0.22889381003225173,0.23445486273518057,0.2769966647361475,0.3246990423067144,0.3753670667295639,0.42839558785589915,0.48246058839804196,0.5345369995227034,0.5848200099959078,0.6306997350372305,0.6737824916880419,0.7110012315042571,0.7399952496038971,0.7498260858553851,0.7399006936285955,0.7281748529633925,0.7166725781252854,0.7144764394304133,0.7189116717727586,0.7301978459807357,0.7471131780511859,0.7450158381230154,0.7302926396861857,0.7195625168814113,0.7303614818216508,0.769454665047089,0.7922846785675022,No
0.767838470040471,0.7613760111353547,0.7575746544650546,0.7660777581352118,0.7762197590866708,0.7688791055892361,0.7679920259989614,0.7679912939885629,0.767845719840974,0.7614755592788667,0.7558530177257279,0.7474628202284195,0.7484145270880602,0.7498734227917392,0.7340091629499903,0.7316378776867623,0.727477128024016,0.7391660005584049,0.7484677916100846,0.7615963059500019,0.7648947874179528,0.760315440010531,0.7676151126933142,0.7671219525578588,0.7488738151259844,0.7110219428476914,0.6672142263925236,0.619840827862876,0.5799587982652872,0.5334056918804533,0.485216806262617,0.4372480103020344,0.39613415829405785,0.351352309318016,0.30317639324073853,0.2549855146722304,0.20679463610372206,0.15860375753521372,0.11041287896670537,0.06222879114492885,0.017408766772659012,0.0,0.026263403100141858,0.0730697949872463,0.11952121506596125,0.15942467657730996,0.20692112512137695,0.25511166880460867,0.303302547373117,0.35149342594162536,0.3996843045101337,0.4478602205874107,0.4926420695634528,0.5337559215714289,0.5817247175320119,0.6299155961005203,0.6781064746690282,0.726297353237537,0.7744882318060453,0.822679110374553,0.8708261614370938,0.9124726661179321,0.9049380025258171,0.8669218046756795,0.8270429030340865,0.7919299795556431,0.7604400765329513,0.7333376239548559,0.7250777911820054,0.7193451455894977,0.7095658417874569,0.6952718263949873,0.6796473859342207,0.6641884593354137,0.6416630830993844,0.6212556583208106,0.5921942082269924,0.5637281381819561,0.5357224433352301,0.5090806983412042,0.4802077676969545,0.4501026338451797,0.4391150224696079,0.4548379948986756,0.478336655612156,0.5067534037053214,0.5401956824997629,0.5806915459388449,0.6146822498851334,0.6492192415827409,0.678316905383983,0.7032061081417114,0.7211919197745476,0.7250823289284065,0.7250971738032588,0.7236463225746586,0.7144086421159666,0.7059722816673877,0.7128933621197233,0.7206397275410237,0.7300947626043093,0.7396094266811977,0.7463769331316168,0.747334187729868,0.7556167609806386,0.7572654998250163,0.757268113718534,0.7567743838363306,0.7468407214908062,0.7366934389512292,0.7457053861533138,0.7576733273020937,0.7715236961791607,0.786726528634236,0.7894317400127306,0.7894371315055491,0.7884091957323103,0.7645497927583389,0.7256716342328116,0.6789394553625892,0.6386018794583244,0.5928178469905574,0.5446354026127935,0.4965635181843788,0.4543877829271217,0.4107368761732171,0.3625949895909151,0.31440411102240673,0.2662132324538984,0.21813603202398468,0.1758857187454992,0.13231229784751308,0.084173440286746,0.03731837718149689,0.011136071281417026,0.03570711743336563,0.0808913531038451,0.12121879002946279,0.1689484377805497,0.21713927495874152,0.26533015352724987,0.3135209653068409,0.36139588252418986,0.40212299495261106,0.44738014270957804,0.49556144511763667,0.5437523236861452,0.5919432022546536,0.6401340808231619,0.6883249593916703,0.7365158379601786,0.7847066591466594,0.8325965422948696,0.8734214590154057,0.9185676902682574,0.9654936246201495,0.972585233449607,0.9299356715743505,0.889742066326717,0.8487111678204879,0.8116120824806823,0.7822976332716323,0.7591267980180465,0.7450386501367117,0.7357445539521523,0.7268503405837723,0.7157991264178027,0.7018872782358143,0.6840217984986945,0.6647413022007382,0.646561982230857,0.6204734577066937,0.5924736181601591,0.5620698993083904,0.5352012511832596,0.5079941446533449,0.4908202505097503,0.49262338915486636,0.5130084582101415,0.5424254713318417,0.5774924995444417,0.6098793280238899,0.6420136220571588,0.6757896128817737,0.7091979391153684,0.7330401710271603,0.747437046836184,0.7566625457198424,0.7558689852035689,0.7472350268649715,0.7390949249487477,0.7358359973622821,0.7358798121632704,0.740737650606871,0.7502241380429098,0.7570924945803241,0.7572681927364082,0.7572685277841282,0.7580155765518561,0.7655154066327772,0.7607807305343128,0.7671276743889093,0.7602302729438628,0.7482238492135116,0.7375748587301743,0.7416490683921615,0.756187961717274,0.7669545751643227,0.7841500150483718,0.7918674326373878,0.7947967404397926,0.7893267218586877,0.78056579400659,0.7544045394849215,0.7112570928264972,0.6667817854451161,0.6254091646887376,0.5774354723277046,0.5292478128325435,0.482827183013417,0.4474986931279752,0.4155095181982731,0.37072692435519716,0.3385442218369017,0.2937076199156894,0.24724182169727071,0.20730842109922154,0.15986496381127702,0.11167730874882054,0.06518103641350392,0.02967026215259483,0.03223924072578277,0.07170388765610713,0.11476086559067245,0.16289299803607693,0.21108387660458283,0.2592747551730912,0.30746563374159974,0.35565566354598044,0.4029177389140748,0.4427407202787552,0.4895076315755347,0.5376969253319865,0.5858878039004949,0.6340786824690032,0.6822695610375116,0.7304604396060199,0.7786513181745283,0.8266849071831206,0.8685482988570383,0.9125316038176627,0.9606719424554726,0.9999999999999998,0.9761899514374057,0.9326319887053371,No
0.6138497936007707,0.6006704798762554,0.5724300252885139,0.5462516498633645,0.5144282837235046,0.4754896186725952,0.43626232808305354,0.3961573896021131,0.35699448809997425,0.30825075625751475,0.26040588129945985,0.221390797387792,0.22033188062261133,0.20067826778737863,0.1814457060862138,0.13909953809302,0.09821015093554641,0.06007046939431593,0.022313929923816866,0.0,0.015439456358149917,0.057240543449048165,0.1028824308833074,0.1506321841224183,0.19962023795218742,0.24856147461273292,0.29888912736170137,0.3495736350904537,0.40069174089791537,0.4516021223237836,0.49947094839812034,0.551812193712409,0.595766188068936,0.6333030059950013,0.654298094107163,0.6567741792780419,0.666034606390453,0.6534065241553735,0.6344732970836933,0.6253203403528185,0.6140100321709954,0.6110244333619483,0.6190236982153834,0.6284163356147243,0.6400420800963407,0.6478538881610356,0.6576698970310877,0.6694107215557523,0.6706305268472301,0.6677282093222019,0.6463830347461863,0.6257760869682822,0.6003911460540261,0.6100160002558981,0.6409009761654498,0.6667804797977543,0.6794136668120461,0.7127220485368027,0.7203676887327422,0.715389098998618,0.705816663134329,0.670396536145377,0.6108383888400575,0.5549195549710897,0.518248930653207,0.4656915174759948,0.4051636349897112,0.35330281921783224,0.2909095803056141,0.22965443353488868,0.17816720476489212,0.11638353792330247,0.06323221692382641,0.0207349540889763,0.04106406981968069,0.09301467744229575,0.13459847582416917,0.1916311661560004,0.25487683118826543,0.3162421298189695,0.357883282472663,0.4017051471160451,0.439062984440419,0.4965699328977118,0.5598180238412371,0.6230909715505406,0.6863639192598436,0.7496368669691458,0.8129098146784488,0.8761827623877523,0.9394551076438062,0.9999999999999998,0.9992535340365285,0.9492251844161321,0.886749899663912,0.8283923291406017,0.7751267056202018,0.7222462589719914,0.6761096851588564,0.6440525740212839,0.6277672511825709,0.6120047033122142,0.5962251928885791,0.5772354820619217,0.5510565954995112,0.518125777627678,0.4874519088744089,0.4533071439451757,0.4182477961094977,0.38044863041801036,0.3389726413635794,0.2962320840840482,0.24584637885598748,0.20334384358001345,0.1713329347084891,0.13753811421618267,0.09583415066223089,0.05372282577447751,0.019575501838821063,0.016049741581628973,0.044020452102462526,0.08950278318997618,0.1368130446655591,0.18099491816616786,0.23164074016909697,0.2825068456170119,0.3304980034132552,0.3779731676970093,0.428282496384204,0.4762832077599415,0.5174079097790065,0.5701481396814543,0.6025656618424826,0.6308075702963969,0.6403464915040991,0.6316271636200408,0.6335280302994388,0.6262740149919226,0.6231063845758384,0.6022038847075948,0.5959729048313325,0.5959935612727378,0.6024827317886021,0.6181875427609838,0.6338567447542676,0.6406877202715691,0.6407546694527209,0.6412740897841618,0.6518071678312369,0.6463778649604837,0.6183441372145262,0.5962497869702819,0.5825876573504642,0.5989468364184558,0.6381993654637419,0.6569056862403497,0.6738773305351884,0.7048658207180603,0.7085741324308941,0.7132902621539496,0.7080222501397568,0.6721274987490331,0.617698769570125,0.5594823013760644,0.505927418710806,0.4430313312612155,0.38709037592992,0.33123902881829026,0.26831559424915086,0.21457432352933492,0.1564390789265293,0.09779022427726258,0.045764106519009085,0.024095014260990144,0.05841714668193587,0.11779448282016713,0.1810591285258265,0.24433207623512954,0.30760502394443257,0.37082424039590456,0.42787984012462066,0.4826280302054433,0.5457573687947266,0.6090303165040278,0.6723032642133309,0.7355762119226343,0.7988491596319374,0.8621221073412404,0.9253831789142126,0.9798808554947998,0.961779587671552,0.9042851657115543,0.8454778978710402,0.7923983915685759,0.735452544973622,0.6892885087690044,0.6583485949973611,0.6333962806226026,0.6166366505156711,0.6073602377296174,0.5885593707259604,0.564686236083858,0.5394732358073073,0.5085995707595867,0.4725316424363155,0.43742292680034134,0.399510528039009,0.3602504297312292,0.3081312360429733,0.26124372990312206,0.21503977241151362,0.17201611115301563,0.12973558349956238,0.08384498083749037,0.041996642618939095,0.007169902600526079,0.0037604879426365034,0.0312700918433535,0.06923521536595767,0.11277252936734938,0.16365437698572616,0.2146518418840795,0.26541378915864233,0.31569174713688386,0.3646278367490601,0.4136342444092256,0.463922311690274,0.5145894531827946,0.5651193727686115,0.6045250715167614,0.6338684590297572,0.6536442061296663,0.6642307629036346,0.6524485311782582,0.6413745239052779,0.6386468461915136,0.6266421592605,0.6160321444255354,0.6133439508228637,0.6259496378508749,0.642119243269885,0.6557599385727377,0.6673879771651767,0.6798137850410655,0.6859107413828853,0.6950849551735356,0.684026821294504,0.6615962718968251,0.6336408552441732,0.6302629365016721,0.6581265990475698,0.6893285985399336,0.7036328942383625,0.7302395864374207,0.752345763354515,No
0.4022426523736391,0.40150730740246865,0.40774458618839127,0.42032070618788175,0.4219494758780227,0.41546392579166525,0.40170015160215966,0.3758778454957181,0.3471792346844791,0.3135288562688856,0.27698126725988104,0.24093197212280315,0.20303275075602967,0.16495056067852998,0.12692444520643098,0.08833128659993972,0.04689181716153146,0.0185408151685148,0.03169407871768781,0.06508002220233222,0.09945727728509801,0.13489331238151536,0.1689301177592908,0.2037586817128254,0.23782949783346363,0.2686831674775676,0.2935451678441432,0.31770692104992726,0.3375352368518256,0.36049547986927477,0.3879859445825311,0.42324132241760815,0.46205044828617026,0.5042322970502509,0.5443384734986176,0.5861003332492944,0.6299565772823699,0.6690376338845019,0.7122027375337268,0.7557797799248149,0.7947898286134025,0.8383302190867739,0.882710948916142,0.9239598860800022,0.9639981668567053,0.9902942591666839,0.9668999221452415,0.9268337215670854,0.8925371775528237,0.853579149095151,0.8113791610707304,0.7669654536694832,0.7225353634512119,0.6781052732329402,0.633675183014669,0.5892450927963975,0.5448163277134312,0.5012663496499972,0.4622578079917554,0.4186849379839126,0.37425625548864283,0.32982616527037156,0.2853960750521003,0.24100793210544347,0.20288103291171367,0.2099019167252385,0.2517430579311766,0.29309440037359136,0.333409971695678,0.37308220674387904,0.40721139676753815,0.42077330476743513,0.4141316219395026,0.40703572569880575,0.3917922009155148,0.3994010893023783,0.41149097325253847,0.414654151501084,0.40871400486278375,0.4024151979041677,0.3989806544478942,0.3916279398919429,0.38470338582270114,0.3925791075426741,0.4063843541762435,0.4168831530211352,0.41367526995656223,0.40355544058308435,0.3853812529782563,0.3578347850218293,0.3248897625437863,0.28962401998470955,0.25425718468279124,0.21174216768631338,0.1730176522515614,0.14209403781516305,0.10781909235285125,0.07009685177853264,0.0321500119065502,0.0,0.004988656361976207,0.03702366707105054,0.0707558476714647,0.10699240336497118,0.14699333024612615,0.18253920554230763,0.21353983116412478,0.24589210237767767,0.2771279482692839,0.3016517384123345,0.3247726902643564,0.347219945505463,0.37031174597781047,0.40046130547067893,0.43590369722673095,0.47445500391574913,0.517827222836653,0.5572516132369083,0.5998626745994273,0.6425435669180335,0.6819049556839438,0.72598988748994,0.770419879141574,0.8148499693598457,0.8592800595781167,0.903591805488174,0.9438411104849376,0.9763401671383702,0.9669771310547641,0.9251905130529972,0.8807883195261839,0.8388775409807343,0.7988881940563304,0.7546362440577123,0.7102061538394406,0.6657760636211698,0.6213459734028981,0.5769158831846264,0.5324857929663556,0.48806087972087275,0.44511316709361015,0.40590275767275674,0.36192680547043765,0.31749695565860114,0.2730668654403292,0.22864452760758525,0.1865111550498364,0.1755542943486994,0.21031857680028931,0.251303794545749,0.29501400599877226,0.3340588783798093,0.3769345546291947,0.4148603629928993,0.4397056722094219,0.43984968533804536,0.42986877305450366,0.4247135541237035,0.4096903329493653,0.41942047208886324,0.43834742339558685,0.43918182141777096,0.4331770440908167,0.43149164845356247,0.42569773577453107,0.4184591791226091,0.4190976554691703,0.4292116841602329,0.4382309706527534,0.44886711263579926,0.4422437253415188,0.4311182733132397,0.40906040786775755,0.3818482731598787,0.34803134315971485,0.3090871937404369,0.2718587400749195,0.2338400958920417,0.1951835245952529,0.157277302045584,0.11978408958189957,0.08207178103375457,0.046438141983093484,0.01922766330078629,0.0359620318033832,0.07338325761000808,0.10886670771922025,0.1441131189366781,0.17963823344010144,0.21395368089182099,0.2461346830680684,0.27588600520081763,0.30383337823875234,0.3302636451067005,0.35186891548461086,0.372534890332757,0.39814289052260343,0.4314272569856501,0.4732187742123388,0.517315321716763,0.5567819151208229,0.5993307036673945,0.6420670881419062,0.6813870411082366,0.7254517059371055,0.7684934310448275,0.8076641880069608,0.851585176327365,0.8959080572487963,0.9363042656098237,0.9767025737245671,1.0,0.9753444301272116,0.9314503251788266,0.8894652886431589,0.8495416249973227,0.8053011509817078,0.7608710607634361,0.7164409705451662,0.6720108803268945,0.6275807901086228,0.5831507909776779,0.539054556230012,0.49966238087049786,0.45701314741118626,0.41259195280086836,0.36816186258259664,0.32373177236432493,0.27947566703584426,0.23949924858352256,0.19784466615872298,0.17389973080457954,0.20600985263059024,0.24534656048414116,0.2894403731728761,0.33386310931414376,0.37665879835011706,0.41461175763470437,0.44037601885252453,0.4388120088558851,0.4311144006194956,0.4270439280124534,0.41050611064279807,0.41624196279964987,0.43080448844513075,0.43178182722021785,0.4301634612595333,0.4259145023582833,0.41880572253687176,0.4140280916235688,0.41498128099728393,0.42100604802540476,0.4295296803683002,0.4309303771350663,0.42460504156914247,No
0.4727677190943136,0.4790214369364787,0.475826514601303,0.47045005643713433,0.46116544178917973,0.44727349145239836,0.4339306807568655,0.4350370136648325,0.44844580207935647,0.4623093789310484,0.4681461661099484,0.4707893341848084,0.4572218625390181,0.43448613272033954,0.4036857617767746,0.37149097331177616,0.33572172581325277,0.2971672629729718,0.2579810922470249,0.21924579526375076,0.17918434062077493,0.1334953872662097,0.09229160939004832,0.055077152797964546,0.019933774264207393,0.0,0.02159509379875324,0.05519612827894704,0.09046855667166076,0.12776302065440093,0.16190152028282623,0.1931557752355828,0.2230127772195427,0.2536422046946243,0.28179568808646427,0.308894534798972,0.3313788186335822,0.35043624783067817,0.3676597413022107,0.38263429780087743,0.3970309374830241,0.4250871347129843,0.4621780644214555,0.5056023488358432,0.5476014647453882,0.5949218406688361,0.641038426003814,0.6822993085168076,0.7292503777671919,0.776520184440143,0.8183518884298107,0.8635887711801311,0.9111541965586001,0.958709550518561,1.0000000000000002,0.997276368829793,0.9582122288716948,0.9108242413195913,0.8632446958545372,0.8156651503894825,0.7680856049244285,0.7205202694579205,0.6752874560993682,0.6334527386372504,0.5861812816589329,0.538601736193878,0.49102219072882414,0.4434426452637694,0.39586309979871537,0.3483506042208855,0.30471995503731586,0.26145447734235727,0.21395877653321982,0.16639422207043064,0.12476877741667347,0.13859050273299056,0.18518676136342105,0.23235844934865124,0.27393099470763627,0.319312813486089,0.36147321152513867,0.4038046389955581,0.44165309130795594,0.4620899707856829,0.45698136138024537,0.4400361236546255,0.4230089633100025,0.41013207518221817,0.4209247388061059,0.4430431689869714,0.4549492316931414,0.45463033804010866,0.44829493087579353,0.4468136648763035,0.4432259365061191,0.4361003745396068,0.42106975628098,0.4075988646957287,0.3997826512528133,0.41346633846090897,0.43306386742400815,0.45292663164278735,0.46299387174780193,0.45895504877804005,0.4437249245875825,0.42472528979398216,0.39422169065902635,0.36209188653786817,0.32726012109619473,0.2871727080162898,0.24450713722822903,0.20476763282899646,0.1651422525222903,0.1268122913708607,0.0872869076553564,0.04946565922915869,0.0186053693905317,0.024476481629480018,0.057823548437737404,0.09504270032010753,0.12792560813189113,0.16054140837077857,0.1944033913452594,0.22476348386355482,0.25256579747546315,0.27981935073227504,0.30443031694550093,0.3281286741585645,0.34898392891755603,0.3637354058818856,0.376268004903733,0.39082988378669214,0.4207783127984013,0.4592011114899701,0.5047886667503882,0.5523608696605413,0.599904789650421,0.6433208282980607,0.6741645362984627,0.717462817534634,0.7648258075054344,0.8070606505890303,0.8517856345557178,0.8993379156896109,0.9452854167366147,0.9842101295963677,0.9938992225683656,0.9603363198150718,0.9142196607619519,0.866643234816326,0.8190636893512719,0.7714841438862179,0.7239045984211636,0.6763929298653484,0.6327781221444175,0.5894974490094256,0.5420002751556681,0.4944207296906129,0.44684118422555885,0.3992616387605048,0.3516843952310522,0.30531181864365875,0.2641285589324158,0.2173567120848332,0.16977777002995498,0.12228898774956676,0.08741027201659168,0.11474515744601455,0.16205500542785733,0.20858291438339016,0.24971075110681773,0.29572384446350886,0.336951584355204,0.38311808632432043,0.4273398392323895,0.4459800270664085,0.4454914515504438,0.4293048211869628,0.41062812300144036,0.4035469657351909,0.41836206896767436,0.43502002149455143,0.4384240839097717,0.4383124265596714,0.4344441024774346,0.43637525386313314,0.42702592248969284,0.42175851693906186,0.4262474303615482,0.4410334746368012,0.45820167402898004,0.4701400836007088,0.4760683963162984,0.4693595297729789,0.45253917218453465,0.42365424603010626,0.3910468678267185,0.356124436941754,0.31929593531829803,0.28122777894107087,0.24312359071253065,0.20369020962383932,0.1641243758985529,0.127306901978969,0.0917433073099978,0.06813297831668752,0.0881846588899875,0.1198369401192787,0.153330950116783,0.1860390933067244,0.2188005512028528,0.2553079016582236,0.28681427517359803,0.3157210710445182,0.34459348486002717,0.3688877551487031,0.39388411178092264,0.41487526493092886,0.4278332838853105,0.43903445824527343,0.4587152684314655,0.4873405074568882,0.526920857795574,0.5681277861315188,0.6136558564269103,0.658423295032668,0.7006329809661216,0.7479913324702054,0.7955247553838918,0.839502591182304,0.8824253526692978,0.9298511117688291,0.9734648759680031,0.9962651256431763,0.9727280585015705,0.9310894882152039,0.8836689251491747,0.8360893796841196,0.7885098342190662,0.7409302887540112,0.6933507432889583,0.6457711978239031,0.5981916523588477,0.5506121068937948,0.5030325614287399,0.4554530159636867,0.40787347049863154,0.3603309264542487,0.3161506842878987,0.2763237946898227,0.2693052743055204,0.30825410861153246,0.3549888947245776,0.39619585080426045,0.43842459992084204,No
0.739809593460715,0.7424221658022323,0.7357231243267743,0.7271595475718733,0.7244809312104685,0.7252134704356814,0.7331535583920934,0.7392091400146592,0.7316611543608906,0.7127545770810655,0.7122054325478127,0.730546375014623,0.7456087902636832,0.7564433151557672,0.7615180579949312,0.7418547010328367,0.7030143581777377,0.6632530384863624,0.6200682894541281,0.5819588981209556,0.5397270195027504,0.49602953124662963,0.45535725551412465,0.42318145791013473,0.39387974745029186,0.3592564434013996,0.3253871523152707,0.2867166039904112,0.24308076069092732,0.20263950135914444,0.16306646958227522,0.11942938781325507,0.07574465811841202,0.03711776445803083,0.025598407043228466,0.05645507931213667,0.09481941690622708,0.1363349273149972,0.180055753711863,0.2237901500375059,0.2675245463631487,0.3112589426887915,0.3549933390144343,0.3987277353400773,0.4423813471629008,0.4822325978878883,0.5223898467255776,0.5660684057495702,0.6098028020752131,0.6535371984008558,0.6972715947264989,0.7410059910521418,0.7847403873777845,0.8284747837034274,0.8722090109006118,0.915235589570965,0.9280252836956953,0.8939607424236302,0.8551289684275272,0.8184881879997048,0.7835148589091276,0.7545661697260833,0.7338689004337271,0.7174236292031346,0.7058230687598197,0.6874808708091249,0.670223736848764,0.6451752702593099,0.6172371137992665,0.5865546898871123,0.5569172438120917,0.5305062553241786,0.5078216093585373,0.5013406103673066,0.5228478608524132,0.5538191664863168,0.5854516762929192,0.6182323466605026,0.6507850181361727,0.68313404668893,0.7134957119921557,0.7311512464179968,0.7392566656521657,0.7364742005365243,0.731983009586505,0.7270272224784404,0.7245442621882507,0.7281552507004949,0.7317827704651751,0.7239090197148921,0.7063064296872108,0.6976582373548639,0.7110214899048044,0.7276620277153856,0.7444483523801004,0.7469247214244827,0.7352188309505114,0.6971006556228976,0.6534180311084159,0.609685769634839,0.5669880394864442,0.5290577791711208,0.4860762682317592,0.44234520243456743,0.39967017687826123,0.36173465217725154,0.31873564402372456,0.2750022939637865,0.23129239717249228,0.1903241494440966,0.15122903755548645,0.10766160101818811,0.06395300201269993,0.02327506228984133,0.0,0.023170805635552516,0.06393480968848364,0.10271371183803868,0.14624208056858468,0.18997643080753035,0.23371082713317315,0.27744522345881595,0.32117961978445875,0.36491401611010155,0.40864841243574435,0.45238280876138715,0.4961171776234159,0.5396614421697621,0.5786314464453448,0.6197423206971833,0.6634578754965228,0.7071922718221655,0.7509266681478084,0.7946610644734511,0.838395460799094,0.8821298571247367,0.9258642534503798,0.9695177895441152,1.0,0.9745741948313364,0.9360007691451318,0.8966792038296068,0.8578911705181291,0.819698165026082,0.7788910149814325,0.7480487561559348,0.7259781783045218,0.7143857456674698,0.7013611404934883,0.6893355041553328,0.673844381287686,0.6492356301350335,0.6184815598943403,0.5893059928494973,0.561238267486891,0.5354629679089966,0.5224979941560699,0.5354202491660056,0.5632414249850277,0.5939715714844065,0.6267019270638474,0.6594990422980656,0.6912048923879011,0.7189483146920388,0.7406837321442581,0.7502833515781959,0.7518224909767242,0.7504565805623913,0.7413116879259849,0.7359584423574597,0.7388319397323917,0.7440695412396823,0.7470617281868579,0.7397913254148651,0.7206839678704728,0.7128245123096637,0.7301142360583668,0.7462708661877122,0.7592920394723568,0.7668247296933917,0.7613233713453755,0.7288494288831271,0.6875446028789429,0.6494968989138419,0.6071467828594486,0.5634541472069949,0.5228046135128768,0.4834264722692505,0.43981064716261165,0.3960762630832768,0.352341866757634,0.3086074704319912,0.2648730741063485,0.22113867778070573,0.17740428145506293,0.1336700280271691,0.090322189823419,0.05202921159022045,0.012266100736855412,0.0013267113514917606,0.03306195208048357,0.0764994493343325,0.12023377290676018,0.16396595410570625,0.206565138763118,0.24454561725983914,0.28757517837462165,0.33130883964189584,0.37504323596753864,0.41877763229318143,0.46251202861882423,0.5062464249444669,0.5499808212701098,0.5937152175957525,0.6374496139213954,0.6811840102470381,0.724918071794932,0.7681516027917794,0.8062950161584113,0.8485289190705181,0.892100163732088,0.9195674360664343,0.8912505475006884,0.8538821357299993,0.8173655197374423,0.7827229258564938,0.7548670936332937,0.7371814546078164,0.7225747962414257,0.7079567958759359,0.6908462152652806,0.6692581777527229,0.6449297138877801,0.6171207933347145,0.5841552171180473,0.5545906518362633,0.5269118873336789,0.5103122898180448,0.5140597247624683,0.5420055520563463,0.5747517377723437,0.6075489598857833,0.6395464691662553,0.6724239154281191,0.701260669170024,0.7259453622598055,0.7390565599519077,0.7476853815963864,0.7602863182164445,0.7563586545802277,0.7483719514438003,0.7523080759999168,0.7548383643902263,0.7568855372113803,0.7586536417802996,No
0.6256033152145686,0.6271763788263844,0.6212690209262095,0.6349541367959355,0.6369174087359091,0.6291463228913305,0.6037534279927046,0.6078950001141243,0.6388341628712011,0.6719047883503833,0.6936604306751226,0.7183317814001864,0.7049241597592997,0.6524978822084915,0.5875863841606308,0.5270089035183023,0.4558748884818198,0.3825251859373209,0.32153312268327605,0.2509955584076149,0.176897607046822,0.10604904454803554,0.08358365531543921,0.12453037568452752,0.19061311808813786,0.25339659318331265,0.327067271809776,0.39261831888395937,0.45804706379842086,0.5320420351899324,0.6061493223204009,0.6781780134981146,0.7386178526935661,0.811027909016647,0.8851356892933193,0.9589445204755087,1.0000000000000004,0.9539714297958097,0.8847225733977564,0.8214578838423554,0.762212805495015,0.7104571024224215,0.6609039474837779,0.6234573431514283,0.5911762419901856,0.582285114381516,0.5559928314309524,0.5252948817709879,0.49009049206194444,0.4461226049057272,0.40163331414455605,0.357213790115511,0.30806960928274574,0.2571990043773962,0.20370076471402898,0.162372084040733,0.13696289320748534,0.13874031604756176,0.1782058008539762,0.21932369273326469,0.28106731941582375,0.340964381112002,0.3965756973713179,0.4522119593554055,0.5078228422244027,0.559957294153782,0.6093541270897003,0.6581901931008542,0.6925586625538971,0.7063121157661918,0.7042542745604563,0.6893901953448824,0.6746325940004807,0.6718478443657467,0.6731735466852058,0.6869293820388549,0.6901028341431101,0.7023297623116274,0.6934200638338837,0.6910567457554175,0.704691702640933,0.6985021640929685,0.694190487835805,0.6681117209017629,0.6385727250702562,0.6228976843531937,0.6421612926204565,0.675107627175382,0.7065930518585226,0.7324635477194996,0.7295546745355033,0.6881116276892332,0.6313410220801896,0.5607659071191309,0.4991989199212403,0.4293874675363649,0.3552899211300402,0.28118131116996903,0.20707580160575878,0.13586324820504192,0.076772082389025,0.033681967756923115,0.05220773005357815,0.10762280802030455,0.15648467237944752,0.21569006610596864,0.28816176812951433,0.36180577040399653,0.42380937984664424,0.4930550007219425,0.5671461135920715,0.6408028582960128,0.7028325323532743,0.7720404076375851,0.8461311577353872,0.9200836632380067,0.9659191852279125,0.9222831578735953,0.8559370422044021,0.7965760907406501,0.7386382213566653,0.6813241361461961,0.6216330494075151,0.5897329221957777,0.5666684745568329,0.5398265175751065,0.513682947088757,0.4772818491010846,0.4402170702305317,0.4002492039909704,0.3573949210990466,0.3134249931344604,0.2593314810731835,0.21152082456213384,0.15657704470269218,0.1027664558144128,0.06556336865881418,0.037080969632866445,0.04020945212893823,0.07571957409943364,0.12305204736364317,0.18927420476228063,0.24515581734358127,0.29691718403056466,0.36025304566953853,0.41634451241545367,0.4678432720510899,0.5219737493201513,0.5661402160990785,0.6062212763733066,0.619391491267538,0.6192960932199689,0.605766536931414,0.5932232855409887,0.5895248172921668,0.5917384953493507,0.597350954803852,0.6151501351973483,0.6297047446776216,0.6439842869978545,0.6559331873731837,0.6623878918673829,0.6545881283791992,0.6542010995534162,0.6404622861272098,0.6047800458228525,0.5733471604745239,0.5817392031157964,0.6059897109626773,0.6340145182610164,0.6618197002152542,0.6961247957791792,0.7138505443180478,0.6752285870192485,0.61404991265116,0.5553611896459998,0.5069467942285852,0.4423664537877827,0.37657817626179213,0.31143153017944547,0.2374551784234442,0.16343992724237877,0.09754661216262273,0.03500600925502484,0.0,0.03694442565688982,0.0927658789108512,0.13690732793908067,0.20533586298457962,0.27078571635512816,0.3363078119781222,0.4103068393275451,0.4844138631951962,0.5563883315764726,0.6168412030792303,0.6892926258191632,0.7634004934309297,0.837504884670436,0.908472120840953,0.9298033263902505,0.8726758327268005,0.8158540319258094,0.7721215955390228,0.7188141818206404,0.6699212806892092,0.6257851654450541,0.5931789267691245,0.5640017464791236,0.5398241902848349,0.5174829035280273,0.48026893387317804,0.4363099726198483,0.39482218081595466,0.35053991078047675,0.30239293146863533,0.2563925860155605,0.20325001634399698,0.153470088541106,0.10056225723195888,0.06658195037817638,0.06522494082283226,0.0968403524361019,0.1445246001459104,0.19424806281811202,0.2525001419406512,0.31316894301516474,0.3773163405223423,0.43702949358109633,0.4926014955539735,0.5427061082635127,0.5921240357488147,0.6392421254295133,0.6727598532500378,0.7007217439530566,0.7026764364735612,0.6879457551414623,0.670925688870549,0.6544593975083477,0.6399255143268312,0.6471711396662223,0.6578975655638937,0.6728902538379296,0.6873852313907367,0.6886472507379273,0.6772652412183686,0.688660302686384,0.6971794728460159,0.6787781584181394,0.6441645590886766,0.6209821846864965,0.6308720877600904,0.6559687815971351,0.6831733045059423,0.7082351242972362,0.7123680480184902,No
