0,1,2,3,4,5,6,7,8,9,10,11,12,13,14,15,16,17,18,19,20,21,22,23,24,25,26,27,28,29,30,31,32,33,34,35,36,37,38,39,40,41,42,43,44,45,46,47,48,49,50,51,52,53,54,55,56,57,58,59,60,61,62,63,64,65,66,67,68,69,70,71,72,73,74,75,76,77,78,79,80,81,82,83,84,85,86,87,88,89,90,91,92,93,94,95,96,97,98,99,100,101,102,103,104,105,106,107,108,109,110,111,112,113,114,115,116,117,118,119,120,121,122,123,124,125,126,127,128,129,130,131,132,133,134,135,136,137,138,139,140,141,142,143,144,145,146,147,148,149,150,151,152,153,154,155,156,157,158,159,160,161,162,163,164,165,166,167,168,169,170,171,172,173,174,175,176,177,178,179,180,181,182,183,184,185,186,187,188,189,190,191,192,193,194,195,196,197,198,199,200,201,202,203,204,205,206,207,208,209,210,211,212,213,214,215,216,217,218,219,220,221,222,223,224,225,226,227,228,229,230,231,232,233,234,235,236,237,238,239,240,241,242,243,244,245,246,247,248,249,250,251,252,253,254,Target
0.799277552828019,0.795908918688086,0.7797670859345526,0.7475012717626085,0.7172304092186644,0.736671899665095,0.7647275444055545,0.7410213740934432,0.6701983878178145,0.5964006226845927,0.5173334405526356,0.44105801749278284,0.36478486005864197,0.284342151548156,0.20979916358300177,0.13160063959597978,0.0561387276770271,0.030611643338167793,0.0880559858378942,0.16741891537752684,0.24162153896318916,0.32036842506457186,0.40135762013771925,0.4823611163578444,0.5633644027921013,0.6439802586179851,0.7182819581809222,0.7692990682441846,0.7499447983776516,0.7311789862808543,0.7046887751039969,0.6707066203229487,0.6311592515582655,0.5833588800906345,0.5415269911774007,0.5154514609072317,0.52829800030092,0.570100447099901,0.6179251034918566,0.6615182072668385,0.6923029223355538,0.6840854246744467,0.6641964724519022,0.6620975410439719,0.6706167007171485,0.667894814324027,0.6683302395754706,0.6471573621454058,0.6136263493474631,0.6255183946118316,0.6679666372154139,0.6836196634802832,0.6365177967752779,0.5599992199244758,0.486149023629891,0.40674311515891703,0.3300827284548199,0.26889246673293743,0.20424373684100472,0.140125836146067,0.07730955649340077,0.005518439593598878,0.0,0.06381564495832337,0.14297378790164783,0.22353814241213354,0.29376008062178094,0.3667599119812849,0.44728637551142436,0.522208869450114,0.5999702286543652,0.6795110169159019,0.7263643665858662,0.7093987055089169,0.694624253814175,0.6768905968026709,0.6508384831503159,0.6062924727717917,0.5651284078949835,0.5371388533821041,0.5541462812432872,0.5971447316437243,0.6431974188368746,0.6899694989859017,0.7373201080875583,0.7661335847745788,0.7651845653965704,0.7770750443904352,0.7979781052261022,0.8224451200250996,0.8397777135284631,0.8323804368047382,0.8057535650781024,0.8222111384966703,0.8594236771987839,0.8642781585558817,0.8206179878767274,0.7542377133142869,0.6803368181268933,0.6004742077545128,0.5261541234531434,0.4475948796535255,0.3666092849096768,0.2856057886895519,0.20460788495566573,0.12585686498182225,0.08707730319395068,0.1333591799487891,0.21046323452347504,0.2844672243062948,0.36354258303324294,0.4445235436592233,0.5233268724002503,0.5974944224383104,0.6778637794532042,0.7585126967832448,0.8321760377120623,0.8692378322640572,0.8506084829945547,0.82482787920663,0.7946139707950496,0.75888691148715,0.718429104092906,0.669854877966425,0.617117251494654,0.5892000837542476,0.6004224982078462,0.6395829681176676,0.6897728131493356,0.7275647547641123,0.7343503030177446,0.714763223910679,0.704475637410381,0.70618155092656,0.7118750505517347,0.708254328527597,0.6818309213127963,0.655484078581961,0.6845863243667655,0.7229084495976962,0.7416642965730228,0.7414405762518762,0.7356597319593218,0.735795518150364,0.7478640304683889,0.7677805976000999,0.7627161551077087,0.727467821027617,0.6810913327266396,0.6359361194044891,0.6180027396088054,0.6539046541984451,0.7066177726785975,0.7533612822153527,0.7909274950357846,0.8275722580126567,0.8566619852616556,0.8802269397018067,0.9148099890476541,0.9785084873658082,0.9999999999999999,0.9413597184304078,0.8669506335832676,0.790228288408234,0.7094831996027205,0.6337258854869593,0.5569107380405512,0.4801343093994829,0.47673697676057636,0.5513917108000653,0.6252386094850563,0.7042566073933475,0.7784416275180847,0.8556837992500778,0.9016366117422826,0.8935879946276354,0.8713667004722255,0.8397325542995312,0.8572073115555857,0.8728965779081524,0.864270540427868,0.8457144366837891,0.8197311283083198,0.8040205302064108,0.79886606157111,0.7907532028883882,0.7545812357370335,0.7087703822278709,0.659481932824307,0.6130433794909497,0.5765071012530126,0.5901286719346307,0.6294048024718663,0.6728169633740823,0.7002944307876701,0.7201800427208785,0.7332839744268419,0.7581790050610279,0.810342996955021,0.8356592392765251,0.7797401770674933,0.7043419641857228,0.6238204803100501,0.548794899858826,0.47115671423297767,0.3912955124634673,0.35577499589479744,0.416054756486936,0.4965352998166216,0.5735812523376286,0.6479010335042098,0.7092555278698586,0.7167249259049219,0.69646398828523,0.6581207316130117,0.6629258457879478,0.6919054561044257,0.6993359527533026,0.6966665601941023,0.69357302773722,0.6894342470537419,0.7070365880712496,0.7224772393365132,0.708315758286251,0.6717564179522079,0.6256574474552518,0.5774487030875993,0.5508777080308725,0.5764691698933678,0.6175770829393789,0.6640748490771736,0.700806026132884,0.7329029954628493,0.7583759246839573,0.7799599606892506,0.8287155698778633,0.8827254796918459,0.8625673405778639,0.7898895410693906,0.7151979577404083,0.6345720580726714,0.5545787995136203,0.48852542147518785,0.5000165254608308,0.5753309590402406,0.6531677332488005,0.7265660075239205,0.7830772210937645,0.7918118932821706,0.7714578627070253,0.7505796706598983,0.7818055894072845,0.8137707616665381,0.8224124359126485,0.8225530146887762,No
0.7828657276892124,0.7924745167532155,0.7791840811166983,0.7535908302760339,0.7693670049660228,0.8128853394945834,0.8462874975438834,0.8033618394769644,0.7108180392741714,0.6097335715168217,0.5132910126329251,0.4089316073493947,0.30308784453882076,0.19729973891953878,0.09610829540546306,0.007099904939639412,0.0,0.09052698096665202,0.1917403490988474,0.2718938930752597,0.36929289850634617,0.45986247784746515,0.5464073355179053,0.6490802395620061,0.74771781060668,0.8196587391959087,0.80745312650223,0.7834765553004324,0.7519800447989018,0.7112280170058185,0.6604757693435932,0.6032180203016355,0.5707357418008101,0.602708366853389,0.6654890245742919,0.7286412570046876,0.7733981774372138,0.7897182200754409,0.7892418491825055,0.7892774300327197,0.8049827419817526,0.8067652751836534,0.7785236757354512,0.7800771995222904,0.8220411485852555,0.8592711169579739,0.8255722118425084,0.7341937939584373,0.6335865765107724,0.5358604937140925,0.4342107904843331,0.3367410762931038,0.23200083711860686,0.1346065104608003,0.038483918104410986,0.02683142180204534,0.11883296773001417,0.21559552569133023,0.3186304360793115,0.42395943003378544,0.5215457486916917,0.6234825886182984,0.726120778087546,0.8227809296468533,0.8960828452461473,0.8698846265930584,0.8360704847652938,0.807971999190171,0.7763580556208021,0.7279913044427107,0.6834083633929005,0.6604013573869145,0.6941695095867078,0.757392411161004,0.8134594240000592,0.8495167533655115,0.8548008173368069,0.8474299653349242,0.8624495630316222,0.8743791163675343,0.8478328348460609,0.8123621980369753,0.8202365481050056,0.8726391172033756,0.8956414922498668,0.8328992448027812,0.7381464405407654,0.6381550092392887,0.5361363899105929,0.43869783159615205,0.3334278044359156,0.23131059493876838,0.13387710367500127,0.034387256403829,0.003463415643409906,0.07968958481478317,0.17772132056182266,0.2668978284229824,0.3575468184752113,0.4581390584101359,0.5638997358034232,0.6697472635118396,0.7755893034483228,0.8770642119369245,0.9025158239128162,0.860552025736623,0.8224397492723396,0.7853548848624012,0.7426885464970086,0.6945971483063171,0.6414110744351038,0.6082113919835017,0.6289415823044944,0.6903570017145493,0.7571486148589159,0.8099405477855142,0.8374081381889595,0.8366284966303843,0.8383716967565691,0.8520528585972664,0.8664365474659792,0.8457972377969647,0.8145212734559244,0.8218556115708024,0.8663415265107093,0.8867050839005326,0.8232533590925974,0.7201424678168828,0.6236344795475153,0.520221181945506,0.422137597107042,0.32080915742774985,0.2176685854869851,0.1212567730285452,0.04067212144684573,0.07273059456008757,0.17064918501516546,0.26789016917882447,0.3731044417133005,0.477945874672133,0.5746403139243992,0.677906264156392,0.7790415781995119,0.8696276634542033,0.8839672635029279,0.8646446441618851,0.8937005501466027,0.9352661390711947,0.9437549143914381,0.8659222040280807,0.7701751603189673,0.6664554977562356,0.5908785329190547,0.6419851449934939,0.7398227300281144,0.834980205565089,0.9138207083893197,0.9281894581411698,0.9014306119656699,0.8596630683829474,0.8685912172444599,0.9022182291292287,0.9037908267165207,0.8865113144496284,0.8742746729598798,0.8734961905474916,0.8626018292791338,0.8238877365932564,0.767560706088801,0.7015584224547846,0.6491433394122834,0.6714870833610065,0.7226717117723618,0.7740469007595225,0.8136643667622503,0.8514752909881398,0.8893097870105529,0.9405798918965156,0.9999999999999998,0.9844476176997305,0.8952923616403912,0.7987152167493743,0.696450770686228,0.5973758492589842,0.5955669590722288,0.6905012930890917,0.7882589416983168,0.8821223476260063,0.9379496463872738,0.9328917308073097,0.8887937217438646,0.854530516586492,0.881776660479179,0.9088259114629864,0.9023822997423936,0.8875419878508575,0.8907559698953855,0.8963168028936381,0.87739773597311,0.8364438786931261,0.7710107511066624,0.7171131295178192,0.7183968261963931,0.7640572624767332,0.8091371297667871,0.8405510948650716,0.8711325897328386,0.9041179523342862,0.9584615604045312,0.9677454697402925,0.8914855383824418,0.79479789155642,0.6934439646273296,0.5956639638502637,0.6045830610698046,0.69712826833079,0.7971364139958024,0.8803510551590195,0.9064337070735091,0.8917292765779583,0.8486423229327602,0.820255448013657,0.839728321100208,0.8459770233525028,0.8321228511993846,0.8232686646394971,0.8227800490228507,0.8147611653808997,0.7815395874172155,0.7259107322531018,0.6588556031362021,0.6194665191612825,0.659021728387486,0.7147062135920927,0.7624964028651962,0.7992170415451907,0.8270117244968904,0.8535384629598346,0.8783103371660739,0.8287605257026518,0.7356204138734632,0.631902096575431,0.5368126118360024,0.5112522287481163,0.5996569506815816,0.6969728878149637,0.7947983154867357,0.8759594555942891,0.885602739786367,0.859107461552602,0.812920694939814,0.8018311050690288,0.8308690169516535,0.8338762888158866,0.8164630412509528,No
0.8445241361257373,0.8813091133496703,0.9033845258275416,0.8997098936641102,0.8883339554588098,0.8908668199192592,0.9010426055497583,0.8912568567445539,0.8903091636677557,0.9066350556204948,0.9296941516983693,0.9301784565004013,0.8641246406454507,0.7882729066027018,0.7066117857566584,0.6233789387581351,0.5470182092673729,0.4659410391429849,0.3828561466376931,0.30668451573954736,0.2252879827303883,0.14289751134509399,0.06798233816390398,0.0240421465337588,0.07839555917724461,0.16146336762423308,0.24061285905577712,0.31858100116668486,0.4022050079057816,0.48601253847404824,0.5687491226244904,0.6445965363767482,0.726424976719045,0.8036602559479985,0.8723824255824281,0.9094760385296431,0.9120959902593934,0.8975276449905755,0.8757595930544452,0.8455655255852251,0.8055528923782028,0.7703639018669884,0.7601157055664162,0.7977457215719751,0.8473932326542956,0.8894187241287058,0.9127119406229222,0.9188699767376379,0.918802050707194,0.9205485091689137,0.9280429516369989,0.9244496157094567,0.9181824228856649,0.9231573247420019,0.9478832735224317,0.9627167725954952,0.9212284233699005,0.8403444615216357,0.7645402166855347,0.681926181472624,0.599969147678605,0.5240678510730991,0.44125829401370364,0.35756330014632465,0.2788869035923055,0.20045977020557515,0.11708942936400668,0.040898240458334345,0.0,0.04499955606839756,0.11035473164168608,0.17653553859142856,0.24865943160923665,0.3300202403524545,0.41381590076320374,0.49752569861207896,0.5764316111567865,0.6546342016805712,0.7382611449054802,0.8176210450791829,0.8675189868223342,0.8842411917375036,0.8747265213935601,0.8562769494493004,0.829030433915387,0.7885915614903188,0.7515298663507274,0.7339120630204842,0.7596664730682287,0.8097958318633508,0.8556623433615685,0.8824821573228719,0.8978474638341193,0.8981469442248545,0.9015871528628686,0.9070289911028194,0.9046916201915128,0.8873559158232437,0.9064860491792605,0.9273310943344294,0.9415047719131292,0.9038020892325288,0.8251720657832163,0.7482112704145584,0.667953098126083,0.584179365053023,0.5003698293367184,0.4165602936204139,0.3327609486329769,0.25114798039072184,0.1750986043013253,0.09230009930893346,0.021927336729261282,0.027204573585599245,0.09588446052742639,0.1786443190155046,0.2624010469560917,0.34228954777493203,0.4195818873869136,0.503114277833345,0.5868664544693648,0.6664533010083024,0.7354941762415369,0.8038458029825467,0.8694754528242147,0.9075331699973505,0.9123923109462314,0.9006710302942468,0.875818329524081,0.8406850540537475,0.797990033581594,0.7688938502434087,0.7819079960148249,0.8250879563969967,0.8715412341654639,0.9048316630273067,0.9144747917466617,0.9157813684210635,0.9074980856447475,0.9109372848355691,0.9046266697602209,0.8973982384925275,0.9097830930522431,0.9289180686319737,0.9572776682483674,0.9619790859565579,0.9447882480242614,0.9339427691613901,0.9386665001851618,0.9434220600534943,0.9464135978073002,0.9538481895770988,0.9497020808512321,0.9375620440609523,0.9065896680228397,0.8639383879294987,0.8214178938368081,0.8164368988510257,0.8512800482896544,0.8912772259063418,0.9190230733534673,0.9364441879451887,0.9438870693006832,0.9432507703366061,0.909453299757485,0.8539396963135794,0.7798170796726863,0.7036790809627466,0.6252418959632945,0.6045129507290851,0.6754974662360239,0.7579860869352587,0.833806589863542,0.9135846729065052,0.979287361929022,0.9854942295898218,0.9674427997828802,0.9448823430814107,0.92828672751976,0.9353828954160043,0.9387984088249827,0.9346747301216568,0.9299211416341601,0.9336772269736086,0.9186036095397744,0.8950083306314524,0.8545169684919797,0.807189090461541,0.7703246159392411,0.7862799205633858,0.8246199276774252,0.8638536014466748,0.8885381392187109,0.903870625905841,0.9138524608792363,0.9062015326803422,0.8668289243004531,0.8033440680437097,0.7252483941425164,0.6505265937548005,0.6241240038515233,0.6898931148895374,0.772869166001609,0.8494875569082904,0.9289713688932387,0.9930775158789443,0.9999999999999999,0.9810025612510241,0.9608290286310514,0.9615685652196281,0.9584128512074398,0.9602375029971836,0.9549947864459615,0.9558058289907972,0.9507503528278601,0.9413466690900559,0.9171812732994767,0.875600940774013,0.8232930405943847,0.799541381204904,0.8274383861303932,0.8680868081055596,0.9022154883287431,0.9237158376469191,0.9397682414279659,0.9455070423218798,0.9379406226273722,0.9035756741292228,0.8395427560233834,0.7639589236364906,0.6806549744153817,0.5968457936247574,0.5130377988421085,0.43178631286813995,0.4162925537603287,0.49215413370974137,0.5758552289209532,0.6549034489327085,0.7329196088608972,0.8107090247597993,0.8747421199160862,0.9483199647559316,0.9921041124959876,0.9757768417369986,0.9554595887098926,0.9374308180354148,0.9272585414989251,0.9358734911983587,0.9351650900962335,0.9259222295606911,0.9236725014242325,0.9328261585313761,0.9401485927985492,0.9234966054189709,0.8947065388635859,No
0.9102578387372724,0.9323481649880214,0.920229834680292,0.8555632706979097,0.7774085108885369,0.7398636331911663,0.7286762751764857,0.6733784638555067,0.6270991492484903,0.5639747242727728,0.48531868691201074,0.41257282651381066,0.3347909095266368,0.2549845002172906,0.17516800789598252,0.09619634982866976,0.04733673090106738,0.08917674088109206,0.16477453800936293,0.23802852910641814,0.3174080165018769,0.3970655354639754,0.47166971994331774,0.5470614850038262,0.619114769106321,0.6354557121123692,0.6561641558319711,0.7011031730533661,0.750988266572634,0.7762241820364593,0.7376032791649338,0.7787633471014448,0.8260473082299138,0.8897415746210462,0.9386590556243251,0.9411276960687431,0.9278558647881905,0.911785949968624,0.8953280091739557,0.8695845814391605,0.8381990920527866,0.8065814373182378,0.8015032386057368,0.8289412876361562,0.8615809295547572,0.8760639119564935,0.8851715538847353,0.8776111738760843,0.8689704929710738,0.8616999948558208,0.8703258474469817,0.8731315266526551,0.8805094805840221,0.8874868044091533,0.8924780548123181,0.8995710312405931,0.9051821870810788,0.9042226832975748,0.8876429627045526,0.8882759086606151,0.9119736641556138,0.9231232191722545,0.8723476648895145,0.7979334138005556,0.7203310503956655,0.6514803939623512,0.5865222438943274,0.5083476505125943,0.4291532798249922,0.3562732521550511,0.27874159743631144,0.19893975062964664,0.11989215171733825,0.04789712174297289,0.0,0.04597585506131807,0.1244398237637443,0.1972102187123015,0.27490155767948066,0.3545799517180872,0.4294971761124209,0.5045957778911325,0.584225845151217,0.6598592639143643,0.7342208348376955,0.8104806262345818,0.8820566852020268,0.9329587013174967,0.9335348825158767,0.9233187261418199,0.9085562014532893,0.8928315821349195,0.8658848092004146,0.8350152497398926,0.8161760566563272,0.8267590653745098,0.8640737847725621,0.8962859826616545,0.9131730485714431,0.9201313837812461,0.9088115730185711,0.8972564975395829,0.894488902390232,0.8985132875727802,0.9013619748477173,0.905948440386017,0.9063108407083282,0.9102406121143101,0.9116427649042278,0.9116041240075166,0.9069600718546078,0.8867612892478542,0.8814738759525389,0.9000881087291481,0.9293861322335812,0.9204933280818441,0.8548187526296773,0.7755891821729057,0.7010066509719768,0.6255733192931572,0.5458431918604247,0.46672076548752117,0.39392456513268503,0.3162364964961748,0.23668302494857718,0.16273845343660764,0.08777504872056008,0.05015337337921855,0.10568683602454199,0.16813473912074828,0.23673023076572708,0.31624826838048303,0.395917915579723,0.4706394900271862,0.5459382097564935,0.6255733192931561,0.7010059930481127,0.7749218282403529,0.8474668872967774,0.9138784702081211,0.9251945594415307,0.9117889593450588,0.8978944459508928,0.8864986427602579,0.8808063519078633,0.8544994577026193,0.8340888019825705,0.8562566074589861,0.8881417514068155,0.9131702135128197,0.9204219813209169,0.935465822565245,0.9475212883243564,0.9620341677022086,0.9733065166806978,0.9241403939878485,0.852737577535835,0.7768319551002487,0.7040691223421531,0.6264313057439685,0.5515551138654597,0.5482793340997849,0.6221916647903101,0.7019974206004671,0.781814254201094,0.8615029005522297,0.9361996220580424,0.9966031039603702,0.9894390773059702,0.9586934480347011,0.9314135735003304,0.9145019483140431,0.9255659144278523,0.9431783080902345,0.945151955072471,0.9441705051217288,0.9369182760342409,0.9352155275451395,0.9307064562901906,0.9255879885670846,0.9254821121973624,0.928237807975191,0.9366801075860143,0.9484262983374958,0.9457013290419813,0.9312955514484114,0.912650652981674,0.8754435456694953,0.8473985929677721,0.8581191712599252,0.8865438315213803,0.9144842392255634,0.9322627010651674,0.9481329375358847,0.9588505900544058,0.9694253162935533,0.9763790295291157,0.9450731081499586,0.8759899255102572,0.8037218698860289,0.7248008698890938,0.6449856761014578,0.5665303278900904,0.5372900894214994,0.6036882883389296,0.682659410134357,0.7553550177110675,0.8330933298960588,0.9078106361959983,0.977694044343788,1.0,0.9637992658050538,0.9388375232800248,0.9146803942009121,0.9212152022471911,0.9379745474465127,0.9339438262450583,0.9334480252710766,0.9287527554475641,0.9208856819439291,0.9138824177089098,0.904658643589441,0.8983432180089599,0.8998810592810615,0.8937277585652168,0.905518880762614,0.9135905332203653,0.9125514342604759,0.8947916750019869,0.8659416822710455,0.8391470852667138,0.8455311804522925,0.8789446174916027,0.9082111395742374,0.927441851831047,0.9437275619006291,0.959397639576103,0.9747870888527816,0.9820904731397404,0.9470092714252092,0.8752143457829282,0.8082077036463557,0.743355896790197,0.6718825102427346,0.5936357943292712,0.527352889529356,0.5568483079173836,0.635322606807639,0.715000177815245,0.7897385672828852,0.8650107928818895,0.9440708903963337,0.9943032635344244,0.9742831235055738,0.9557343279223376,No
0.8978238791204061,0.8845583345619064,0.8721486349703373,0.8613848457215418,0.8523866514560052,0.8410820887144359,0.8534430555237105,0.8867581884760738,0.9228671049702792,0.9510676379612089,0.9058039569851748,0.8414061397154726,0.798702941941261,0.7797959252295019,0.7791930718342499,0.7828436736398654,0.7832953313724271,0.7812733260783937,0.7773719048862029,0.7880087783165401,0.7798745607029751,0.7550572511730915,0.7551250373439524,0.7691026054803376,0.7902620141610077,0.7996423544776667,0.7953339946441904,0.7457292490525975,0.6634052398225339,0.5694320927475154,0.47417243788155883,0.3796383492032862,0.29541549985650706,0.20417384603915512,0.11056887488028844,0.03030418763291398,0.0,0.0629823228111317,0.15620474590290256,0.24307575882367827,0.3312314013191697,0.42400534432178016,0.5072710381087506,0.5946707832871891,0.6780809887945844,0.7464470051374268,0.7862960737944005,0.792350892740521,0.7866067072824174,0.7732500986642141,0.7605474530087246,0.7442353315384089,0.7288248310014303,0.7102560281939447,0.7043077374475795,0.7353601148327362,0.7664610161478,0.7884183408401282,0.7924549481496723,0.7975406778898648,0.8077906552781284,0.808281611399428,0.8135392264110992,0.8237674823581891,0.8318598121884624,0.8401054279223636,0.8486893702015896,0.8406835715232588,0.8320350044608484,0.8531645534456596,0.8638726001790853,0.8711521508271516,0.8529056405617683,0.7715283933013661,0.6801818947114726,0.614988351187499,0.551655980583277,0.4727089446892596,0.389142477331764,0.2948807543921488,0.2030761276397306,0.11940435885778755,0.040878844940265946,0.04580534780841772,0.1276727408226228,0.21092578423306962,0.30364649007797206,0.39432481926288343,0.47883034184148476,0.5665997741391005,0.6531893074442663,0.7374348643310134,0.7851273469641513,0.8059919321689422,0.8082330743982356,0.8076640534672475,0.796324897488033,0.7764825378711864,0.7465309489086032,0.7121750711957757,0.6956644004856569,0.6930219303890008,0.7247010806719043,0.760031953989535,0.7828432020747953,0.7922552888041197,0.7875885777470146,0.7830066106989362,0.7942479405096887,0.8070493664767566,0.8190394013824434,0.8251660123458446,0.8368871001505629,0.8410402138505826,0.8509294180799318,0.8418852722762598,0.8487552851082714,0.8724764629938537,0.894439091654414,0.8930225492957877,0.8856141300978657,0.8174689540507627,0.7337423699915044,0.6430603847526886,0.5590532968125785,0.46474734857759303,0.3778913070439778,0.2897458345773214,0.1951005299255466,0.11262318536202343,0.08455503569972,0.15155525103712963,0.244595683478956,0.33667893245571534,0.42032939449430895,0.5136980326948937,0.5975331293682764,0.6838586953038126,0.76508153371045,0.8228067919322166,0.8654632382229952,0.9021606788376335,0.8734159662015628,0.8336845094251761,0.7599800647420358,0.6794264586602523,0.6611306905843297,0.7412037920321106,0.8310563708175613,0.9114810936618403,0.9528734945845456,0.9438246831104973,0.9379838258028159,0.9153517158021112,0.9005176851231806,0.889481912650897,0.9030458944393596,0.8919977756642581,0.889091118803981,0.8819447516633669,0.873090894084307,0.8555176343330086,0.8458631076572587,0.8427125208777384,0.8403257755503879,0.8394610871644037,0.8419608728259722,0.8317055742576369,0.815160191646481,0.792051662507343,0.7522988488183064,0.7406941066119543,0.7658546210493324,0.801565088367513,0.8319045655288493,0.8455882596965036,0.8461678411093168,0.8462775125644462,0.8528680075186821,0.846957107633771,0.8096624331899029,0.7515620325248489,0.6762998879230859,0.5944070646034243,0.5087726737299247,0.5113071301212004,0.5998040570538805,0.6874050526669624,0.7744079604265668,0.8572054468300081,0.9124852838895379,0.9247868814751752,0.9161021511485137,0.9080182934127028,0.8895106891607227,0.886338457600234,0.893431228945532,0.8889385509951353,0.8782972384748207,0.8749404720231522,0.86299823008628,0.854745954192075,0.8463495809874559,0.8460510890245194,0.8399936548190965,0.8418242748177995,0.8244526307399158,0.7975872684553083,0.7644000844560601,0.7592225654977063,0.7791365065234124,0.7973060791405784,0.814793629153344,0.8279809105908953,0.8303577056573608,0.8303625771141396,0.8290495338018116,0.8022024416044031,0.7544526101527484,0.6785079394377083,0.595635945518072,0.5081076191490248,0.4298443742113216,0.4449996871345041,0.5355144179766129,0.6187831155167034,0.7111597244671248,0.7938857553075165,0.8607438298678831,0.8595079150187477,0.8437997908349488,0.8310046106244533,0.816092757993065,0.8042913351296961,0.8267536049450834,0.8374995985396669,0.8290452699604463,0.8190836949575262,0.8288872931466491,0.830361781733846,0.830364499196119,0.8317259276546709,0.854261165879612,0.9116586336232939,0.9782499897513941,1.0,0.9772061412482147,0.9389618556023511,0.903348340072474,0.8845386801183448,0.893770551180979,0.9054833914975693,0.916732074793114,0.9323063538228062,0.9407979330503422,No
0.8622327469926403,0.8630790334726994,0.8514880450059754,0.8302323497454767,0.7995599629838406,0.7625085879510012,0.7181994754467749,0.6776548256063839,0.641018708790005,0.6408746519860482,0.6742169205279578,0.7251425182161213,0.7758901583650382,0.8183227897275078,0.8335259920248388,0.8258158442911829,0.8145298386963014,0.8155214634716348,0.8201812670092894,0.834996126953014,0.8448660707145996,0.8458529165667215,0.8502944458375494,0.8569825286590085,0.8572074093527389,0.8572074093527389,0.8572067362560631,0.85611732031231,0.8409172249954546,0.8225204289300958,0.8170047887125311,0.8416259923637333,0.879719665068718,0.8873976754394699,0.873476739973601,0.8123174865961109,0.7517406807276079,0.7021064565869377,0.6470362165891881,0.5728975372723124,0.5015321345175296,0.4328884634827639,0.35761051238140773,0.2821362656566775,0.21149533950664345,0.1421929106306552,0.06689338058109895,0.0008685898673217451,0.0,0.06529374700082724,0.14075620523510812,0.21629253583927222,0.28917902747070845,0.35662310780912176,0.43154723609957646,0.5056110199749528,0.5725586691277085,0.6467862178989694,0.7199980875361751,0.7865152767398165,0.8410854249900186,0.8616118976216489,0.8537430455414041,0.8371373290092192,0.8113615748585763,0.7792779784771666,0.7397580776249875,0.6983180288981898,0.6605305639014192,0.633531454400184,0.6481664618805061,0.6879209561623765,0.7417399768173971,0.7882670775138405,0.8241285116544836,0.8376398509072527,0.8310977941340618,0.8234046077093546,0.8240128590840756,0.8333601135528501,0.8483637153568533,0.8627234862331763,0.8685050846773485,0.8686137312013995,0.8686141098626547,0.8692727541070955,0.8774141291223507,0.8803661670673824,0.8850112388826421,0.8746704399931526,0.8544778007715665,0.8586264398280321,0.8866784561803847,0.921432993000237,0.9366212900721762,0.9219485006802923,0.8605761108444121,0.7970668108981727,0.740524523938165,0.670718364038676,0.5964889905497854,0.5295271882600585,0.45556709292362263,0.3805865911396249,0.313060777745487,0.24033129462920844,0.1698792703315204,0.1531161685935578,0.21134439428234364,0.2866229328762142,0.362172409400763,0.4369764456228362,0.5042212322163602,0.5774236862727673,0.6516511858692833,0.7186019491663331,0.7911393250759637,0.8573794135220081,0.9133414226526806,0.9332497437235343,0.9275046432077569,0.909903717623034,0.882834585258284,0.8468986708159123,0.8091001231715678,0.7688633486811323,0.728139421853407,0.7011968512326332,0.71265819895343,0.7537847389593557,0.80687254276978,0.8491361417107068,0.8674828285318446,0.8664282925594953,0.8501494791080686,0.8465486921233465,0.8548298688059757,0.8625217910722558,0.8858817342835656,0.8847302164678019,0.8826825183619171,0.8842560873133447,0.8951732375700838,0.9029512329677005,0.8960759713661686,0.8713672528766567,0.8239619416667838,0.7738008412058954,0.7377692857107156,0.7528504422304418,0.7956829773266152,0.8347589903420447,0.8725325947103779,0.9087144490290553,0.9353845247862618,0.954168811152095,0.9674839398624235,0.9624607573899402,0.9485996637610166,0.903236555377533,0.830094860524901,0.7554126075329346,0.6882621751858886,0.6150929698736212,0.5657515205332089,0.610976264708615,0.6807293960219722,0.7559220575752219,0.8246453326029328,0.8937405855097791,0.9584504386825965,1.0,0.9819161395434084,0.9616261143014073,0.9398243285752825,0.905672520414808,0.8927711640271176,0.9085668379309564,0.9178902921972498,0.9144703079890901,0.9076357197257563,0.9073952254868454,0.9073947202961632,0.906695536440997,0.8984653987497109,0.894426530354377,0.8824295676805098,0.8706935774700368,0.8623064117284074,0.8618482697834482,0.8668088539966077,0.8716280273588501,0.8561861131388389,0.8222423362250331,0.7753882984581439,0.7245094341039073,0.6832260852288332,0.6852155581282442,0.726800918267444,0.7659183219541401,0.8040519037799574,0.837830287814876,0.8633996052572643,0.8830664822031946,0.8935683286923781,0.8909898946461281,0.8691437747214215,0.8138842839048401,0.7396534386389431,0.6645020422807191,0.5964755713050145,0.5244603413897697,0.4646793700749201,0.4995275506568917,0.5663787687196367,0.6412010704852751,0.7114625645894737,0.7810798870732143,0.8522939528272471,0.9152679841292111,0.9438951795905188,0.9229499924956319,0.9150196979978598,0.8860811732052356,0.8563643056199031,0.8622172490109694,0.8837432660927853,0.8951612660705657,0.890281648244517,0.8936938996365544,0.887435618560398,0.8845977212046856,0.8845706916705234,0.882090016360187,0.8738749007295668,0.8726667168056879,0.8613127246505847,0.8507638816409635,0.8525666995068175,0.8638536233873062,0.8707442006471919,0.8570870685488583,0.8237710431783483,0.7716220888639778,0.7204584777846375,0.6815803294974803,0.6917642428274438,0.7339561004515709,0.778485693042072,0.8166845263604856,0.8507899743647591,0.8733499682423167,0.8902971268957045,0.8982272121850023,0.8983981020434912,No
0.6195334987527295,0.6485114380847756,0.6776741062073763,0.6837884639268386,0.6846236838188124,0.6682107587139372,0.664548481687393,0.6645680554929703,0.6693393127263385,0.6761482597361428,0.6653477364575395,0.6629169736464071,0.6511397091019968,0.6596080482078923,0.6789816442006216,0.669935323160153,0.6506762271489692,0.6472044330707689,0.6352781827470766,0.6330635528908535,0.6294402984574798,0.6317845548605416,0.646329420529582,0.6284429658206854,0.6043234946913016,0.6055197114849586,0.6344853221241804,0.6603321074347557,0.6301296204745355,0.556695550571825,0.48015627920604365,0.39766939941135115,0.31673987999780273,0.22962540988401692,0.14119809421225638,0.06181582617149939,0.0,0.02904191810358281,0.11733293688151258,0.20904461337339075,0.3007429834639175,0.38878793441281134,0.4692684805000442,0.5601447334998078,0.647087492879908,0.7041673198172842,0.670873143588957,0.6308010743459764,0.6172313821592863,0.6036185419405031,0.5852339216696216,0.5707632661713302,0.548053886626251,0.5117034963851967,0.46997333212979786,0.42364827530595717,0.4136549970322765,0.4341684684941183,0.4837679316718879,0.5386275675847259,0.5903030935370248,0.6410586088971439,0.6636501600606364,0.6727495492372286,0.6646913908067327,0.6443187514157547,0.6237181319887948,0.6347637430175666,0.6595472968539688,0.6671260922856148,0.687652471114983,0.7042477312280058,0.7193835451079926,0.7280920000383628,0.7474778356620595,0.771551215179231,0.7645146558283282,0.7561161075269847,0.7443460419014976,0.7420730375365663,0.7329031159603372,0.7418745169190064,0.7372565565067757,0.7145437824820462,0.6984950175695537,0.7040776010916439,0.7361590106010358,0.7802319431766409,0.7792452163573116,0.7129715776153969,0.6362993558062531,0.5559446107257799,0.47062487173187195,0.3884402036141248,0.2973575476600332,0.2149545561180215,0.13243220120972454,0.08120350376091867,0.11730733996143927,0.19404629794121764,0.28318764997995594,0.37475906436193673,0.4589744824377293,0.5427399858298534,0.6343115066250209,0.7260194085875704,0.8119278668279737,0.813788897491984,0.755904670835148,0.7159719748662838,0.6815328643945358,0.6496854454948076,0.6333266521967045,0.6183382247106688,0.5907357467005663,0.552032549154168,0.5119728655464924,0.46782882890237554,0.42322338669298576,0.4044014062057837,0.4184915995123766,0.4683168539489424,0.5208840487815949,0.5726760781697098,0.6174415802019162,0.6453498509140698,0.658157778529247,0.665669417628659,0.651836723745379,0.6271275963873566,0.6125718670904008,0.6021089764802401,0.6027011991075542,0.6262988224942689,0.6444037228105017,0.6489076660827813,0.6562577546343786,0.673667672769823,0.6996929389091031,0.7164970298084108,0.7089372247380568,0.6877061075109197,0.6710855980482195,0.6313968103724834,0.5845741258068204,0.5299785958668712,0.47300369761102434,0.45546993191693286,0.4930202775716608,0.5449273244876571,0.5825381806628602,0.6218931846713138,0.6546047258728427,0.6715878660553978,0.6862019040221279,0.7108111133735684,0.7446247963111081,0.7865638875360199,0.8489417158928667,0.9212553598803455,0.9896968680192444,1.0,0.9325347418137881,0.846314428588193,0.7652516912421357,0.674096906751569,0.5852937963989127,0.5568249607776283,0.6104086974075225,0.682668799410493,0.759312647993355,0.8203156193319789,0.8345515638293968,0.8238877385690881,0.7851686057462635,0.7523053391650008,0.7558084051059346,0.7769763131303193,0.7809040210658926,0.7809199902819568,0.7819856648104744,0.7915561795679529,0.7927369682320253,0.8041132629936172,0.8121910365250615,0.808916021759178,0.7850600099247704,0.7661675323334727,0.7560962970486935,0.7409164386121776,0.725756154687295,0.7129373206323799,0.6965067004085626,0.6756318145318789,0.6903123606397785,0.7093201064633647,0.7177905431524576,0.7128400512399673,0.6962840017478316,0.658499080702903,0.6111859503433585,0.557077724121227,0.5001325242893495,0.45680681180132066,0.47253164441056583,0.5188575772756647,0.560562942836325,0.598270218282082,0.6170804833748051,0.6267491852903722,0.6425940415036338,0.6578939168372573,0.6726500745527777,0.7114320397591563,0.7769473557092614,0.8444742180256868,0.87967919275032,0.8269659587992426,0.742264878195996,0.659745631109903,0.5684426799919047,0.4847643755399744,0.44837111817474096,0.512492186108024,0.5911363811642034,0.6614955071225008,0.6992808256528531,0.7014546439540634,0.6794114216144087,0.6442657197657833,0.6601669120583264,0.6826228023480807,0.685701323548662,0.6744216848523505,0.6708812800189072,0.6765570906269711,0.6938797650094597,0.7060285654670824,0.7096348180472174,0.7238301485626377,0.7319191888259939,0.70937653567379,0.700873372958497,0.7062802721795327,0.7038335055130056,0.7228161787359819,0.7201212560126651,0.7156194592737868,0.7037573292555663,0.7070929031923789,0.7218981534856921,0.7331596882512921,0.732194277931915,0.7091274648135206,0.6859090132167087,No
0.9139094488723614,0.907079540643654,0.8909299585501398,0.9047817742861355,0.9223728460072536,0.9273880479884886,0.914683941179167,0.86072403038825,0.8053904226725033,0.7458311775545152,0.6857884190474333,0.6282664942746934,0.5720482030145877,0.5121326216948388,0.452049957809229,0.39271358392910055,0.33749974928201837,0.2784296771239441,0.21837438545140953,0.1607284680660005,0.12373915402272911,0.15428300189702004,0.21232035095785112,0.2722415501127258,0.3285462437781829,0.38596943562186486,0.44600850754094606,0.5060929526609734,0.5660791859662815,0.6228104699494288,0.6797832964840329,0.7397790725432578,0.798162671271039,0.8516216895285931,0.8823781193008424,0.8806616575374986,0.8680712363857161,0.851295135751938,0.8312934565261962,0.8098828682024013,0.8166271402783101,0.8493916120175293,0.8732628325587324,0.8716887847285817,0.8687663220460293,0.8599871934017167,0.8536453018780255,0.8487223207556482,0.8495583886366391,0.850634381602041,0.8572007585213963,0.8613080549459029,0.8631734164707712,0.8457825110325741,0.8326200724937958,0.8409331867452619,0.8462263145816407,0.8484996777720999,0.8083188171787659,0.7488276491381463,0.6895835384899571,0.6343879849282665,0.5752081060975043,0.5151264922695726,0.4552673599805899,0.399317177055238,0.341483321844905,0.2814271115059322,0.2213463513210635,0.1622757422240268,0.10705338254821184,0.0478559319272816,0.0,0.01906731254520172,0.07423422412370095,0.13078474760881825,0.19075374826803937,0.2508381933880665,0.31079058335273785,0.36719813702456544,0.4245037896669888,0.48453752780855447,0.5446179153208683,0.6036471510563819,0.6588741471097135,0.7181896444488312,0.774475514457075,0.8070074888794074,0.80541221760472,0.7923822400341722,0.7824973069416568,0.763765349992221,0.7421463846380985,0.7440171106740059,0.774641552489733,0.8037180707624703,0.8224644769606293,0.8305552035929651,0.829658764772579,0.8346471012209835,0.8405832930746246,0.8468821525226629,0.8571166881241603,0.862500710585298,0.8618935038904998,0.850383872546536,0.8641887075389516,0.8858841207232808,0.8952924696961364,0.8754103115012839,0.8223955046490223,0.7643968555573104,0.7043357802266776,0.6447307789973744,0.5893488305459262,0.5307116838801427,0.4706358407660523,0.4105521427187862,0.35100204839122845,0.2956876606003987,0.23692957871068676,0.1768548006200067,0.11767576478638453,0.06539208101962402,0.056594058840143124,0.10786016480745514,0.16766691634945796,0.22383994920675993,0.2814135912280535,0.34145949038235374,0.40154393550238227,0.4616258108133567,0.520841015737276,0.5760429844373893,0.635245847580115,0.6953116817349763,0.7535462161837989,0.808660769174482,0.8473017305500627,0.8417606110701645,0.8271384034935221,0.8150926569321588,0.7981542217041695,0.7803580047670986,0.7884352807397861,0.8225620564954099,0.8528820133888528,0.8699968379077401,0.8821670749019797,0.8936473226233141,0.8858742111478943,0.8655033349538219,0.8328413798379586,0.8045147479921915,0.8128325075861973,0.8317314816974009,0.84381493953865,0.8582780907299243,0.873250003067958,0.8774904106128201,0.8455024538522493,0.7905980177602354,0.7338234280476481,0.6772387463190972,0.6269371919907416,0.5731728430674821,0.5462684117522245,0.5933821786549187,0.6533883558191682,0.7134728009391953,0.7735566650553771,0.8331703703729076,0.8885152396416287,0.9423796159233835,0.9584680891593431,0.9255817524508687,0.9074517656367924,0.8876934281876196,0.8708072932948494,0.8800963004141669,0.8822825588675591,0.8793521858364464,0.8716670132630786,0.8618009841314249,0.8576720982299715,0.8509413497465774,0.8525951085649865,0.8459921169598275,0.8358522412915916,0.8143437918467313,0.7833370460551239,0.7611239417994671,0.7753805314771678,0.7975128984305642,0.8115876002752029,0.8238740576790948,0.833721630489902,0.8359280395856619,0.8090263570164988,0.7543825782017142,0.6955130322996397,0.6402907743525579,0.5809364978572327,0.5208853154993072,0.46936429598143964,0.487936879326955,0.5467570054891806,0.6068411340364088,0.6668821261153952,0.7243476320715319,0.7806151532752232,0.8402479689934448,0.8949575155450127,0.926029696128907,0.8998559022473904,0.8720921087112576,0.861932072456165,0.8563679363806069,0.8760752346523468,0.8856858524127889,0.8808102523601504,0.8781138244708886,0.871930481136957,0.8701033145523747,0.8725527595959446,0.8761410418813576,0.8849368477326733,0.8899548530541506,0.8967096328712714,0.8919658988029628,0.8640392843356941,0.8378069596044073,0.8482757762712785,0.8687123216680981,0.8855073378127016,0.8994213744031032,0.9054658815834551,0.9043927851527946,0.873345231958244,0.8195632834732565,0.7605894048241968,0.7024372192002519,0.6887582053775898,0.7387237263883597,0.7986006811059618,0.858260254567037,0.9137064936019295,0.9695820628029481,1.0,0.9725174537322638,0.9494205768881343,0.9341179719444745,0.9169178070297717,0.9272791667624822,0.935408801621707,No
0.22112297110981238,0.2628951785707323,0.35625747423998,0.4318159335050642,0.368493133179415,0.25602554442262226,0.1400526266138007,0.038843251551826885,0.014654742138143106,0.0960970644434398,0.2071165580383063,0.3008214448489275,0.38878705017954207,0.4936615934262121,0.6000656902694241,0.6863617925253789,0.7476942636708888,0.7783015560470661,0.7752684754225467,0.7523566592550512,0.7210157464723532,0.6619709931139255,0.596182137803003,0.5335570121659066,0.4789551477896432,0.47533420255048675,0.5272135237319575,0.6022484453674171,0.670073419364027,0.7188328955542467,0.7462649937138592,0.7402298966899252,0.7255368460272011,0.7262161240448295,0.7405964481760656,0.753222843476189,0.7608870772204721,0.7610336644552085,0.767414237311848,0.778887436558946,0.75985775629829,0.7275291201208018,0.7085872748977913,0.7208214261046209,0.7630425641373888,0.8058626134615756,0.8262550271933806,0.7726133794121872,0.6669208331680516,0.559390443365535,0.4442933960846993,0.33331647256451546,0.2160794496372569,0.12373465669875472,0.13201266747246754,0.23324543097556827,0.342593024929136,0.4569901173468587,0.5686868973867267,0.6716216177061836,0.7465400909306483,0.8033603378002838,0.8184659042167017,0.7961138624325055,0.7702374099791562,0.7499143046765524,0.6992724921774149,0.6414701272419303,0.580243555518063,0.5359683406601583,0.5386815637363642,0.6027070908144898,0.6794709116320483,0.7510282132120145,0.8022981406932392,0.831834208376026,0.8320364965794407,0.8362883059471078,0.8285535652289795,0.8279390190410996,0.8392872207178375,0.8340594485539623,0.8486178379368816,0.8593377120083612,0.8583922466817624,0.8410105517605251,0.8017243704022396,0.78749838225482,0.7867191141790477,0.8183562406066325,0.8782701643295452,0.8847863144408104,0.8650849385854786,0.7696795074425857,0.6524939187700163,0.5422521005829659,0.4233107261527862,0.31252738463895646,0.1970537580902989,0.08555501119513309,0.0,0.03005353496440266,0.1398464168921656,0.2535957238066757,0.3712288275690834,0.4839748107847126,0.5968941602301809,0.7059818882769973,0.7827442158719409,0.840589732283,0.8524623513392511,0.8282032684281906,0.7917227711228816,0.7561774969435264,0.6997087497436132,0.6339203185617537,0.5669495106528939,0.4944064355256801,0.4588282289506487,0.49459562283529923,0.5610324587986044,0.6334079923006994,0.6980919522901119,0.7675005384986662,0.8144108111919985,0.8057905994957397,0.801212214106529,0.7816617831297776,0.7543634061140936,0.7512646836147474,0.7584261400044578,0.7507363445569193,0.7445615046910117,0.7560316045952651,0.7899053423995972,0.8102205542257992,0.8256235099618077,0.8137172010250917,0.8159038998748742,0.8291200198730362,0.8525636024348415,0.8665303352651663,0.8671669218273634,0.8516675667363973,0.7834656573392502,0.7193125925543882,0.6482205323725125,0.5715687904777504,0.5463839956028966,0.604344731017993,0.6791505448577619,0.7464374457738341,0.7997946504915237,0.8385473643189072,0.8802024937351787,0.9036121250143165,0.9233306867786677,0.905026724757442,0.8505585807031371,0.7860692414452206,0.6824652052289002,0.5582196069919712,0.44781831553078266,0.4512816913951938,0.5593282439137881,0.6739017392442195,0.7863228181322222,0.8941807661116079,0.9915406456557161,1.0,0.9499517330589922,0.9331509400568212,0.8714494773411232,0.8528554006237159,0.8726210433177539,0.9030503513397146,0.9203910819772356,0.9111256276378441,0.913895231004473,0.915514588695955,0.9046811947172708,0.8971112901745895,0.8901292634242113,0.8870638905078523,0.8895907221996531,0.9010208329003992,0.895115666136185,0.8707038549237924,0.8249218516738028,0.7668849307633216,0.69026259846183,0.6089201051631967,0.5957498938750301,0.6445076924293578,0.7112692450966418,0.763340386732144,0.8102675159775683,0.8363746970248189,0.8619497448189084,0.8766622744510539,0.8765813748887727,0.8460011464142623,0.7894367632466666,0.7119174526248648,0.6098518733517402,0.49147543667048543,0.4567602697090849,0.5581833957418998,0.6659014166891963,0.7729936724818312,0.877602861741539,0.9348042351423027,0.89591219919707,0.8668229694306153,0.8311034697572985,0.7843831251748337,0.7725443502432747,0.8018022796597033,0.8263368672584637,0.827477471840357,0.8154184077418685,0.815050059188831,0.8173300629080793,0.816549998739708,0.8031029527140006,0.7881744838347786,0.7794966784088317,0.7882910749394996,0.8040341734238647,0.8090792736980417,0.7754068720335421,0.7336002601381808,0.6718020980046457,0.5943645501577253,0.5318537849650684,0.5471850681810406,0.6142861645355677,0.685084763866735,0.7426079550709468,0.7878527861013462,0.8135874104291174,0.8279798026669418,0.8404059952750687,0.8228404805897229,0.7731116748551718,0.7057867393203598,0.6076855452006904,0.4987810198862279,0.4475564666217897,0.527664615214908,0.6420861621066525,0.7512743109330158,0.8544684326176815,0.907661811061927,0.8657684704601021,No
0.8895296611314722,0.8905838546670686,0.8791959250354748,0.8994870843228209,0.9279876658882169,0.9318420219720589,0.9088251381619508,0.8333656152166025,0.7506420832506753,0.6642285284038723,0.5815057938382007,0.49176135372276386,0.4037371375333052,0.32176023458558234,0.2324709774763627,0.1435488718497413,0.062368406458412906,0.00415974797858687,0.04653612719120459,0.127588185181424,0.21426557521300005,0.29670960329729246,0.38635395633213854,0.4737621994709724,0.5560669977951513,0.6452934978982376,0.7277048698849065,0.8011330042700917,0.8558642624293331,0.8670562001351316,0.843616416520717,0.8139686241606228,0.7677647530912712,0.7195442784363093,0.6659563060583806,0.6136290434118559,0.5984461503914713,0.647628003946989,0.7149512167005607,0.7794462779765585,0.8378641051907159,0.8739392026500532,0.8808547389616317,0.8710100716685543,0.8547336547369306,0.8513436003791055,0.8595761032899534,0.8622209290383196,0.8698239829464651,0.873068189145813,0.8731022050987767,0.8750168089390369,0.8756263984691266,0.8566186225853971,0.8730581275521494,0.8992518272854453,0.9128545086715485,0.8933856294987512,0.8196694763644616,0.7336130228392057,0.6515426112190641,0.5637689298214978,0.4754752061942822,0.39361495778690814,0.3044961748897854,0.2160218680504613,0.13423628171913848,0.04744319205081271,0.0,0.0557310398252564,0.1425824661760915,0.22481886318029276,0.31426988035608816,0.399779346629348,0.4836349186552533,0.5726695450258659,0.6545574278383248,0.7372168500419254,0.8036438675395683,0.8497894166956004,0.8507057333967081,0.8242586219514749,0.792814505097486,0.7473223751300655,0.6934160788193653,0.639305811231911,0.5890994900451483,0.5814775780801178,0.6334251589490159,0.7011685255529294,0.77025812556124,0.8249317182559115,0.8536003490708182,0.8607610270607313,0.8512451987261496,0.8392998659663693,0.8361824102755036,0.839642693829787,0.8489873912366319,0.8599605508975905,0.8617184307254055,0.8628178065789305,0.8710244290809315,0.8630185996695783,0.8421584573815539,0.8597439042997301,0.8905545351839457,0.90625157803356,0.9020477815160892,0.837205516957618,0.7550014819778721,0.6698332855195055,0.5821838788531164,0.5000903213650443,0.41063176102124066,0.3215750970352602,0.2501124269111381,0.17956845117333642,0.10577173073441237,0.03086092268961438,0.020189963185535342,0.09205785010715717,0.1745782182671891,0.26431142470132274,0.35452936277969394,0.4447395580805289,0.5329547028289936,0.6147721809110114,0.6998766705855821,0.774466056116869,0.8337104053602584,0.8550755905287699,0.8381749453031042,0.8080101055403417,0.7706589718760954,0.7196751634223024,0.6633261180623446,0.60903436160552,0.5950236682870338,0.6454695038030258,0.7026400974377536,0.7542684877430537,0.8030376943676338,0.8397745967207519,0.8701334248342996,0.8896177337611566,0.889265538303363,0.8524350331907626,0.7870798930496221,0.7072555361923731,0.6257916781132882,0.5462321339614886,0.4722866435967956,0.396088117007533,0.4043871615311807,0.49020467118938016,0.5768174505117099,0.6596976263157204,0.7485436657207187,0.8302959661587215,0.9116720129963507,0.9711142144250768,0.9609513038642965,0.9385512077271576,0.92411179615675,0.8946928504827762,0.8793816871735574,0.8979867935565213,0.9002557348851523,0.8948341172692842,0.889155121329996,0.8882551319175465,0.8794056303309077,0.8688431295263708,0.8665719698316587,0.8742799151333598,0.8867581168920919,0.8883865038763894,0.879118112423042,0.8518501505728404,0.7950127116743091,0.7301044066204829,0.6631749622946215,0.6333357171476319,0.6792394701290925,0.733670788705568,0.7833493120457842,0.8262640758625956,0.8562816495698251,0.8817521267149773,0.8862005947376801,0.856907315128965,0.802960999194062,0.7299833926724244,0.6418552284630104,0.5519682657694975,0.47870581677175683,0.49831322484459206,0.5827643971445984,0.6722861074906477,0.7545516204330691,0.8403238528084263,0.9191727326733379,0.9765335931347758,0.9598860306715467,0.9395638050576978,0.9239055433539827,0.8999673971390245,0.9051283521052154,0.9100663933693267,0.9017265572815973,0.9003901112174473,0.9001203061404184,0.8945828173348658,0.8943637131138122,0.8893000611678366,0.8907380853937561,0.9027157864981343,0.9129109090019918,0.9188330799551798,0.90178623772126,0.8622392553825862,0.8046057413158814,0.7353619205276629,0.6690330073497424,0.6479319841894144,0.6935249725105106,0.7511562794986424,0.7969586109760611,0.8400925525389071,0.8715463496586979,0.8951216935219355,0.8978464904490684,0.8694175924054686,0.810604700556441,0.7359400530434783,0.6512158485340673,0.56815104220968,0.4818535569868243,0.3955138606220734,0.38709436026536315,0.4705350075935204,0.5607400456816589,0.6497891807028369,0.7316092985763067,0.8189430368494861,0.9001306761183987,0.9741538243851506,1.0,0.9700889715149152,0.9659270490693537,0.9446621227698566,0.9205147828291498,0.9287739676858691,0.9273020412759767,No
0.9045213795909199,0.910791459344537,0.9097179338695058,0.915230500431029,0.9163290738523517,0.9136541492265777,0.894601071663889,0.8956428745090703,0.9234930040834981,0.9377855267066431,0.9418015552523202,0.9062579958687871,0.8358373689931651,0.7544900350980968,0.6730966614298675,0.5977927992222543,0.5194134699015507,0.4377355336159723,0.3585943987009812,0.2838553313744312,0.2030948235435226,0.1318044190084503,0.11150127337471805,0.17004121368221237,0.244879047472085,0.32606442922934553,0.4023782465597603,0.47962491306692967,0.5603299852554937,0.6252925507568565,0.6946354781174156,0.7753039583980379,0.845493981738721,0.8919024086076566,0.9052273047749158,0.8957270439815697,0.8759517341870473,0.8449026160808832,0.8116304171167827,0.7899127160629864,0.8082205275317218,0.856739976515174,0.9049872206401688,0.9224999154702449,0.9092538276853872,0.8913202936417146,0.8856863894912383,0.879974479998276,0.8840906169394069,0.8893523150604796,0.8893389500541153,0.8885849115426425,0.8839923236287928,0.8646716558646708,0.8558120183214877,0.8832936432169602,0.904380518249652,0.9126436457997753,0.8763753899695537,0.8034656041703514,0.7276786845579322,0.6502206733320033,0.5698295778643665,0.5027999599953223,0.4475389886332293,0.39304931652234476,0.3382403049622731,0.27600144819919237,0.199925069349299,0.11923665369484049,0.05600351249316571,0.06905172829801987,0.14385344443415304,0.21782893325657127,0.28865600214619747,0.35686824141957696,0.4321415709232399,0.5135729056444311,0.5925165111066215,0.6673602595882477,0.7455934465595251,0.8123085755463115,0.8578446777764384,0.881980079317018,0.9055552540118956,0.9017851215202086,0.8728340212034045,0.8375846685453809,0.8049482745710546,0.8020668274299876,0.8455074431250966,0.8996753105251438,0.9383767600594066,0.9435441614982074,0.9325394181404421,0.9201675823469295,0.917069313290843,0.9221768493283835,0.9233297533110971,0.9293027747115796,0.9327270655579647,0.9315332048073881,0.9028018297673555,0.86874684945374,0.8650708084224501,0.8931017488746702,0.9097013478758242,0.8988540599935826,0.8456035437655056,0.7722902731978456,0.6975008058419763,0.6162976436902596,0.5385659711568134,0.4627034515053743,0.38120197737950434,0.300927522335694,0.2267420938901712,0.14622725581575868,0.06881657276217579,0.0,0.002078926934368619,0.06953822733021464,0.14850882080248728,0.21738553838196517,0.28510467420951846,0.36389316541105954,0.4447173625966008,0.5190571633151513,0.5979902205857721,0.671973833067893,0.7422793317007561,0.7976412900223111,0.8358003752435952,0.8580638382989858,0.8951516167592484,0.9383502200465179,0.9560115953901647,0.930712705219779,0.9503151155269152,0.9902221873463328,1.0,0.9651955696134069,0.9236723943294991,0.8854505590394888,0.8618417149676438,0.8251680235631063,0.7755987623557419,0.711279656303063,0.6379592541668728,0.5583694619807495,0.4840560282829469,0.4043481720657889,0.3456210346092796,0.3767290167637114,0.44152552622135177,0.5108582334021607,0.5919814502935277,0.6737020982188091,0.7532131896993732,0.8261838261073715,0.8969586752029599,0.9475678399401042,0.939781656920867,0.9443411335990848,0.9287027253835034,0.9023779934299456,0.9136914074069273,0.9468828285237585,0.9604019572503042,0.9609627446096678,0.9568287598067029,0.9507841701962783,0.9447805076691616,0.9482145381162472,0.9584591782615541,0.973860904730123,0.9798377998603143,0.9609807206629613,0.9169882337425164,0.862568092488949,0.8304231502301582,0.8552515075078104,0.889240832059847,0.9211595983557841,0.9389632509271797,0.9362090304136343,0.9091419208859313,0.8875216609501604,0.8467510097726112,0.7852693813658571,0.710289940112558,0.6287847424119528,0.5470655554606687,0.467606860344167,0.39517069559146223,0.3761942483987857,0.4486049770051823,0.5282204469471532,0.6026512434459148,0.6836039792309694,0.7622218591308771,0.8370317275582981,0.910950527915126,0.9651267636662821,0.9544187602871452,0.940073127556293,0.9261050076542263,0.9021093060521594,0.9017496045658582,0.9126238326227938,0.9175232505166959,0.9187810514985135,0.922965827567102,0.9142792734505942,0.9110018734659446,0.9161013042684671,0.9261651136565858,0.9413454044069436,0.9496273066580152,0.9341869786650359,0.8908774572145501,0.8416202685223464,0.8248837385734786,0.8509900167439974,0.885685401569065,0.913066541206258,0.9282224939635646,0.9365027614615895,0.9286529493778419,0.8914790517413227,0.8306803298105947,0.7591913773896728,0.6835105989451413,0.6173100064525916,0.5470641630124784,0.47746110242575757,0.4912180212935684,0.569733668757737,0.6485459590945952,0.7235017740551297,0.8026740371626857,0.8762229514688038,0.947053883027615,0.9908924249246356,0.9747694056926755,0.9627510048275836,0.9459299562281474,0.9224062788843304,0.9343248084596123,0.9479481898232796,0.9466487787559588,0.9486546213102696,0.941490046572494,0.9392236656719719,0.9354808059039472,No
0.024317668728682573,0.07464435771228795,0.1856179605523658,0.2943367675203925,0.35384403085497196,0.4054911405483952,0.37442248529114286,0.2786954145679146,0.1639733679659261,0.08547071877639434,0.03265973235452391,0.05208793599305661,0.11561562214277066,0.20239518977109583,0.2717679044374264,0.37636686427987254,0.45159828314774675,0.5449989456144064,0.6163958856051845,0.6569734953918633,0.6788578370538207,0.6654370045978792,0.6587798184056952,0.6520457017096115,0.648442587185845,0.6221939885453298,0.5971642899700149,0.6296433469776672,0.6683681589947432,0.696812879773915,0.6327140482344862,0.5106582150883887,0.3831452521915555,0.2494408801009742,0.11749033311867096,0.0,0.015047562547260362,0.13599851150915088,0.26662496013983406,0.3998732560718281,0.5341179769855047,0.6727070305831706,0.7654612211003293,0.7060574843460854,0.6502871829558776,0.611297585031819,0.5788270110794929,0.5279637777278605,0.4553433670870177,0.38774242047522467,0.3491137060672682,0.3698457158266355,0.44120237714284505,0.5210716480992637,0.6042317384344726,0.6737356234704626,0.7126948328117186,0.727886702119013,0.7283283791598683,0.7283253038264261,0.7258224842155023,0.6958393852074152,0.6644052886169747,0.6830106329243875,0.7194159703800262,0.7387683160216105,0.7110861443118237,0.6013418767949568,0.4724282732928433,0.34147017947171365,0.20456022117606487,0.07732718425581053,0.034336962204673416,0.1305621978899878,0.26483632141303204,0.395544019345492,0.5367478434594557,0.6677233324272533,0.7885491424892632,0.7811228727548531,0.7510765887565967,0.7211573813166878,0.6746811562566077,0.6237005787763863,0.5602639484898342,0.5113641452844377,0.48364540391457167,0.5315257394824808,0.6042961569208449,0.6685352142530352,0.6970692055660948,0.7032822621897856,0.6859462722852885,0.6707203449465573,0.6665647596245572,0.6870139685597834,0.695119574540958,0.672845228949142,0.6820031603462149,0.7188984977641342,0.7360397110644743,0.7075498229355768,0.5961261650778176,0.4668419380243236,0.33634874039147,0.20623026919584309,0.10400508854811585,0.14394679886075767,0.26533434529968103,0.3949211770901173,0.5285334271613569,0.6626007809996892,0.769255463913221,0.7494169135214483,0.7283314550425675,0.7077009860381125,0.655002743710078,0.5724674663507732,0.4615815713012843,0.4014638137249693,0.36023010660112353,0.3667579299978181,0.4329772839580235,0.5097395527032034,0.5862855080624652,0.6118589055547519,0.6125156245192533,0.6076030459983883,0.59330467696374,0.6125965646725788,0.6331965022684356,0.630533529062109,0.592112081814288,0.5707731294716902,0.6081475566622756,0.6675776893065635,0.6714807948258801,0.6531526354710673,0.685315726773013,0.6965089879281177,0.7188573063339727,0.6871166198371998,0.6613358694513445,0.6669689418785385,0.6681144784430129,0.6680918427743983,0.6616906358962846,0.6084743313574581,0.5319313393708396,0.4630321084675155,0.4571347612789185,0.5188640571953567,0.6194304606805208,0.7055266974150696,0.7621260889615722,0.7988541461444787,0.8151198436744891,0.8721421571911461,0.9507737550123889,0.9166321789014948,0.7970489277727073,0.6582891285760555,0.52756895431247,0.3972442115325099,0.38772300186401676,0.5235328108273176,0.6544480576703489,0.7665510675129052,0.8165517714474064,0.8013415363500749,0.7799057897983679,0.7530037383227182,0.7580492027497145,0.7604124746233527,0.7469847387169661,0.7300497710329243,0.7400682206964206,0.7638033128769837,0.7773732509023521,0.7579821241088793,0.7337710800828683,0.6862391189895045,0.6076256353661913,0.5715671083695084,0.612673713263876,0.6726451604180546,0.7265086334480397,0.7740044904533816,0.8061560896519411,0.8330043457327405,0.9047403634839637,0.9970461221227596,1.0000000000000004,0.8932062103338878,0.7601834592561003,0.6264054230310769,0.48647365018627386,0.3555885997829793,0.3975556400692697,0.5254710574467372,0.6507379973498444,0.7667916900728007,0.8219989924961424,0.8064363123156588,0.7770530243846934,0.7475291816072995,0.7609432417869937,0.7826586522824206,0.7839086952325149,0.7839095332963755,0.7839094721778008,0.7833779141842734,0.7635782058171596,0.7082241330485819,0.632901388526979,0.5523258242712221,0.47735623872346133,0.42943142273516655,0.4714696416526203,0.5410434785698937,0.6102555788520787,0.6515205431061677,0.6877597329563896,0.73308646718908,0.8064514835770402,0.9184103926296481,0.9992946766538817,0.9510648065337581,0.828236483366267,0.6871156971662344,0.5562771249013272,0.4263954191847339,0.4517990836887833,0.5758667958783641,0.6971675074295578,0.7737873179966361,0.7657246740520698,0.7390655975716194,0.6940249980705011,0.6808397079065998,0.7185597920937346,0.7323959503168482,0.7160295016110143,0.7186826728103792,0.7516859719724018,0.7547185043423452,0.7172902345780048,0.6809311093694599,0.6149886424993101,0.5331042226971205,0.4639733241399804,0.47209690851178765,0.5319779218952769,0.5973597228170764,0.6471700907558149,No
0.8440697956114028,0.8893991860354297,0.8945572463084815,0.8257654830501985,0.7543631212539449,0.7072595721439473,0.6456748121539143,0.5789558317068692,0.5065762336759748,0.4254307058468684,0.3420126263226769,0.25923173145444534,0.18294401903041824,0.10199646474285762,0.031303116177508694,0.0404251105758906,0.11191120075677552,0.1948178569054665,0.2765588860327527,0.35253435150587353,0.43498515542652794,0.5184053579359019,0.5965974478162749,0.6130232996255739,0.6067630982356612,0.6386016006112573,0.6847928837113334,0.7432879495651482,0.7988314465641889,0.8631452655176338,0.9251729369731144,0.932760342461311,0.92971712609894,0.9190607998263619,0.9088506949096576,0.8779085610743796,0.8446192162910239,0.8329041415613386,0.8566352998285266,0.8824786001053363,0.8868587448225137,0.8842146987692187,0.8697730824568525,0.8704617905176911,0.8796451264696327,0.8865167208411614,0.8884502910699891,0.891264844204943,0.8863139595830621,0.8586667387562542,0.8358534007508672,0.857068000317278,0.8802129443369339,0.828620535082185,0.751139265737739,0.6722290886630214,0.5891488706992273,0.5117328629187595,0.4321100788541651,0.34883559728554825,0.27014413663050585,0.1918596571859995,0.10860721183320421,0.03010751707613568,0.0,0.05602528400801787,0.13743460146312692,0.22085925438373544,0.3042909993594892,0.387722744335243,0.4711464958891346,0.5527122675637693,0.6287595508239113,0.7111465513323855,0.7891873281776519,0.8657181981182321,0.9119781653111981,0.9016981143355837,0.8948456613133816,0.8897103382869905,0.878510490258699,0.8447541622884133,0.8076864720065723,0.788351789183071,0.8106840644293268,0.8357726985438375,0.851876969399637,0.8481116190831363,0.839161977514027,0.832539315241314,0.839359113196822,0.8494853360662363,0.8598865224700102,0.8643128925577362,0.8681456827916082,0.8436087155807778,0.8323059548801589,0.8630233447891057,0.8682869647508139,0.8018803724283047,0.719348975103343,0.6428505451758771,0.5620788906817747,0.4786922805976891,0.39817759737782,0.32149354800036944,0.23850998386719102,0.1562758613663664,0.08041539098149408,0.010061624226720856,0.022517392467252706,0.09600933997937644,0.17447751209276297,0.2577854530890592,0.34121623504252574,0.4238155871863113,0.49991515401008557,0.5813856317682532,0.6647867585180084,0.7454278377785722,0.821074022001205,0.8909814972881068,0.9313467385034954,0.9196483974961344,0.9147020630852213,0.9122230960144498,0.8947598015635457,0.8604494224989928,0.8332850063531264,0.8467059404291483,0.8778390359611098,0.896853228381325,0.9016541657764331,0.8971006096213391,0.8951411769665755,0.8993798741522167,0.9120435445176908,0.920816140233026,0.9221019162567948,0.9254559253351099,0.9206488388869362,0.8860928544171042,0.8708929689974324,0.89130023977404,0.9298707305158166,0.980871911813619,0.9871011057312401,0.945255294024698,0.9140026684242791,0.9252547557085263,0.9613118347888988,0.9680282793381404,0.9570103182659343,0.9661831379146354,0.9635187311453849,0.9486214870556918,0.941371632317035,0.9360901393573927,0.9400815467679756,0.9412951625745315,0.9333613142849256,0.9167892420923912,0.8879248293252685,0.8773211339581491,0.9076152755003372,0.940282350485527,0.948809076598952,0.948889822538033,0.9553724811652787,0.9904280516723777,0.9912121785573776,0.927645799038575,0.8528835538254979,0.7760612571384228,0.6972302797367226,0.6169211327104241,0.6053431219478295,0.6812965723365537,0.7587024379638715,0.8377198241416145,0.912256313861704,0.9575385961865351,0.933372674401386,0.8921803794376225,0.8700914738653157,0.8942298631928923,0.90796796549915,0.8949707682769065,0.8858325450074954,0.879245734151277,0.8718697471255169,0.8753253199702048,0.8821612859704911,0.8883278797312503,0.877397057459736,0.8635515642973272,0.8373488229535241,0.8371495385237103,0.8732940732660187,0.9143136959182513,0.91996216674651,0.9283967875438656,0.9391192593113241,0.9658518198307403,0.9901397644611095,0.9375584831511289,0.8574683511022535,0.781322545259976,0.6990404722209315,0.6221087977347076,0.5423384094207205,0.4926547810485057,0.5480538155697184,0.6245156933157042,0.7074956377212139,0.789736431822991,0.865535013220455,0.9379500577044967,0.9541349785094727,0.912582735816602,0.8821128445478025,0.8960860545736565,0.9211947925906839,0.925838378869111,0.9279715105024154,0.9245224396991226,0.9181477275866338,0.9130832364479061,0.907598092962331,0.9100998783060495,0.9256538007242477,0.9212776059419353,0.9176912335743593,0.9018534991845414,0.8751408566838904,0.8871184323686122,0.9248176378842164,0.9519996678208952,0.9558648567027025,0.961909097324923,0.97889503184458,0.9999999999999999,0.9540778770981867,0.8812059157753999,0.8059896044580429,0.7284748385663077,0.6567708888533034,0.6665709190364627,0.7463653366102324,0.8234068526849755,0.9021760829043431,0.9715161556591868,0.9826707771815587,0.938580975266749,0.9027106004947193,No
0.4514089308715683,0.3742535481833593,0.2791914886133815,0.18384039567514754,0.0952835703538788,0.027555804181722765,0.06202414310137683,0.1408577684345622,0.21565835326645888,0.29986264159357834,0.39388847555709705,0.4831777964357149,0.5644392965373928,0.6168281566972125,0.6990373432447934,0.7853624084055755,0.8570752699895452,0.8628853728476427,0.8421135444418859,0.8113965820864222,0.7778574148182316,0.7316210398147949,0.6788523047576696,0.6237399016717027,0.5724463989288051,0.556301154698134,0.5979828110615841,0.6567936784558206,0.7169961530170188,0.774929080342502,0.810153881467248,0.7971019364668559,0.7746592809725807,0.761883303069743,0.7447213195773872,0.7411270675435568,0.7506001331951186,0.7524048089241722,0.7476519030997981,0.7412639955287899,0.753054890523077,0.7663726433324729,0.7777668733100993,0.7907599193995882,0.782424226211502,0.7612464792486999,0.7752579786831177,0.8230416870801387,0.8527959668943834,0.8056123477906867,0.7184879121898893,0.6312297765342507,0.5361572340300365,0.4438702312919576,0.3572052947762172,0.26231254229932377,0.16681213996725308,0.0757149085530946,0.0,0.006891656598951634,0.08682480531013215,0.17511654975369928,0.26427660644954365,0.3592892332528861,0.4468170964221061,0.5328331386650089,0.6018911127248134,0.6876267422979125,0.7723662905357045,0.8369440665280552,0.839167135834378,0.8194679054949014,0.79649085824572,0.7599130268567291,0.7087027883261843,0.6569254985707447,0.6103470188269449,0.5895824083263723,0.6232919018136542,0.6872883371000318,0.7510252944079789,0.8089835139061752,0.851292673460611,0.8669098862606417,0.8677631888910582,0.8701782505131439,0.8869825107056923,0.9045573310676362,0.9177624379015159,0.9205085345194,0.9215437779881201,0.9249229192944564,0.9318213437721037,0.9354261688306502,0.9326938347252332,0.9380397565638938,0.9265031279235345,0.8992189583827572,0.886104019541367,0.916075622523562,0.939342982045354,0.8881982615529262,0.803945104726502,0.7124392043710135,0.6263880908978279,0.5320664003104594,0.4365238329286878,0.34097914474238933,0.24543445655609197,0.15022640738819715,0.06948884410041734,0.0602150402843975,0.13305790449657962,0.2189138250162026,0.31304729798959663,0.4001391173316353,0.49175668341295875,0.5815801787630404,0.6698553366418836,0.7568801334423119,0.8431974723954425,0.9044570575406221,0.9006792169194358,0.8758066357827141,0.843743199194859,0.8041658788445589,0.7574121207855808,0.7035165458881896,0.6476763133579801,0.6070097821317166,0.6162746127529566,0.6666516211576188,0.7304611976609994,0.794633362316153,0.8455572404169873,0.8650684731518397,0.8596463922161648,0.8628201110183638,0.8947708786673474,0.897820860842973,0.8849569543884062,0.8433560196263634,0.7856316585770002,0.7231172381251214,0.6637161959773663,0.6528968507544126,0.6993446738589435,0.7539022548195995,0.8069943095817569,0.8502179441771631,0.8869841056584551,0.9153442970515184,0.9375132351590774,0.9671645567926535,0.9811553406028997,0.916054122941717,0.832854333502486,0.7467263178726842,0.6587922474988395,0.5725632376904783,0.49327135186263527,0.5273298139481897,0.6210970631666368,0.7099220022240951,0.7993086767102804,0.8867853894218511,0.9720266146931003,1.0000000000000002,0.9773380892729533,0.9426763169141605,0.9352723481172476,0.9648129621667236,0.9751894307688171,0.975356691935169,0.9753461189427901,0.9728866838939949,0.9668232457464903,0.9639306761155957,0.9665027035367924,0.959320791613157,0.9460981661317847,0.9317314686906288,0.9145476222465174,0.9113224794843344,0.9102878932207064,0.8969702696387063,0.8675687177187219,0.822450061711238,0.7628272088226156,0.6912868848002649,0.6377819119370998,0.6406579376118122,0.6915126729085523,0.7444545637037312,0.7926192800097229,0.8300217807119108,0.8527085534378014,0.8712707713977836,0.8952639989229019,0.910937812130747,0.8515963486620037,0.7656274111652495,0.6793886192625032,0.593188025639608,0.5010018085605401,0.40551339037325307,0.32206583744136563,0.34970583519768583,0.4428890808786703,0.5302809688982921,0.6215946159985444,0.7132235511149705,0.7990646424699428,0.8811269407601048,0.9254596230360905,0.8947243793444104,0.8580788825717109,0.8130702744618923,0.8133490377013224,0.8309020550382333,0.8218870554127424,0.8073700389060903,0.7948535008925968,0.7844636006984407,0.7832605400694981,0.7877324839465236,0.7937229578686467,0.7811632439356095,0.7778347939968,0.7917173294538078,0.8132598350500528,0.8328705139052872,0.8460258392218301,0.8269785229382187,0.7802546687713254,0.7242289884334718,0.661235105794719,0.6074071153034633,0.622746654189098,0.6775177429492598,0.7344005263550828,0.7834339771613739,0.8249242726435788,0.8555968604263844,0.8822351990119077,0.9044323838696082,0.9442081749705526,0.9304393201220791,0.8549812019938503,0.7709520544828325,0.7025881977480088,0.7229086568395446,0.805585954647744,0.8937656745024973,0.9647919660115785,No
0.8655829971219628,0.8204891268815404,0.7842406103240263,0.7564470370833771,0.7747189725662855,0.8204415702267667,0.8486049744638755,0.8592701104658567,0.8941027347135948,0.8818963871692571,0.8899353474371592,0.8864825398822693,0.8599210332893563,0.8191334928649454,0.8243699253199808,0.86433760010309,0.8977018419840939,0.8882717360578691,0.8033699357631618,0.7024974097575949,0.5957140398747358,0.49249326149353645,0.3843426443698228,0.27873779510781804,0.17354503847646785,0.07428316885527408,0.03698458681512995,0.11421833137609694,0.22248884134830793,0.3314269622816528,0.4342357175023588,0.546694846930867,0.6523912675456749,0.7570029089032582,0.8537045029802262,0.8875402381103494,0.8675901774927584,0.8375781857876261,0.839454778774986,0.820198579430625,0.7784609587743592,0.728950361830585,0.7073669656112271,0.7311731503752734,0.7784254312324983,0.8204525467996688,0.8207973301345366,0.8437192018315998,0.852587603075676,0.8504026023429578,0.847866099376444,0.8345116292175228,0.8170373901387784,0.7851634418538087,0.8066707610358292,0.8474614909533102,0.8958393430764684,0.8923610677747777,0.8032727187376711,0.7009134584517065,0.5934407216622202,0.49009343990107346,0.3834159612420136,0.2792571172581202,0.17345259294800597,0.06953345319583404,0.0028688718339020536,0.05795694969722898,0.16537222098131754,0.2670429830118435,0.37832990833783087,0.487265516873977,0.5901014049109488,0.7023648462546415,0.8062898226032302,0.9046286138553896,0.9172861120589253,0.8869199323883137,0.8642448946606642,0.8602482159440126,0.8604457397522565,0.8344412368793159,0.7963185979706819,0.785305402856191,0.8222639106020451,0.8635464931437464,0.8889311701076081,0.8916778161627714,0.8774441135545417,0.8742951242016501,0.8622442087677336,0.8669766221275259,0.8434722749704469,0.804538531409648,0.8172263186196236,0.8568582314249362,0.9071374704611757,0.8838908687850082,0.7917199210387771,0.6900826983751724,0.5814476529894488,0.47642067045641157,0.37012520188059406,0.26261350195095523,0.15897802139624329,0.05637185282759383,0.0,0.056083873801825,0.15900434897236582,0.2720612035445218,0.38537138495181167,0.4986809618328911,0.6111393007042139,0.7135770656501281,0.8208099913768259,0.9029471074423887,0.9098148973344815,0.9056868299509089,0.8772642518190581,0.8650324199381128,0.8218948520483169,0.7633478581029915,0.721980828060363,0.7229714944536483,0.7533152768982483,0.8011936375603173,0.843735047038513,0.8674094171241127,0.8744037491194823,0.8650059028350416,0.8683279434661759,0.8617594433768765,0.8752004668020572,0.8571191350297218,0.8220581461557728,0.8537057503108227,0.9032054583978828,0.9303360702242804,0.9220330718819276,0.9243667261029731,0.9260940643618876,0.939235297594504,0.9211577883804953,0.9102484047061956,0.8901897413195987,0.847321145824915,0.801742356094097,0.7849872224753327,0.8024690152893867,0.8518843072619615,0.8986312119474118,0.9225717566238572,0.9453355704027626,0.9571626351638296,0.9950465548188381,0.9901571886771612,0.8985110316942067,0.7952140271463872,0.693664106587627,0.5830066353012275,0.47501766218893615,0.4000487413681666,0.46169148578571906,0.5647720403884116,0.671357102468989,0.773237699066079,0.8771468260846744,0.9569988596490846,0.9709894188705064,0.9478225378768357,0.8977101031549679,0.8732473968075947,0.9038961836009574,0.9339990836977197,0.9440479401526713,0.9444757503686538,0.9470901518981167,0.9520557632288738,0.9617526622636172,0.9455082116673694,0.9135583576416477,0.8687736560676991,0.8385937551531384,0.8714238353710393,0.8999108492164265,0.9106490112411676,0.928448613581691,0.9205650370841003,0.9491428144213325,0.9796836718048187,1.0000000000000002,0.9342577255995008,0.8341488068626453,0.7270884718277306,0.6203377904456733,0.5157357365117827,0.4083392458507136,0.39865740893831636,0.4974213597300954,0.6105281071023569,0.7236662957238382,0.8293009977039609,0.9254989691176705,0.9835913434694585,0.9682234741289932,0.9307595597864589,0.8849333121435883,0.8591583927419431,0.8829326172236411,0.9018001570893055,0.9009653260406589,0.9123708123314846,0.9207160851356571,0.9013784355118737,0.8973291550865741,0.8682474404613363,0.8239444852848778,0.7808740662915128,0.7744956763518667,0.8188587068281665,0.8632927668521091,0.8835327817071861,0.9079915766855471,0.9256856578164057,0.9402585239154726,0.9730214692525434,0.9740496955972924,0.8899254337875384,0.7881221502259732,0.6756594652648904,0.5625290039726638,0.46748876077911583,0.4954584417848069,0.5946976479011947,0.7009090404339628,0.8015770183752104,0.8992816425864991,0.9703142008044223,0.9564856535167172,0.9443255570133198,0.9075521093911625,0.8876302834044443,0.9139814640692696,0.9404096228153576,0.9418409150832352,0.949201590949752,0.956005835952398,0.9383347775055613,0.9191942735667615,0.9006799302031518,0.8598052835772811,0.8233866850832581,0.8413113639682386,0.884357963671383,0.9248563632809701,No
0.27875493013655483,0.32556355073953713,0.4129925364631404,0.4846417142937416,0.5432898964794679,0.6296537862432776,0.7096991190124291,0.7749458634022559,0.8042134053318926,0.8181238391778372,0.8095895666371378,0.8090229116303773,0.8109526230826767,0.8145772817274108,0.8163805122188201,0.8089279863057544,0.7778886152096554,0.7648064991495802,0.7815138655867144,0.800441735773237,0.7766772056305566,0.6839939619741922,0.5714774823812918,0.46347024143324966,0.3567748090999874,0.24470827884934754,0.141436415286033,0.03812661488642233,0.0,0.07567867460648858,0.17874265210787788,0.2890512356665671,0.39807316784987656,0.5038095042977611,0.6173401208077125,0.7207836113188335,0.8227892212249894,0.8206729340651056,0.7643455225774829,0.7298068989721747,0.6954867383574934,0.6540285047633223,0.6012633738573638,0.5360407716462758,0.46244868489904456,0.39673859548279133,0.37304458038318944,0.4251848249000234,0.5031850511175378,0.5798412290523951,0.6488975341472483,0.702265305273819,0.7109843196180685,0.7102629558182729,0.7133993241641832,0.7134305056154171,0.7146821371301095,0.7263493875391422,0.7250744370183348,0.701492063887853,0.6854953948057745,0.7014592465820264,0.7356012628315425,0.7255939869152586,0.6403918650081339,0.5271624392556091,0.41873099713512896,0.3127819781801928,0.20728319967724373,0.10037857090597435,0.027767024539771645,0.07199773272012844,0.17442446114364407,0.2818241054789865,0.3878501749098062,0.4960083445760788,0.6013409506553076,0.7091405511794984,0.7624368729036906,0.7236442847541811,0.7026991300473011,0.6701433312063465,0.6287025701531921,0.5749486002820297,0.5103324637270503,0.4437744578230156,0.39176149405552585,0.40217403112255057,0.47266448654579096,0.5499284347851952,0.6294065025257825,0.6960350319948498,0.735388631510985,0.7450162914146514,0.7395068784771335,0.7217978225482857,0.7133486365005612,0.704515649330409,0.7004818078498583,0.7102870258211855,0.6899495810546978,0.6698467745639809,0.6917887416929254,0.7208663670746354,0.7304114580341567,0.6703573285321542,0.5915782721360381,0.49007543416903965,0.3862926990844484,0.27656097200463114,0.17279138629446922,0.07789660480971405,0.07209577042253001,0.17209418101093443,0.28641053738948474,0.3906125874093467,0.5010055753427756,0.6059120913778833,0.7137045302617835,0.7664669188029067,0.7244697305872061,0.6992067033345972,0.6837162633016429,0.6465231560984515,0.5951914655462567,0.5246507554089856,0.46208502228079307,0.4207461592558046,0.4463489371662879,0.5191607747823463,0.5992002924973925,0.681525324153079,0.7554106289409319,0.789729171960537,0.8288909211601021,0.8253330887146919,0.7870329399908351,0.7147493703859114,0.6376896658188522,0.5570943167801892,0.4903892148457263,0.5058647527593181,0.5707199290575742,0.6348803363604143,0.687492601331287,0.7222978246271403,0.7381156972106162,0.7692527921095567,0.8371127121500479,0.9189866083012384,0.9375635098089841,0.8524418874075839,0.757761765081008,0.6793527928188057,0.5850878221725406,0.4746178498587803,0.38409497658909264,0.41358880277567045,0.5175280275323362,0.6202438712276261,0.7154546047921737,0.7761826128046645,0.7760483170567036,0.7556685803412477,0.7274363585844592,0.737394219068465,0.7510939927215106,0.744705097129368,0.7470954805102903,0.7558675740561969,0.7639669898818788,0.7780879596515959,0.78347332549152,0.7834050832500503,0.7719348658338243,0.7185796614001412,0.650403224223669,0.5717362660542575,0.49013719061290284,0.45308710560239907,0.5001985709232712,0.5681830859780976,0.6302200882201829,0.6775958495033538,0.719608118629435,0.7469467073798473,0.7745222085434087,0.8436387974346846,0.9166946795168627,0.8952858848496705,0.8027416947778783,0.6964192184149558,0.591957083026909,0.4839828498545875,0.4766874328804318,0.5768878579278314,0.6790561195309521,0.7682074191570039,0.7907235609607179,0.7725524930563659,0.7447228702420368,0.7430760938602858,0.7636591096021645,0.7675653496536887,0.7652734516950443,0.758094481315178,0.7567836904656036,0.7524811369820121,0.7516650162460283,0.7515215837211919,0.7393743060281579,0.689155900661121,0.6232121846330505,0.5460389641242769,0.4617465285031057,0.44169371038830385,0.49982846893379906,0.5742521711330426,0.639435926592484,0.6904728459639158,0.7329753054545229,0.7679977910383695,0.8063656667372034,0.8632191359946246,0.9299164645286513,0.9999999999999998,0.9726468946250317,0.8748314575460647,0.7684434581032338,0.6646855622530075,0.5522618429374615,0.4564104477606048,0.4620697896786681,0.5597334661436861,0.6629216438308088,0.7646027172802923,0.8358908052714631,0.8448109840466504,0.8285224970929803,0.8141399140541739,0.838899425348697,0.8604613075689336,0.8588417790224987,0.8605567809446757,0.8496037288586671,0.848231472415929,0.8595945783653562,0.8614422360514811,0.8429118439193666,0.8115877557476707,0.7531532868214363,0.6764289353805462,0.596291288100151,0.5149362938760988,0.46426518106876435,No
0.827956507709825,0.8720921099573444,0.8866969095288069,0.8641165222319902,0.8459836456531717,0.8528527768731444,0.8797240799929535,0.8870807041295266,0.8737044816626784,0.8669468628181551,0.8858943525426839,0.9228815715540133,0.9151813322691837,0.8471329925372115,0.7548706792080202,0.6628634726279228,0.5766231846882353,0.4830323615579848,0.3886529840982025,0.29771157753515287,0.21074898239750306,0.11706374802311803,0.03341017001309998,0.016391261346583974,0.0903885151745456,0.1841303935126588,0.2781134116336377,0.365156183907003,0.4559982346632363,0.5503555150017434,0.6418950695740897,0.7284239517396409,0.8221976129632875,0.9112298660655831,0.9322234445635202,0.8966326136232865,0.8641042958194285,0.8324491954339306,0.7900179405565422,0.7414334423107234,0.6844829016645617,0.6279229882830875,0.5949382131509742,0.6189766390673686,0.6777874009885203,0.7452397098348562,0.8075053734751616,0.8575914489907737,0.8870891854488205,0.875707179029731,0.8507214089102946,0.8423590165297425,0.8549420852058434,0.8671632886124734,0.8580147474480466,0.8435185558450677,0.851607614321664,0.88478261061621,0.9084273502058067,0.8835428759794126,0.8042632483642953,0.7108333910913378,0.623947827112139,0.5330645029931147,0.44799970433464886,0.36728500268089537,0.2816004039731066,0.1895347876528346,0.09982638111951725,0.044929335848775676,0.0891764584566146,0.1798950286115475,0.2732470977699881,0.3593428601456974,0.4517192850184102,0.546125367063887,0.6405394629063852,0.7348382258067323,0.8239583174580274,0.9057984989632946,0.9261871685619334,0.89214460008322,0.8613204116657456,0.8292742816517453,0.7868718992335326,0.7357248104458405,0.6790786265700992,0.6281825052966254,0.5986148375879661,0.631149072468145,0.6899396169026037,0.7599903165088713,0.8227367033159294,0.8712131078098841,0.8947565176833403,0.8875243933690475,0.8683410810408649,0.8643687208539617,0.8764236956454365,0.8833268228535731,0.8796837267947808,0.8645356751130469,0.8819624316841934,0.9095001504062559,0.9090363556923624,0.8666348043636414,0.7817479654425241,0.6917122291933009,0.5973702579481306,0.5051909712903786,0.4190191331107269,0.3255262019642249,0.231379787888097,0.14357820890862238,0.05467999871978302,0.0,0.0573068699393231,0.1426823054939963,0.23581438318996928,0.33018814683143405,0.42096327330346983,0.5035112694828558,0.5811537062052916,0.671196511373571,0.7574530638573689,0.8470333811460669,0.8908392600733068,0.858846038342453,0.8232289584408343,0.7839455646989015,0.7470724534662951,0.6998540737868948,0.647723752942369,0.5940398339909474,0.5538653465323637,0.5699358697079353,0.6289493328563143,0.6952622045479186,0.7617616673862946,0.8256233495306264,0.8869851746279491,0.9341673974871785,0.9518154815747766,0.9394567141471108,0.9607562041188065,0.9870541681808083,0.9849420275262515,0.9558365081569715,0.9013790031817592,0.8444488332192679,0.7800660667180359,0.712692608904018,0.6410675667288803,0.5962411610200069,0.6242477975002543,0.6818872970566479,0.7308334719988232,0.7770143408957808,0.816392763432211,0.854000661998555,0.8921945511748828,0.9327122351098385,0.9768209613327532,0.946447764550123,0.8649002768580267,0.7754818119884839,0.6891514974369217,0.6229900723218653,0.6781989717980381,0.7717068493664561,0.8587475725148366,0.9417928489248057,0.9768031726129685,0.9542838265563731,0.9458465461815588,0.9139840072653007,0.9052081900576601,0.9162197889251205,0.9202567334820462,0.9125153355331117,0.8978384215853479,0.8997107309847632,0.922014293104229,0.9381792788770322,0.9185267901417693,0.8851946175846095,0.8305504933225478,0.7621233464130128,0.6964817346861802,0.6524676923657438,0.6805359714595942,0.7356230290818986,0.7883800165052026,0.8353161095480126,0.8728629361738003,0.9024344625466003,0.9348385741467244,0.970696354145977,0.9869761584413836,0.9260730708682583,0.8412612934873507,0.7514474552738708,0.6645233617681519,0.5852283834417562,0.6101396341597569,0.7005757455767778,0.7865460249562395,0.8775097781150483,0.9560387512937474,0.9704217918067226,0.9437953755911961,0.9217256908612903,0.884321836166355,0.8828094866812537,0.9022706861840732,0.8980447550437665,0.8839117580012519,0.8765143988453243,0.892966513039799,0.9165609157187966,0.9157503779851801,0.8865719739876383,0.8347999083863644,0.7701418100282222,0.7069073934151668,0.6498978632830374,0.6554363686112854,0.708248078494043,0.762132292086281,0.8131107925711114,0.8552103568813896,0.8882236993756976,0.9202094211040084,0.9586310068653001,0.9999999999999998,0.9961703363458116,0.91857955328201,0.831853380546604,0.7496457382184423,0.7681895420726534,0.8566669015817732,0.9410537842804416,0.9870221985883412,0.962268240806351,0.9495698543888194,0.9162525732384414,0.9057649393448397,0.9229438433797399,0.9241239100960161,0.9007057009199744,0.8826849107668244,0.9002676275903652,0.9236586302709935,0.9204907993343754,0.885924604412023,No
0.6131534437025675,0.6762119096261002,0.6926471800713293,0.6025316420853467,0.5041661911992893,0.40321960710489513,0.2996168627388983,0.2022392090259798,0.10038909442622801,0.018414697843611827,0.04381743525790405,0.14042634854535252,0.23867061027219905,0.34271827127683185,0.44291364615652007,0.541872097870525,0.6269608158507244,0.6174362089469961,0.6088436843229655,0.6536980483174574,0.7111940953412258,0.771794433151782,0.8202982699964457,0.896845901693705,0.914903706855755,0.8810949754037686,0.8225678553869212,0.7543718017328666,0.691282776662223,0.6772342824343277,0.7373154792086457,0.8112004111694616,0.8792439962526822,0.9253698174311166,0.9465029168216096,0.9342210338551175,0.9033869096795167,0.8917891808879707,0.8764111550302479,0.8820200796838892,0.9111890406020194,0.9085978334843633,0.8362567757194698,0.7516125785939775,0.6511984587195262,0.5538286268478742,0.45137583804539194,0.3487099989757926,0.2514073725450766,0.14786770650249637,0.04699807233419118,0.013385872889934647,0.09076272281963471,0.19030675390582197,0.29364524573583506,0.39091010324971964,0.4937089197216661,0.5970578392884419,0.6941318706379066,0.791134011378713,0.8669330667866096,0.8734078208235835,0.8332739445757745,0.7725866361656545,0.700599608134625,0.6479032210133319,0.6579033662399735,0.7234811339155623,0.7948047488333582,0.859295061663801,0.8846100400107256,0.8810908803660013,0.8761654270575389,0.8838410159525648,0.8783401923178188,0.9088599833546346,0.9374272804504605,0.9142880191892141,0.8267078662561383,0.7280424302797709,0.6290398577484414,0.5256232271415587,0.4366887768488511,0.3548666832141344,0.2709347624574857,0.17658943580144681,0.07369251342156291,0.010026121390727227,0.06187934176565124,0.16059568629283905,0.25816841669207,0.3601788490380363,0.4643830063826203,0.5629822334544629,0.6636840834636318,0.7645326358194292,0.8579930102427146,0.9251101154586098,0.9172075328125021,0.8692973693094334,0.8056745264651618,0.7363012797448062,0.6853012495797156,0.7027155133079922,0.7680471134890626,0.8420505763109837,0.8990592763691784,0.91658020937449,0.9126653028852617,0.9065049976508309,0.9043188413955056,0.8904343909160956,0.9128096046565962,0.946654454382397,0.9311977421719878,0.8481092809787535,0.7488405715799237,0.6521139818453318,0.5646350748792383,0.4691946535413568,0.37038402333582277,0.26610667035687297,0.16159293656509477,0.058659851012479725,0.0,0.05727212841860296,0.15596648872777918,0.2537283137313905,0.355410242450353,0.45758475338985194,0.5551092048274623,0.6581010509162052,0.7552899373445928,0.8460401324065686,0.912722211302961,0.9214968804096434,0.8843339164685852,0.8247162370031077,0.7517414163858599,0.6942743412524831,0.6960317276280407,0.7545948579382141,0.8297854497520248,0.898611175128384,0.9346682202643198,0.9466547600200034,0.9655979112454481,0.9618784286247163,0.9274976453304818,0.8644035566610327,0.7908254072100608,0.7356476014554566,0.7638293725593662,0.833081577579715,0.8984196900105633,0.9418820271857368,0.9595558111985759,0.9224641662150047,0.8399827038211957,0.7455445138202282,0.6441701912727941,0.5464634402049494,0.4445912026664379,0.343138591023619,0.31890887525469036,0.4107498475057664,0.510606094856442,0.6098850205795029,0.70974240151675,0.8090063336044745,0.9124534317138128,0.9862950128314737,0.9848854800764687,0.9589229306846548,0.929008607960134,0.9401987201866812,0.9389063664414307,0.9454568603903931,0.9494755899378552,0.9347130677656118,0.8910547207369858,0.821443432584421,0.7518825716300558,0.7302774125243051,0.7848950913396188,0.8534838937777961,0.9127190946862066,0.9532671220968393,0.964706066728055,0.9184763815286793,0.8299944923012988,0.733398927494804,0.6366239360711307,0.5574124532404127,0.5534580345047876,0.6473430139697688,0.7467139352019344,0.8465444091914941,0.9478957402128846,0.9985129040637034,0.9731390528708014,0.9454719415469776,0.9129982357028003,0.9183715893082925,0.9124287827712524,0.9195943869379698,0.9231495884895039,0.9091645218213867,0.8794420543245859,0.815610708502272,0.744115296339907,0.6874096496156953,0.7136190020855119,0.7812378022000362,0.8475803363494642,0.8930375241800187,0.9168847588785444,0.8934428008742964,0.8139407074453656,0.7176315563930312,0.6206532684894815,0.5184340004175473,0.4569736173623976,0.5249825268792542,0.6256810107414345,0.7239196246879506,0.8277724273864139,0.9209456326105278,0.9554569073253815,0.93815532859782,0.9111682022407058,0.9154317708011624,0.9277339571596258,0.9473065282884551,0.979670287676839,0.973724878853537,0.9561163482756424,0.9078565333448184,0.8403982256175463,0.7634213926630432,0.7148675942383026,0.7556045078488697,0.8277431232592672,0.8890307155288765,0.9319534694780168,0.9566076976055836,0.9300871999213173,0.8520345375529138,0.7546017931648218,0.6703548721843714,0.7031582217356268,0.7967448827046163,0.8941219579031795,0.9797751822285873,1.0,No
0.6816344636365037,0.6685025261652262,0.6598924062862199,0.652688972084035,0.6337801723743461,0.6081864696695698,0.587953634098866,0.5585071056423367,0.5291489181478752,0.5227759344083598,0.519939529035951,0.562191512674592,0.6021062690448216,0.6480409629408084,0.6772910431723504,0.6938042830474704,0.6915846165655251,0.7017869589913657,0.6752275250675037,0.6791970053139655,0.6981878039938216,0.6832856999637116,0.6903882784686961,0.6836965390961991,0.6848106773728286,0.6933976207259578,0.686258733378553,0.6961084578744701,0.6827109359329526,0.6819877300198192,0.6853869910334445,0.7096496513584345,0.7414482332722514,0.7566039454314337,0.7680981982984867,0.7758206855386809,0.7712754456002422,0.7137901437425103,0.6052181306258793,0.5052356592910447,0.3965698430016462,0.29087313136639814,0.18821922522355372,0.08079232153060589,0.0,0.0005593733634627895,0.09576914493398814,0.20841143606021983,0.30652368065019386,0.4186366903564922,0.5322099539484251,0.6305996250956132,0.7410965338689781,0.8054608226171762,0.7543532305036318,0.7276701150397353,0.7310776709566102,0.7135659352052981,0.7134205472387456,0.7045795514119884,0.6951407542027823,0.6675854399299972,0.640581156417833,0.6065644468608427,0.5667492368657308,0.5369381036800722,0.5292829229035232,0.5631130893210394,0.6196433475472736,0.6628034874241902,0.6913656953179959,0.7009203236959332,0.6827072671006449,0.6724437324745529,0.6828843466865822,0.7011813790580161,0.7223018269635766,0.7307031930546879,0.7399311541547324,0.726799270940472,0.7239365076501962,0.7176983434155915,0.7263615287585066,0.7349830349347393,0.7276452997472167,0.726242805458504,0.7263075381633848,0.7341439700863952,0.7529989678483582,0.7686565447202072,0.7539424623450586,0.7341859271719335,0.6624722046787284,0.5600261471887524,0.4452042551437363,0.33579823248897966,0.2605558050982113,0.17248758917604912,0.08276945810804115,0.056099623994742664,0.13572139279188988,0.23546541345574745,0.3434370381969831,0.4584424661794837,0.5678731791904572,0.6670636212356897,0.7474001549680578,0.711581535033198,0.6838992679080298,0.6819831710919049,0.6819782817940734,0.6790144474532966,0.6604894503488663,0.63982067833535,0.6145284087911453,0.5918811998091829,0.5604004761875996,0.5496014762899248,0.5648073781086489,0.6057670763220822,0.6469678521321032,0.6909539168887759,0.7039290635872488,0.7034060246898601,0.6884553566286198,0.6922290566485181,0.7057374185225656,0.7227873785043837,0.726011982280089,0.7155677455187308,0.7224996491178701,0.7412908747454305,0.7618551244099048,0.7987388795738144,0.7966379241023782,0.7965951075107496,0.7948111183818223,0.7919997413343216,0.7858207197748528,0.7835842101990478,0.7593937692427732,0.7572268244499636,0.7587845515938807,0.7753903978121963,0.7724283659040929,0.736429457595984,0.6977228944165601,0.6549291727236422,0.6101936872308817,0.6202235187994769,0.6461464075079446,0.6723551638716625,0.7057391147808549,0.7310903676417966,0.7350853850235155,0.7351162951283925,0.7408304676606665,0.7565156229966958,0.773203228901751,0.8343039273734458,0.8948385951061342,0.8706701176090723,0.7844648635144913,0.6795734857096258,0.585379646604578,0.5903186708527435,0.683234558310295,0.7662136507652146,0.8023282332027062,0.8202538315578058,0.8239555751003431,0.8351772492655773,0.8170843851394176,0.7938618084511728,0.7956463135555554,0.7826590380482039,0.7989365318198551,0.8014810044207685,0.8004145549498665,0.7846498952847725,0.7920836551325863,0.8043294488318424,0.8168225777693658,0.7976910911898742,0.78679507000717,0.7725202942801226,0.7429514650652327,0.7357269014509011,0.750111324523552,0.7570514471054488,0.7468350492574638,0.7221764817943046,0.677170802280902,0.6240322054046592,0.5923910368134773,0.6209135585058476,0.6564476474421044,0.6953550740097243,0.7279554013750764,0.7508359897999397,0.757541544910044,0.7719288942925853,0.789586842484916,0.7948242777374737,0.8023530554189957,0.8345234477294476,0.9133443013374545,0.9877961018024157,1.0,0.919001006787854,0.8255335295683106,0.7447546201137634,0.6497548468797381,0.5407119165950958,0.5146717330153088,0.602658814694145,0.7012287223083611,0.7896822782441317,0.8408199987990295,0.845295187904461,0.831473298202944,0.823367570216007,0.8037855911293255,0.7713060167907626,0.7546891136553326,0.7422448607746612,0.7618898247194537,0.7762567254983592,0.7620206932891973,0.7747262620652418,0.7553093636178412,0.7400550324833586,0.7680370734980224,0.7505534939686398,0.7512278699140928,0.7566563551449881,0.747987944200319,0.75982202807928,0.7749566986256209,0.7596964576685394,0.7538566461558576,0.7321886124719756,0.6887380922289008,0.6438533798883803,0.6026951266276761,0.5813751997043735,0.597919992073213,0.6398183638478061,0.6539443195052224,0.684490469547816,0.7115948113923993,0.7129977566752914,0.7194077789892077,0.735070808309652,0.7507510498947902,No
0.16329992342131616,0.204488082508679,0.29585502882824777,0.381646877181963,0.3575072334224938,0.24671213552358662,0.16631600348473485,0.17785757570057692,0.2669799325688169,0.38509281714519483,0.47935052675334333,0.5861426943538595,0.6949568026378161,0.7761469725658263,0.8129293726365443,0.8086171106683557,0.7663512308615021,0.7241187091194892,0.6852612609768935,0.6366089726846451,0.5762460907337221,0.5122764393451886,0.442319984804294,0.36831029320510655,0.32971832923495414,0.36794609475169837,0.4484167326462969,0.5256945146614735,0.6016293481492578,0.6630441173892931,0.7060942124773293,0.7227573825703195,0.7093844773867746,0.7034422173227899,0.6894309693995759,0.6904666021116204,0.7049406460106069,0.7072442530387248,0.708634808047715,0.7212255021730614,0.6998779318974409,0.6647596953744275,0.6540624180830172,0.6800543628472195,0.7306907162772385,0.7635805055925546,0.7681621324687815,0.7254109902804391,0.6127452843416621,0.4994760954791708,0.38705682540354447,0.26864240401823913,0.16412272358317193,0.10799399345458838,0.18400368466131356,0.2945611975442124,0.4045860056894188,0.5126256795079858,0.6208518425572991,0.689389245396379,0.7218283947302822,0.7221573755033441,0.6920810858129194,0.6606115939973249,0.6136050297967466,0.5610641407367312,0.5025843767234162,0.4327406848843447,0.36209201989142104,0.31727527265011624,0.342865605488309,0.41636210478738267,0.4969507811547418,0.5723090390507033,0.640565999758584,0.6831705262065242,0.6807082070844892,0.6693236477670665,0.6645385697683239,0.6508430886178282,0.6526236934849536,0.6625066015885448,0.6600443740540722,0.6687034466451527,0.6638744317564012,0.642443909225809,0.6060129666555052,0.5687940003634031,0.5749446490170129,0.6210813691113835,0.6775576412777382,0.6883616755751238,0.6883007238094065,0.6075254694619483,0.49970610872999055,0.3816188962984821,0.26182856963274315,0.15407370935139753,0.03977814218237796,0.0,0.08194107132204964,0.18847613053721135,0.2984075603004266,0.408854677748105,0.5163963714197575,0.616252672273494,0.6702566154092002,0.7033438344508482,0.7070694280113665,0.6973811866087378,0.6703188248279548,0.6192194116896781,0.5626126172433614,0.49363065085376423,0.4229901544140455,0.3676136852421097,0.37259381638906053,0.44423091875368836,0.5280007677795195,0.6091892512825567,0.6916047948398036,0.7584907231947495,0.8008654778084803,0.811268315404134,0.7809856958351071,0.7501876959890237,0.7201347453367797,0.6958181817916431,0.6891848551912023,0.7027173894451559,0.7100638762515135,0.7425152921922935,0.7531456982276863,0.7532209964750769,0.7567033107895207,0.7779806849733584,0.8071334374461325,0.8403273087063714,0.8663234003907077,0.8585043130096279,0.8289861389418207,0.7687349335009075,0.7002673835132929,0.6163563478041922,0.5354249444464716,0.45681375507434696,0.4737626274933313,0.5382270357631671,0.6063562540085918,0.6664295543383489,0.7200597675815672,0.7487965956287215,0.7636846053149693,0.7626816022946801,0.76311924082255,0.7365804929232729,0.6994521939814429,0.6256989288251171,0.5241259681888808,0.4095844313573176,0.3543853945075548,0.45386950038097096,0.5710988872474325,0.6789761520054105,0.7796775424745737,0.8170346366900869,0.7643967278547477,0.7349311496596478,0.7194840645830176,0.6707618291750537,0.6345735187078412,0.6559800101102726,0.6972826083323644,0.7144569782509986,0.714907453101346,0.7149075119218531,0.7146247402958754,0.7068277319228078,0.7130506027440666,0.7232056741579727,0.7391788334788338,0.7385375037797619,0.737129496281312,0.7289164316415877,0.6848754217095792,0.621808017034823,0.548966385455381,0.46520071402305785,0.3929145884726184,0.41557729551390743,0.4833871443732236,0.5545223934242731,0.6132368816097014,0.6656943501281614,0.7111138262069261,0.7432908555674493,0.7714787178640754,0.7862174104810307,0.7838283785818612,0.7566326357072715,0.7074302950222897,0.5977357934211294,0.4874326088990566,0.38364069415000124,0.4093467367866346,0.5223952974979587,0.6323326707225361,0.7483670867196737,0.8543395403216683,0.9144917540544171,0.8684588823031252,0.8257497896976038,0.808116223213565,0.7647407669594228,0.7182719818392553,0.7151879936864733,0.7500832840058971,0.7834172807420674,0.7763918714095706,0.7673841451559196,0.7662143594135911,0.7566068256686882,0.7420120221757571,0.7456615037117187,0.7577431283372498,0.7713828683194963,0.7723143394647929,0.7653739274327087,0.7288105927463726,0.6726806480529994,0.606998063601655,0.525220774883143,0.4414127143301849,0.4139548876816397,0.4705095312930081,0.5419909657366642,0.6065908463290932,0.6669436137619629,0.7209316541048065,0.7606684792989329,0.800078926352426,0.8477249028554743,0.8819602802327338,0.8824372558113125,0.8635433371052521,0.8362800014891723,0.7405204739371882,0.6340183003235129,0.577547146267444,0.6619713612544236,0.7805643809838698,0.8879517755531943,0.987875121484239,1.0000000000000004,0.9375464156191198,No
0.9427145786106543,0.9507930123473793,0.9456471849113071,0.929443226590289,0.9394140624460756,0.960813520750404,0.9310258471752233,0.8630223163495307,0.7909125176342613,0.7219479541057396,0.648633907968424,0.5780341671493474,0.5076912289462407,0.4338874350800463,0.36071277577728417,0.2919196968877254,0.21921535408909182,0.14545604117319066,0.07909130242587054,0.07230350654914236,0.13441919828412363,0.2069642829970051,0.27525295429946056,0.3395310650213134,0.4035050401890365,0.46611171980786553,0.5351371724111613,0.6088010360756695,0.6811011104293638,0.7500013455758934,0.8201598454871273,0.8847739613082115,0.9397629323932553,0.9557966339389445,0.9344142260427011,0.8981261627083301,0.854052872508198,0.8221159055600298,0.8351933860059924,0.8818510025999509,0.9275401066501243,0.9481728315640934,0.9409745625558823,0.929587874950754,0.9280407852791939,0.939285692957619,0.9445686753186708,0.9381719401249944,0.9156094524170677,0.9207442623029714,0.9339965615579033,0.9153543004176214,0.8493237955509734,0.7791708627197609,0.7069174155172866,0.6379940251005602,0.5646296569531615,0.49134232192271315,0.42248245802270173,0.34995710583678713,0.2760483159419988,0.20236717666037518,0.1327827166548884,0.06238765827781684,0.027096783179128003,0.07958267695548926,0.14804368880392038,0.2208437164460142,0.2920021146659912,0.36182453555718114,0.4355526404268137,0.509137300133826,0.5784325923999636,0.6502375986488709,0.7233078544359042,0.7915362018459422,0.8533891349819556,0.9072556811190742,0.9377677672853055,0.9231645342926398,0.889024850988817,0.843639621570965,0.7993398683419033,0.7869488534673832,0.8240040847489765,0.8748952615654071,0.9171971203711506,0.9395151357240261,0.9410621898127349,0.9446186079774468,0.9539764865457183,0.9588151045738267,0.957674848982653,0.9457892110839143,0.9241445797628549,0.9367305432961293,0.9529069981545417,0.9335364641998078,0.8680645119955872,0.7963129427860649,0.7272819505507966,0.6538293084074309,0.580240007835573,0.5109370935028579,0.43914164612743917,0.36524855966071174,0.29133629770457153,0.21850615939769452,0.1497420819790527,0.0766913712731162,0.008060555573251915,0.0,0.061401257480478755,0.13421458611359394,0.2031627866119643,0.2755033720835474,0.34940924884622,0.42320941201899215,0.49351103309017935,0.5641548396689291,0.6379840594270743,0.7106538401921463,0.7793293696802037,0.8485581724978342,0.9119293232901811,0.9556139548121294,0.954573724175988,0.9242510473322916,0.8791686085599559,0.8303308343277624,0.7976542354995546,0.813875204166836,0.8576619915835213,0.8845998164433568,0.8622873112189933,0.8249083799450958,0.7872124311006234,0.7470892728763112,0.7087612692057048,0.6679757627062248,0.6257162159986323,0.5751855772471728,0.5223870325796662,0.4708737208806249,0.42929113149676873,0.3896841062027024,0.3786826154526673,0.42434762987314695,0.46043242668719014,0.5087654066586611,0.5628018987436882,0.6144552076798055,0.6605022414340291,0.7013813638067032,0.7411770441062095,0.7806366035062462,0.818710547824272,0.8577713908179858,0.8918383006265818,0.9115583395009903,0.8895946948773048,0.8469401960438532,0.8288398720432633,0.8667973449205313,0.9144491713695635,0.9558576848800686,0.9820336512918997,0.9844234899895543,0.9566982857337285,0.9040031091980449,0.8382526972936808,0.7688637212666265,0.6988377117628428,0.6274098227916411,0.6091727548212287,0.671593540081243,0.7450753577231508,0.8144069800752145,0.8858657752453158,0.9545376924911533,0.9999999999999998,0.9840848203775292,0.9600807366713373,0.9509387956661588,0.9735706953489305,0.9859881911403854,0.9875091967093261,0.9857781411425022,0.9737352774186874,0.9672200744389052,0.9682056333557041,0.9534540944053767,0.9192920975460517,0.8706648630753286,0.8260605068566382,0.8338410909411571,0.8776911058979682,0.9205982881585557,0.9517028937110501,0.9656934414278762,0.9504848636906844,0.9021148046552516,0.8392802620720048,0.7723940678460168,0.7006080208646523,0.6310756053550948,0.5596830594080078,0.5000683512169743,0.5251138594068254,0.5842546687604817,0.6434194125869435,0.7052198953143172,0.7774908193006347,0.8506999118265628,0.9191983492823472,0.9774727428387373,0.9766974391410286,0.9528574203023086,0.9441594445698558,0.9633589898688804,0.9723947642051369,0.9654553948655649,0.9590485911321893,0.9534990157035197,0.9597023131921492,0.9733592331849363,0.9690316815857991,0.9380038297364219,0.8917594780645348,0.8523689027627177,0.8678900053121088,0.9104554112195409,0.9494218707214561,0.9759680277030276,0.9874174665292252,0.9603837750692803,0.906238462427843,0.8433770956808235,0.7753866886408398,0.7063663895775667,0.632883701196262,0.5685055892407065,0.5861080202018603,0.6531115052413399,0.726490466916228,0.799117972010392,0.8679245542771945,0.939336791035553,0.9948802537391215,0.9933065839435471,0.9669138372895543,0.9558440329704181,0.9718933227789461,0.9727316875037684,0.9658051844400901,No
0.8847886518555329,0.8577388555914037,0.8301406288407317,0.8242182797296657,0.8534455842902272,0.8727609397008343,0.8354419356274713,0.7733570274729812,0.7066154713532532,0.6418962715248765,0.573761137621365,0.5087447225264642,0.4405942115045701,0.36994942676120535,0.29928252404012967,0.22864412923197053,0.16071340793350009,0.09553713774012296,0.030528326042236653,0.021326833930577327,0.08139038526630371,0.14568383279105213,0.21522222311250416,0.28588291062236415,0.35541199997327266,0.41976385885193224,0.48934917211852713,0.5599105432550936,0.6263902062071024,0.6928738125434929,0.760479717007,0.8232017144184777,0.8758821124366817,0.9027458303307975,0.9106960384864778,0.9111318603575324,0.9137436941963183,0.9133094630888138,0.9146378169929642,0.9053272056947163,0.8710292884552105,0.8519676958218722,0.8533581677989331,0.8552542588819007,0.8511310917808798,0.8489055289610784,0.8542648424731957,0.8569244192191586,0.8614729751783604,0.8597061551315394,0.8364409164078778,0.8275793242186104,0.8552282075050895,0.8838738705014181,0.8549558655160613,0.7927650291784171,0.7287630492469986,0.6606237974359886,0.5962658267505682,0.527121927543117,0.4642717698519686,0.4101827260717992,0.3535915688658978,0.2913497826282846,0.22467676835661343,0.15412048398675315,0.08598076903351848,0.023055726918378316,0.0,0.052580599586113386,0.12278294871267115,0.19344807480640358,0.2629620516420098,0.32175629752260904,0.3883523592596434,0.4557514638817227,0.5213783804366338,0.5918125071735477,0.660201041292407,0.725027128329894,0.7925055494486807,0.8540611727027206,0.9059507647977761,0.9361958461714347,0.9418604032533807,0.9371221465153877,0.9398773553412246,0.9517784816271179,0.97038337432469,0.952978084893303,0.9225506637319235,0.9094244151130212,0.9116663515883975,0.9108466712317874,0.9080741831465061,0.908039375845641,0.908039375845641,0.9080394841244107,0.9083210174328228,0.9123542561889554,0.8964610468947093,0.8698291984164376,0.8636788818196396,0.8856900084286058,0.8886354248604388,0.8400000988872177,0.7755699120195677,0.7109934040988258,0.6440589088852132,0.5796459262619352,0.5105614616849165,0.4461468883479489,0.3769762810591417,0.3063157228891461,0.23564882016807076,0.1649846696884435,0.09554371595633959,0.04508085202523737,0.06218811030723115,0.12669522322132853,0.1959687513021009,0.2603419630891458,0.330096477417252,0.4007563084895689,0.4700428459995406,0.5344219891500249,0.6042193270462043,0.673599007212461,0.7378809060356942,0.8032733414740748,0.8623061498753904,0.9049239467089402,0.9085065137749858,0.912227982152683,0.9129177231702384,0.9212055780656155,0.9318069557266201,0.9322256994506225,0.9002635340641921,0.8660421572235365,0.8484203391382722,0.8370583179278882,0.8375116568634283,0.8353822441358941,0.8471910037552156,0.8653379342387238,0.8619592156105628,0.8660802461870921,0.8774719924255859,0.9051711973833215,0.9416835878139284,0.9691898901942476,0.9612244700758109,0.9477040873733525,0.9389854272669212,0.9369531079971535,0.9330947490891303,0.9338990981556153,0.9092390333208801,0.8593035158811894,0.800229160079084,0.7365709100247791,0.6696389837691742,0.6008574365476959,0.5368030179427979,0.49795254698930125,0.5449586049201479,0.6138649331568179,0.6782172747130798,0.7477336399788251,0.8173886881730222,0.8783366963937841,0.919197476875372,0.9288318912764738,0.9149414282295064,0.8934043338281353,0.9085925648391092,0.9323177248544136,0.937562720348014,0.9382600218584994,0.9299005344723729,0.9285405541714075,0.9285365732769176,0.9290118309335375,0.9348111033966707,0.9330593966897248,0.9361599349220068,0.9565497188547724,0.9867278009743888,0.9999999999999999,0.9820382959095281,0.9643470173225804,0.9633222384555241,0.9693683318630834,0.9664959893579662,0.9434027616062145,0.900855395662382,0.8427711944640744,0.7738063449198053,0.7092666809627816,0.6403831701773196,0.5699019771099542,0.5042058720127981,0.45681647839293604,0.49468760899997555,0.5592236232787932,0.6289410421351921,0.6935606104898248,0.7605184085130933,0.824166449668375,0.8832857611981108,0.9151803222317741,0.9044151815205713,0.8682980997131261,0.8548576714288979,0.8782999201425487,0.8919234898563827,0.8833397449654407,0.8774997108935519,0.8756585654219081,0.8755712513652217,0.8794635516414985,0.8834006650923417,0.8783344401196046,0.8875805620442062,0.9196097202419896,0.9423642604462591,0.9390975687673652,0.9396068518702184,0.9392447001248326,0.9387713490297623,0.9301581892473488,0.9147536946943514,0.8774096000927868,0.825162620846443,0.7625317373325607,0.6952410364245684,0.6301630186532662,0.5598456661380901,0.48941709037366177,0.4272757052536059,0.4260248893615062,0.4917760891138704,0.5557764688106276,0.6095612988331572,0.6769689782186475,0.741317213262031,0.8106270427958066,0.8710218690096497,0.8996325909168926,0.8884382629243587,0.8583986532354974,0.863714787606709,0.8925888469642808,0.9149360693511494,No
0.637281267947575,0.6196618516873547,0.6432317272330024,0.6846697388830183,0.7085213581848939,0.7097948032399648,0.6347663090982509,0.5370371147726098,0.4330705072955001,0.320828918351288,0.20977975772591417,0.0954686376897147,0.0074256584040930385,0.019020276279063886,0.12756886488978658,0.24924768889443172,0.3693204990158865,0.4714136058090057,0.5539921110037822,0.643168780419062,0.729881314265036,0.7656073155914513,0.7662007235724584,0.7480200490448721,0.7202540412203762,0.713283029524038,0.6845881911239498,0.6697634372735779,0.6923532291836234,0.725418096406298,0.7718644769918388,0.8015728357244734,0.8308663520218853,0.8312068997638269,0.8329833269829541,0.8272904228300186,0.8413327091050791,0.8332229014729551,0.816452353443966,0.8017735676654625,0.7589408866280376,0.7491076140625461,0.782922376604843,0.8403983175797549,0.8686517485120056,0.8869747230196605,0.8212803195009459,0.7209886987083749,0.6409446875559857,0.535960830038622,0.42910459063536477,0.31173414576590996,0.2054627655705108,0.13934067793471927,0.19455574046985502,0.28470636964867735,0.3941900612526732,0.5064587606911082,0.6262761641992429,0.7295931610831241,0.8270371737581108,0.9136011710303498,0.9171756040420416,0.904749352928722,0.9029700298653212,0.8802748250174552,0.852263907396174,0.7947349143165345,0.7273842992930701,0.6680730091346825,0.6514198815587893,0.6726296304157469,0.7049989978228548,0.7230031979499847,0.7365368073904208,0.7276496158974131,0.7162229787735108,0.7106688596329089,0.7257092279797037,0.7381470639868262,0.7298861397929914,0.6872114773903584,0.6574041068711223,0.6602860956519452,0.6918409506672156,0.7395013889838653,0.7441438867710239,0.6833550406878959,0.5768667500393367,0.47473565845338017,0.3605823304553688,0.2520041271840898,0.136231325831766,0.027683364367005137,0.0,0.0830478854944614,0.20092058343473607,0.3072634024595322,0.3933806811223577,0.5046233748123994,0.6114324906216728,0.719813782030768,0.7697939717650706,0.7571115546083149,0.7579130787095889,0.751222478672815,0.7392581763952668,0.7125838707192926,0.6718742949980436,0.6492193414989358,0.6376925906564606,0.6685305877187888,0.7087707825019658,0.7250384474350264,0.7182389003383642,0.7265879837962399,0.7198089281009823,0.7159467989659949,0.7104274775447341,0.7191914339725831,0.7191227833632841,0.7141130144741927,0.676144629648642,0.6377502378008466,0.6256917587688227,0.6584050997518824,0.7093549855715398,0.741801514094206,0.740708101456605,0.6725628467777209,0.5626072511535414,0.4481751311748723,0.3385243780743301,0.22264738422882058,0.11551244187317478,0.03618020797241073,0.07125984639724336,0.17942761801987972,0.29997098108754816,0.40759453507767285,0.5234238244998157,0.6252694431479697,0.7237196785900144,0.7926204065559093,0.7470727071086647,0.6591947187557348,0.5637686971188653,0.5449728831058116,0.6382842857167188,0.7352888463615548,0.8033851661576117,0.8032164987432093,0.7953708991505408,0.7691721821144006,0.7221513415048157,0.701618801791041,0.7338004491053645,0.767346057017543,0.7746656307752864,0.7746568546412593,0.7696938213695459,0.7725794144519922,0.7846364663735481,0.7941594195231074,0.7879968318456285,0.774682802059921,0.7558732520896485,0.7185515529634352,0.7074334169631218,0.7139317892974257,0.7510053282615656,0.7830618543756063,0.8009460952837921,0.8135682519896239,0.8194973146827955,0.8434460286972412,0.820838686734132,0.7356461474847773,0.638608336899495,0.5456597033682025,0.5653259001000475,0.6643973542170283,0.7614040478939543,0.8181522255190479,0.8127494321575037,0.7942923699732067,0.7547565117188673,0.7187476352037536,0.735798615158997,0.7852418628312381,0.7941511392569685,0.7845727417899284,0.7749141980259662,0.7752907345109055,0.7879521787351011,0.7941629487137121,0.7846894646072551,0.7741413859177557,0.7499459197862883,0.7122529476304247,0.7259246939507791,0.7884819044247338,0.8596347360680143,0.9073111717690803,0.9350289196516055,0.9527855143937107,0.965755743174515,0.9654968560406263,1.0,0.9893667464335483,0.9148591199175624,0.8137900410850913,0.7312494952824973,0.7763003097532022,0.8786362879583205,0.9543832320219856,0.9523717576866777,0.9263294886589613,0.8987385673896964,0.8418284511768075,0.8085625052473926,0.8331988682806157,0.8844391442508543,0.8902967416315195,0.905228394978622,0.8960029255530686,0.8930098122050767,0.9035231427794228,0.8991629658708162,0.884657499379339,0.8587062043354425,0.8252144039050795,0.7798193642963906,0.7492889601672807,0.7436060433960145,0.7698687667488398,0.777681590198982,0.8010098837412705,0.8253871142708178,0.8318310660945767,0.8276424707022874,0.7949069485598428,0.7173931568067773,0.6145193740724726,0.5133162436600585,0.45901134470138905,0.5402320892898302,0.6372745338992729,0.7327474530196585,0.7727316478735284,0.7738230651660345,0.7499312186024043,0.7060409574575104,0.6889974633805154,0.7283036310799069,No
0.514015133630046,0.4316751506724412,0.33747721567750966,0.24045720961705275,0.15134145194215942,0.07887966290599513,0.11267269278688086,0.2055978478109668,0.29437838979420294,0.39060043335042116,0.4878741622018088,0.5779329951184,0.6693987558113048,0.7444082777067154,0.83104114657835,0.9159263089045346,0.9238815237050977,0.903834378969719,0.884441171492814,0.8588603811360516,0.8251685322867608,0.8069801320488821,0.8263663417854976,0.8691872647869063,0.9015299744287808,0.9120247162922293,0.8971623438916128,0.884045368491936,0.8841023603197979,0.8883865492102081,0.8921586852394086,0.8790689980134476,0.8662260597416929,0.8879379950668875,0.9130313529059806,0.8671526005686925,0.781234400671859,0.6876918107333401,0.5986005772826368,0.5017316360298376,0.4042791711152167,0.31328204548624927,0.2206203424895279,0.12331952461870732,0.03509481304341944,0.0045035387800489435,0.08207356881326988,0.1752318084545217,0.2656308360080879,0.36299012931855934,0.46049983469519495,0.552001750918333,0.6441338685966913,0.7412782461964695,0.8309193045694929,0.9005084859690511,0.8943708438287938,0.876713678833057,0.8555370838402037,0.8302248809582229,0.7989780522725038,0.7898491066156867,0.8211345306724755,0.8660663090171068,0.9099346144560565,0.9293974179857116,0.9177596421709473,0.9045595295331195,0.9063501831593421,0.9121804141254399,0.9008268283211942,0.8755806097901222,0.8786063927030574,0.9139366675154665,0.9213786035374589,0.8496634929882454,0.761127203439528,0.6650886865607486,0.5754535933542932,0.48117611529463367,0.38387628050509925,0.2936654733275852,0.20013162517560557,0.10295882422967018,0.01697578236683439,0.0,0.078925969724839,0.17606408036593768,0.26959792851791775,0.35980873569543115,0.4571326155108608,0.5532465495729948,0.6420209647373294,0.7375167864669363,0.8269126731481744,0.9126020854996826,0.9242644380173668,0.9011246321736639,0.8790182337008696,0.8541995978286065,0.8207969595981415,0.8056217626790279,0.830723396867685,0.8751461253351074,0.9080487052063253,0.9208035270698063,0.9063847784826171,0.8877303240681109,0.8886087534901033,0.900220742248925,0.8928909536510119,0.8677318947943751,0.8806390139753133,0.9115036654250579,0.885165697620776,0.802147378078204,0.7122867055641884,0.6199018683348358,0.5266351452828912,0.4362647551166501,0.3389240209873532,0.24227052991248388,0.1538614630788735,0.08570412937143401,0.12327882849352112,0.21444401006362424,0.30256255830670775,0.38309633474134963,0.47020282128293633,0.542931283109823,0.6341550344507152,0.7317898600784458,0.8293968988072193,0.9153601174968862,0.9310120958391752,0.9160239839648878,0.8928204803316477,0.8654126814933538,0.8323502592424294,0.8112588255283244,0.8339989913011392,0.8799589891153756,0.9231436043306225,0.9410455452241027,0.9572065304184623,0.9832725692036726,0.967887971159572,0.9313472599091832,0.8815007318414327,0.859876864808027,0.8860235524223681,0.914891573121464,0.9392063077357604,0.9583743957799431,0.9823961968997628,0.9918556349377434,0.9240333892051615,0.8363054817492757,0.7423724616197915,0.6457640756824496,0.5950000818233117,0.6660537587172561,0.7577297512181471,0.8477860458671911,0.9297608585036676,0.9669563834180304,0.9481998558052083,0.9109290470725666,0.9107074236940758,0.9438747238792531,0.9407652718011841,0.9275971440098152,0.9238377861146638,0.9431608999239334,0.9613288457247902,0.9548241029506572,0.9273813015363261,0.8832352730584208,0.8501119090494789,0.8617747330887642,0.8945699692748588,0.917572320253889,0.9391760138336194,0.9671176864576836,1.0,0.9615415008454424,0.8760506187898869,0.7853261378879808,0.6890995417790791,0.6002600651928656,0.5045633066501243,0.4126164702022732,0.4142558848221052,0.5066928469892524,0.6043734463802111,0.7020591282423239,0.7991888317657714,0.8857273676679758,0.9533005856727144,0.9890563979904461,0.9708267440635212,0.9330599271581641,0.9155527705100868,0.9413476393084617,0.9553787905985591,0.9452212639791306,0.9457197084047757,0.9612419554010461,0.9703253085506889,0.9497125094618211,0.9135579137524039,0.8692144883333424,0.8341543686108721,0.8424486398114261,0.8736012285070525,0.897801476058862,0.9170404460236377,0.9411266647245271,0.982161002698934,0.961887952992885,0.8816944868996854,0.785590710056596,0.6904492513073772,0.6454812704027191,0.7116046212285099,0.8032608518796083,0.8794838645812249,0.9453880512388775,0.9585582008362397,0.9372354932299327,0.9063006514429319,0.9099137857771122,0.9315197684476026,0.9273979580730196,0.9228725646316538,0.9228362135177792,0.9375685283067234,0.9489912096283923,0.941274769173504,0.9139032107842251,0.8707807020010141,0.8448246071627639,0.8672121450372934,0.9000829888519482,0.9211348143613702,0.9430801405879885,0.9680826621624967,0.998646516444861,0.9653720425864307,0.8801236596028352,0.7916694717952839,0.719045519101557,0.7634377750376977,0.8532205540269373,0.9295158809334518,No
