0,1,2,3,4,5,6,7,8,9,10,11,12,13,14,15,16,17,18,19,20,21,22,23,24,25,26,27,28,29,30,31,32,33,34,35,36,37,38,39,40,41,42,43,44,45,46,47,48,49,50,51,52,53,54,55,56,57,58,59,60,61,62,63,64,65,66,67,68,69,70,71,72,73,74,75,76,77,78,79,80,81,82,83,84,85,86,87,88,89,90,91,92,93,94,95,96,97,98,99,100,101,102,103,104,105,106,107,108,109,110,111,112,113,114,115,116,117,118,119,120,121,122,123,124,125,126,127,128,129,130,131,132,133,134,135,136,137,138,139,140,141,142,143,144,145,146,147,148,149,150,151,152,153,154,155,156,157,158,159,160,161,162,163,164,165,166,167,168,169,170,171,172,173,174,175,176,177,178,179,180,181,182,183,184,185,186,187,188,189,190,191,192,193,194,195,196,197,198,199,200,201,202,203,204,205,206,207,208,209,210,211,212,213,214,215,216,217,218,219,220,221,222,223,224,225,226,227,228,229,230,231,232,233,234,235,236,237,238,239,240,241,242,243,244,245,246,247,248,249,250,251,252,253,254,Target
0.6185188509098952,0.62310035008139,0.606390294306265,0.5886329595471783,0.610245452509972,0.6115364256473411,0.5567907306686964,0.4884341625576455,0.4187114248168846,0.34767617270662765,0.27908651191322165,0.20639867327299333,0.136301237562652,0.06727614024985085,0.017701524353841425,0.05380112248056024,0.12311396311232448,0.1921789365016392,0.2650780885170958,0.33811423998396306,0.4082667545060601,0.4776785262106761,0.5506393531866965,0.6237278610260409,0.6913353048442709,0.6910239931490548,0.6388865759812633,0.6035010384574168,0.5764887866829441,0.5420317006871874,0.49924994615748297,0.4491499986430577,0.39739465211847924,0.36035253585680505,0.37320694599995174,0.41993860943607686,0.47555490487402075,0.5286011982589937,0.5738842358576713,0.5948100910369621,0.578581170263876,0.5797975698652195,0.5967803451009724,0.6075429671438998,0.611189349626997,0.592433830884869,0.5861299140304691,0.6163984123389307,0.6106122909175217,0.5525930132196532,0.48274173010817745,0.4145960222319557,0.34227556911909407,0.2722528943770851,0.20373727437097522,0.141258479224042,0.08153230680152745,0.07516301805636838,0.13828751601735956,0.21023824979985217,0.27836785893468163,0.3506549853881553,0.42375304206530484,0.4968535067176919,0.5699539713700793,0.643054436022466,0.7159239542557633,0.7668640470164693,0.7268038596115712,0.666418829388843,0.6233444071527251,0.5950539575947765,0.566156923053705,0.5276120387079438,0.47807670309534667,0.4256081454450368,0.3801447349064849,0.3634934758400872,0.39888333700027023,0.4509964854122386,0.5057277459061101,0.5568788991914989,0.5999115606683946,0.6045795038651692,0.5895254545454732,0.5988577133601615,0.6156482517755387,0.6197910600724955,0.6020173513382324,0.5927146136389306,0.62326396837027,0.6247482287878686,0.569457612606017,0.5019728738870771,0.4322496705643243,0.36077878221413207,0.29246634589743725,0.21987574211113903,0.14677605214387524,0.07369971090555483,0.006308309905108889,0.0,0.06416327536015454,0.13328620709990435,0.203695696065888,0.27671075477569185,0.34736644140040074,0.41633099941984375,0.48920814506349275,0.5622997287984438,0.6339874162029052,0.7022206538832515,0.7678708174907304,0.7584347828740049,0.6957947923907545,0.6415151794236867,0.6068161499823547,0.5788090505126723,0.5443453917071329,0.498511126521206,0.449949959615933,0.39879742121559336,0.3676714197395461,0.3897810688360387,0.43758211594171015,0.49097668248656257,0.5449095882404386,0.5914465397452858,0.607282472381096,0.5889073271345538,0.5892033189774387,0.6036668860428193,0.6117040159947255,0.6000266208669148,0.5846271773022361,0.607163314594232,0.62900513026373,0.6289451489686159,0.6183155942168624,0.6051238542764209,0.6180728550638722,0.629188253796433,0.6023227322778514,0.5542659696727091,0.5020881260110871,0.44928739222078473,0.40375469475084225,0.4173325943835485,0.4685162899125511,0.5181923866607635,0.5615825041672927,0.595533650440449,0.623837273156682,0.6591618205878421,0.7130469762655668,0.7791463707746197,0.8513562772409436,0.9234142228080192,0.9844835647422873,0.9838742134826052,0.9221575385789237,0.849753421531794,0.7779391183613772,0.709742429135409,0.6372855215825398,0.5641864157953479,0.49132049243767784,0.4347513571488857,0.46402123173407006,0.5315778066883822,0.6016736168123801,0.6526136849223202,0.6524785384200439,0.6246577023827754,0.6201607434066382,0.6410569760302641,0.64050534274794,0.6260986810978985,0.6168005497692469,0.6308245851055784,0.6276492772383834,0.5893106185643885,0.5395702623320283,0.48384811682411566,0.43219831535976005,0.3965556196094502,0.42370768681370563,0.4727043706633759,0.523723286648058,0.5679630912379211,0.600032324710647,0.6269238086777181,0.6644505243625537,0.722156187765412,0.7890036770093064,0.8567721471377087,0.9248113308260687,0.9903332394174317,1.0,0.9379855683234463,0.8660113003159745,0.7979154257250699,0.7289158168231743,0.6652775300819359,0.594794612869426,0.5303081347096786,0.5246724997348063,0.5876470634637213,0.6370460745647287,0.640258744300925,0.6121318733972786,0.6144755317844773,0.6321248679502788,0.628752752991817,0.6170268080822158,0.6021304158140562,0.6069495949953013,0.6201732262079042,0.5964277668126358,0.552303812046408,0.49872722886258625,0.4452522870841652,0.39720653622854474,0.39000909894704816,0.4347678185081356,0.48513939082055535,0.5342307526275468,0.5720671619936123,0.6036578723998159,0.6313514701371338,0.6776048066765791,0.7414327860665858,0.8099925665590263,0.8687363040724495,0.9231441639354084,0.9827017070568914,0.9793279805914387,0.9163644056406554,0.8439790232427865,0.7714706414005709,0.709233478469823,0.6449306592829193,0.5721003803189236,0.499393271816717,0.43345827412604576,0.42175595024382084,0.48648025282719065,0.5541198242192119,0.6153638976488388,0.6417857420070093,0.6292612500108651,0.612139255488834,0.6340803366806033,0.6449044760491623,0.6384570675880769,No
0.4127708783264019,0.42223244041045005,0.407799767442246,0.41936040353924375,0.44936898759187627,0.4431191193109172,0.37153309117678224,0.28727762128156176,0.20188210653056293,0.116912290745109,0.048865168055477914,0.0826335920733654,0.16482428773935753,0.2545225386946537,0.34537840016286037,0.4340145231605712,0.5190620670931985,0.609248230237246,0.678173114251666,0.6379949685483677,0.5591353769159444,0.4818300547453285,0.4308536805035277,0.3957046268086082,0.35310239097504637,0.29955642900095225,0.24409374178989118,0.2020504269346508,0.21855185502626684,0.2786129706821894,0.3398793757821237,0.39325434776019486,0.42145570620784545,0.420327028632127,0.41930756084707,0.4324955134209476,0.42297178060852847,0.4175403652630436,0.44543755252830475,0.4511007313826867,0.3879647576110026,0.3056970784975661,0.22953396453129127,0.14932691409048737,0.06558649356805879,0.0,0.03202771386411163,0.11863333033316503,0.2094085476934322,0.29666322699195,0.3828235733716183,0.4735206567813761,0.5643504520948823,0.6497920319617676,0.6719951096497381,0.6028904090590277,0.5279553129067494,0.46315461230278987,0.42064197901175615,0.3850026311235335,0.33970325766129505,0.28402869113015794,0.23791192610206036,0.23729652007513335,0.28724255824219513,0.3503517319105096,0.40572708813943015,0.43566179995934373,0.43475780598272795,0.43974600702530875,0.45086564740615076,0.43630754788982706,0.4378039598527519,0.47084827540695584,0.4734261752050015,0.40300206429169827,0.3184491259636264,0.2336905510096956,0.14821253004820067,0.06411450221015058,0.021199654443464166,0.07835287613143715,0.1670002753072719,0.25161506011018253,0.34135401052460224,0.4320248155980413,0.5180689439667132,0.6053028758229204,0.6748572347333941,0.6359532623904809,0.5597019677572952,0.4924947927493526,0.4427230896092773,0.404406271726409,0.3590122540145051,0.308616550991321,0.2539078908602961,0.22685225158534372,0.26480315859641834,0.32542943130988844,0.3886114051209397,0.4397306801052734,0.46146198676814953,0.4544966168189366,0.45796167505083685,0.47288184385251797,0.4597426866746528,0.452205828712114,0.47708533661972163,0.492375057261911,0.4474467716291455,0.36126362553408686,0.272318182658833,0.18835934819474986,0.10694660585299332,0.07397847077215025,0.13708322294699804,0.22638677947977803,0.31630962017080555,0.4009545648118451,0.49042790299718164,0.5813012677880594,0.6715475139697324,0.7267839062660704,0.6754120271371096,0.5937254726554491,0.5216316607064322,0.4704337298088703,0.47907613803955496,0.5356992780227829,0.6080361976775186,0.6869198017529365,0.7678178534710178,0.8533744174783695,0.9374632182446367,0.9999999999999998,0.9595457919174517,0.871926715416141,0.7866219643226202,0.698362782850912,0.6075180811797742,0.5179638850538615,0.43334401942327117,0.3487572848793883,0.3460961392962292,0.4248239474557258,0.49618930991699783,0.5174657390159563,0.4946616617571207,0.4822937272829022,0.5001565988346948,0.4913199218088087,0.4770350177743188,0.4853408329486675,0.48017423312150087,0.4448944780127264,0.39151774565310915,0.3278614716663337,0.2709372159958745,0.2762576227185407,0.33012664230766675,0.3799238456998648,0.4246648726954483,0.46380150896179884,0.5169262351983279,0.5882776735496944,0.6653763026852557,0.747207577917439,0.832512819167655,0.9123551701698842,0.9775344669745947,0.9758853595131702,0.8986283775490409,0.8084994354344819,0.7177102512096845,0.6328509659667698,0.5590284753378232,0.47077814283969066,0.3800113439010586,0.30635070188282554,0.33826887371144543,0.4211160469656263,0.4905767326511232,0.5072003445263242,0.47616788652179665,0.4619968011292803,0.47552328655446074,0.46705672149947297,0.4595505164067326,0.46089104279169857,0.44419216297396824,0.3970120342522614,0.33530108205590947,0.27959489582956043,0.27152803051448826,0.3198004284292457,0.37433697901620255,0.41745122945349644,0.4519186641740649,0.4986702677145729,0.5703330925994137,0.6524755725840528,0.7338006050631272,0.8166465290427531,0.8998730126174241,0.9592710402335964,0.9191584171963278,0.8325480111100787,0.7429667443453862,0.6583457770991801,0.5685463549120302,0.4776866081818618,0.39433456440972714,0.3984348258937318,0.4652568607016141,0.48802020818264014,0.4664186745910821,0.4497482871831264,0.4584469836049887,0.447580899592227,0.44331267782395645,0.4506288190969878,0.43495352854335145,0.39516083780355826,0.337063813712251,0.2733098862446901,0.23003796897363915,0.2609162332846584,0.31716811750850904,0.3688595316501664,0.41424936638306065,0.44877014048475283,0.49853243451682516,0.5604835369222982,0.6367507817945002,0.7222112186698402,0.8084966294941585,0.8940680457759405,0.9634335503621456,0.9397970580342596,0.8546703055221396,0.7699166215922446,0.6797698926464426,0.5891168339350046,0.5032075172518542,0.4156785881638665,0.32852648155378206,0.3147244083090741,0.3906136686256292,0.4651137016216975,0.48177823306544965,0.45621144669704505,0.4360094855098753,0.4483786955155089,0.44132339731872783,No
0.8492527943366478,0.8832548458109001,0.8978538610987189,0.8915127165578683,0.8864747178394542,0.8991362823084627,0.9001480634724345,0.8940821680908294,0.9163442298559558,0.9359952458023587,0.9266353654693932,0.8581671958514908,0.7842331481031702,0.7133012597856226,0.6462805145914187,0.5703692132320836,0.4973068507756545,0.4185778214786561,0.34126762465481475,0.2684148204158905,0.1898792093143733,0.1136300277854736,0.04282218384518244,0.022791477268728655,0.08845937240302137,0.16756687125015135,0.24596370812859725,0.3186492303078271,0.3962979580855791,0.4755277694482761,0.5547640036384597,0.6334570733330313,0.7064493176880479,0.7833612747738817,0.8570582841186435,0.9062744167791962,0.9105334645247763,0.8977255998563226,0.873273228743013,0.8362326784323978,0.7934467941431863,0.7590707465525733,0.7622575105701414,0.8064801203221562,0.8546443603744712,0.8947478788125828,0.9198003982868145,0.92687168558774,0.9284104244465051,0.9382103875903655,0.9301237179705201,0.9308790540013577,0.951045724232975,0.970079899034462,0.9501810746866334,0.8770325831359062,0.8012665883045346,0.7295448594881869,0.663636962531459,0.588578945465669,0.5159106455905739,0.43752900456996635,0.35838147809915244,0.28318464601679294,0.20866305897986892,0.12962862295309752,0.05426526435894585,0.0,0.02730139064726267,0.09233812302744615,0.15592502213794102,0.21907696564560175,0.28145697212005893,0.3577159135291619,0.4369315283786376,0.5161683116466221,0.5951371443033214,0.668887914505598,0.7449333113601301,0.8234411861750145,0.8815153688784837,0.8952339953664769,0.884604376511191,0.8610177945417373,0.8270896798591781,0.7824334023826715,0.7455945925615278,0.7385773388865217,0.7771174539611484,0.8279087063671599,0.8713912093225481,0.8912799416963396,0.8994329510165479,0.9018376145055848,0.9130636515864518,0.9187373471805281,0.9075504242752664,0.9260405451025039,0.9480566403235123,0.9534368512044032,0.9107996534951371,0.8363674539587368,0.7610777074400944,0.686709697989684,0.6076361708435699,0.5283993325573703,0.44916248331120634,0.36992566537922555,0.2909200277173609,0.219608733854337,0.15690619704531883,0.08243994061068827,0.0294560503222403,0.04291772700833585,0.11110650545873146,0.1892487906293745,0.26848272831305964,0.3476147982686816,0.42259282651437935,0.49732583298745847,0.5764419595691702,0.6556651461892881,0.7328217582560038,0.805702277939233,0.8785127820031452,0.9187730947046723,0.9184119729854069,0.90136571757389,0.8717909137791054,0.8322543672331307,0.7877627305317739,0.7511245612840628,0.7559716544040579,0.7997823997461705,0.8493507112666997,0.8905716502035937,0.9087898594841571,0.9117956518602172,0.9000216587508086,0.9044919582061354,0.9074209395670793,0.8924048709771794,0.9099372087022418,0.9312304002076645,0.9529832423014718,0.9623361967370204,0.9438901608843656,0.9329790680626519,0.9366153935787843,0.9295980412077233,0.9350282774953299,0.939138078958163,0.9345781469659126,0.9124733101189441,0.8717768868053685,0.8229140708685031,0.7832493580464371,0.8021475230413778,0.8465630915648558,0.887584968890975,0.9178741888038827,0.9401219044083317,0.9525594348637337,0.9434291957111619,0.9045748477503287,0.8358492649093995,0.7633610604195012,0.6850390900108615,0.6076015099491426,0.5826040069960506,0.6466491637219652,0.7253578124041921,0.7990496198468496,0.8747718117509539,0.9472228029526651,0.9935005334864292,0.9834418045298449,0.9633600432042678,0.9459261583175954,0.9453458528454001,0.9405343429482657,0.9312144346776873,0.9297044143651393,0.9208714197914131,0.9031997753686732,0.8670262874829261,0.8203440154261193,0.7765516010733388,0.7833957930510861,0.8245686560187121,0.865048340230658,0.8936624184760414,0.9160713934574686,0.9247145944510337,0.9156051737566143,0.8751770990748869,0.8051603866169114,0.7322199678642253,0.655480920957702,0.5762657210254715,0.4972966223950527,0.44471994552065464,0.4948655296163914,0.5724748439933157,0.6451028048256774,0.7232194694226374,0.7995467220667692,0.8730131621212712,0.9479883220599373,0.9999999999999999,0.9986834810644601,0.9789056828047468,0.9748271805199845,0.960733756629491,0.964663354693977,0.9559680168440333,0.9534362010467424,0.9538467731964954,0.9402178001576585,0.9160910472129652,0.8749134562177273,0.8242777308683565,0.7894770609125069,0.8113380199269459,0.8535884286414904,0.8905522834076428,0.91706095413505,0.9357770037757446,0.944616955851631,0.9340651825834975,0.8959901692781672,0.8264390162943057,0.7477804721510385,0.6685442225052117,0.5893073732590467,0.510487441773609,0.4629429695283801,0.5176588156755378,0.5956184214152601,0.6682287418929124,0.7461208194848324,0.8197820715776459,0.8802472906182331,0.9501871411972701,0.978308836965155,0.9634214813916765,0.9465235082271891,0.9321912825559292,0.9321933375979595,0.9269265095108604,0.9168336787613519,0.917351093810668,0.9240606134046242,0.921057923411082,0.8960389584872214,No
0.668657748596047,0.6704001420064924,0.6237190150320759,0.564516996392989,0.5482888633955072,0.5200292118156895,0.4733946327357901,0.423170380569853,0.3587685964319888,0.29063543193271835,0.22688951103029242,0.15985428109694721,0.12277794676877818,0.16433284779311907,0.2324832406776023,0.3015290462916047,0.3670584638640666,0.43257898618558743,0.490776736710971,0.4866825519989664,0.5090310755468495,0.5619525010647084,0.5911416039104609,0.5844798358081604,0.6367281315528153,0.7036726672736624,0.767865717830384,0.8357108431173632,0.8672422872918182,0.8166259699826768,0.7564167694091544,0.7059641817212392,0.6752882916878784,0.660283577862016,0.6485403398423186,0.6229069068142752,0.5863254602211152,0.5542502097589921,0.5415660607608204,0.566698592510334,0.606142545762667,0.6403241196894889,0.6653600551675516,0.6785275871015992,0.6729164515959323,0.6640539270126826,0.6692792436943187,0.6763594768985302,0.6770396346980874,0.6762449390795917,0.6763113390725999,0.6793078894373179,0.674829941946635,0.6599406781083956,0.6724459537361522,0.6893276027554862,0.6675714644763324,0.6096139664352529,0.545064369792553,0.4797820411199216,0.4146815808380694,0.3487702558754866,0.2801076895744137,0.21599418964091288,0.14903499134691112,0.0928405732447718,0.10401583601468678,0.16889849888781738,0.23802985828556267,0.30715143583332416,0.37410647546605924,0.43842386272299183,0.5072377284608018,0.5763813443977324,0.6452683259906042,0.7098184464269233,0.776476866471296,0.8449958297665985,0.8819016473328893,0.8362180120145626,0.7755529879977339,0.7242706932466714,0.6885982417983207,0.670079336796094,0.6552156681954995,0.632465972504312,0.6000671381628415,0.5640991851731623,0.5492087850346397,0.5736496492341736,0.610552119058033,0.6519876851345772,0.6809372950144377,0.6996211491180142,0.7039958521768068,0.6962369839765692,0.6891963775242447,0.7022976173825413,0.7147060047261604,0.7219509409869211,0.7281202043670572,0.7354125591582779,0.7168901284079576,0.6845831471594948,0.6565538483345974,0.627028099695077,0.5929124773482162,0.5752980891233743,0.5704944211941021,0.5559128986819271,0.5030456512188033,0.4407737076222751,0.3739594784561754,0.30837580726743474,0.24287351539784907,0.1745972471893823,0.11082571969838007,0.044592596376433646,0.0,0.03105431229859379,0.09792960093893877,0.16702113253518724,0.23336755759802996,0.2981827623857638,0.3671293587755645,0.4362732590818523,0.5054169926942909,0.5742577662432502,0.6386296285206217,0.7055047756973178,0.7732785960405704,0.7975648280539773,0.7450019275293276,0.683701492855159,0.6313002746680907,0.6085379925349832,0.6142388826178564,0.6109503891761852,0.5944195729143429,0.560262495287503,0.5242242520119993,0.5141130467116664,0.5467651850930044,0.5842837551887896,0.6175675046635747,0.6358399557858159,0.6356002718512199,0.6352471689364301,0.6653114215862728,0.7256737689301385,0.7919711316794824,0.8543034286295679,0.908880095205304,0.9066396471898841,0.848783403556205,0.7825818813326793,0.7143006258569431,0.6505391788741515,0.5825604129447246,0.5134208877257955,0.4445722877103214,0.40033128951770325,0.4443637412849959,0.5064507490844414,0.5626705150098161,0.5926830865664872,0.5974855744112892,0.6054558075339389,0.6318002850806457,0.6652947889948249,0.6916628595592842,0.7267224703596655,0.7543155109026811,0.755947289994864,0.7475045666583462,0.7417556614063623,0.7349541296693896,0.7218389304089814,0.7131628847047033,0.7206997976757716,0.7294430352960939,0.7228504988578699,0.7021763444807771,0.6724832641838892,0.633705072492956,0.5951243655753975,0.5775285863832755,0.6043346339972284,0.6401041832293453,0.6661008590563202,0.6821379629785445,0.6989674595229862,0.728396163294815,0.7796893129664488,0.8395391860976753,0.902406331634704,0.9650647902097973,1.0,0.9615829885497589,0.8938118684679044,0.8251785129045899,0.7621344945198185,0.7047901437553912,0.6443283847598418,0.5886030985922877,0.5305163544934814,0.4757528470875978,0.47514270358999844,0.5380011588502671,0.6016018493514188,0.6631115848151263,0.7063391145076645,0.7172913388766,0.6970942777899067,0.6874782592673223,0.7016633881643437,0.7019779695265795,0.6974101048676165,0.6942448587485839,0.6986032128751876,0.6972657128163224,0.6931969968379492,0.6895065662100399,0.6979917357398764,0.702449203707741,0.6914847539515727,0.6720306889529029,0.6424188739687857,0.604371862037004,0.5696358194886038,0.5735004417402698,0.6065448031644978,0.6420463297602763,0.667937023178867,0.6800472837240994,0.6922747644733962,0.7178552493559112,0.7649724824568698,0.825652326766537,0.8916759615009342,0.956931457811204,0.9990895145950172,0.968246669304379,0.9063916619403325,0.8400414849467124,0.7727135160650149,0.708679798579585,0.6400060421723246,0.5708928462579743,0.5091918769797061,0.5203926890219195,0.5866311877112076,0.6501528698193144,0.6927027377952792,0.6959659483615137,No
0.8981380000739336,0.8860400514442703,0.8633534872904893,0.8343219018451309,0.7986576325221733,0.7497017176024334,0.7267946284355558,0.7148819819581167,0.6724155673859589,0.6403604106905021,0.6140447493634043,0.6677414607660799,0.7291799818203899,0.7790144227174822,0.8043835845652227,0.8344620805274865,0.8709272222356248,0.8976781872794122,0.9017325353865291,0.8962324443624767,0.9027152231565276,0.9088897782170384,0.9061105219906378,0.9028641331303378,0.890244816431597,0.8662474603042216,0.8745799628828723,0.8918636665396804,0.9014334639261163,0.8761322334352319,0.8018912761287011,0.7282834943324694,0.6509972747442843,0.5802427027639814,0.510311385510638,0.430037412146413,0.3523749299683725,0.2788447412338244,0.19870620211571954,0.11881968234924722,0.04664371672308909,0.0,0.04097070424173499,0.1183133274087812,0.1909726475786917,0.2558972492438718,0.32905675493791664,0.40927270740325317,0.4894161903363612,0.5629578617042621,0.6404638091404868,0.7156306699357842,0.788140937638736,0.8459103827241832,0.8760487530986119,0.8706011984938469,0.8565475826187954,0.8392661247901967,0.8125418155225572,0.7883089039267255,0.7805778103710672,0.7983573388747567,0.8367431150067088,0.8730731229755542,0.8888256838217834,0.8804768577314268,0.8815578075153261,0.8846711170081549,0.8922734074363752,0.8961615835399863,0.8956829158454083,0.8945113651951064,0.8897997634292627,0.8779828464448378,0.8981997313058494,0.9163714721045186,0.930706036292335,0.8974143897801887,0.8199486166187178,0.7394328057414128,0.6647217050699488,0.603798220101087,0.5294448901887943,0.45573984723112004,0.3783787837075756,0.29782896773357637,0.22075768079009395,0.14682997886904015,0.07558107842247697,0.0747375286768246,0.14569440993126648,0.22079356450801013,0.29656553529555496,0.37708434505097643,0.4572432454553492,0.5308251060399856,0.6083932702608807,0.6859146508842022,0.7595075152123845,0.8362134780617461,0.8889454087688704,0.9055230221209356,0.8991240392036757,0.8861834902081351,0.8638944367239867,0.8353825903001737,0.8092386933926834,0.7868363470871433,0.7910696993429187,0.8286394258946357,0.8653225102278097,0.8810939921862821,0.886068000994227,0.8787224201506776,0.8832663424154741,0.8920894001282809,0.897977910774669,0.900251318003904,0.9037737039411295,0.9100541269323577,0.907712432823135,0.9278094106311088,0.9439624322495141,0.9537738874471338,0.9211972988855484,0.8459872494659813,0.7729277802659758,0.6945960810089227,0.6168361579826498,0.5433863476815721,0.46332411290624465,0.3865908818089281,0.3123130256157651,0.23197467671142635,0.15322555608447808,0.08767246699322528,0.09309092544735764,0.16294317854102935,0.24320717850227913,0.3232838084792278,0.3966503696884982,0.4745345978540465,0.5550006833736194,0.6303381092935529,0.7056024682465987,0.7793151392436428,0.8469104741277624,0.8894967402122096,0.9274900838950697,0.9140507222891914,0.8744903963296584,0.8081786054973907,0.7336448229337538,0.6567860880381511,0.6468696682537982,0.7181224056251323,0.798240038193273,0.8718337519214203,0.9466327025584809,1.0,0.9964115664548483,0.9808625585225312,0.9628197515816572,0.945960328216837,0.9444569911647889,0.9391285131622216,0.9333647420278621,0.9376559551689734,0.9278432759660022,0.9177233563543568,0.9157005439351242,0.9179254844197786,0.917529921478957,0.9063611405945802,0.8788612553845174,0.8360883494454694,0.820669262393722,0.8436402708336359,0.869961699973574,0.8983142234631889,0.9182869695488076,0.9288748751641718,0.9385372999728903,0.9333593632372268,0.8957995513327688,0.8387109477117702,0.7669877461270027,0.6935209725566065,0.6138824799840958,0.549183165493895,0.5702881894482215,0.6486960418679024,0.7234732042123242,0.7996347000826085,0.8773535646673589,0.9461201844639768,0.9721555805363213,0.9583988794420659,0.9398896274196282,0.9218817502454009,0.9183522906631332,0.9281560314670672,0.9284998699107796,0.9276956798434002,0.9198466010660962,0.9153444387354883,0.9098328450864952,0.9154516328700815,0.9163605826810901,0.901423923190988,0.8666485675194162,0.8287271651243826,0.8193260965997609,0.8335287896969394,0.8606607904320873,0.8795718533544379,0.8954460927627168,0.9059718414161686,0.8991515621731869,0.8640519024391091,0.8118420453465685,0.7410610016366956,0.6647119473024989,0.5895235045705114,0.5138358977301614,0.43515329987235485,0.413954551454601,0.48490879287420396,0.5642385958406362,0.6370191402799954,0.7161813783769055,0.7938982957301779,0.8670262845398309,0.9316087270790498,0.9377772273407625,0.9323829467745803,0.9188946734952244,0.9027822403495176,0.9092674955110662,0.9318694974485882,0.9294628258370221,0.9355976065592269,0.9384504433911371,0.9311990907801042,0.9293667669292631,0.9324852063494253,0.925083105057233,0.9048745329047398,0.8698519639188418,0.8360910943391617,0.8431597743772044,0.8706330208342647,0.8977029155452345,0.9167943499602886,0.9264847944292298,No
0.9325428740636671,0.9290883098259909,0.9073982437997942,0.8751670401538448,0.8412472430748513,0.7983371722509506,0.7607536530502211,0.7433347315653763,0.7266553650677955,0.6908725999864366,0.6601018586983344,0.669413117715247,0.7276184859540987,0.7283177955664114,0.687323621001542,0.6707792688932569,0.7013636999592293,0.7530771512793316,0.8093352099081225,0.8580605580796755,0.8883874997535169,0.8891965532046112,0.885131492992309,0.8892736219424716,0.9023763002867898,0.9090390189840968,0.918182252368774,0.9157807918043074,0.9186561190382271,0.9185137561714017,0.916969741802936,0.9197793395764623,0.9105358806797755,0.8980328717165046,0.9012625214239224,0.9286766961674765,0.9375334242053833,0.9017678971306317,0.8367115511008808,0.7714735630613564,0.7034329240970248,0.645865303006529,0.5857617969031262,0.5150828728584121,0.44605397447080175,0.3807852197038655,0.30995700976479235,0.2387714473372743,0.17187724211698052,0.10475510708460778,0.03497588994954415,0.0,0.04571295622132454,0.11636331935844346,0.18766370269244648,0.25896386577601627,0.3297395205118179,0.39489854032196803,0.4640870044373172,0.5353747764112079,0.6065745508369921,0.6736283849294956,0.7405938288633117,0.8117809106745898,0.8814923950118195,0.9276936431750161,0.9226426756984961,0.9030753437388342,0.8750925426025599,0.8435710776118358,0.8013761770681537,0.7540016063773488,0.7076505223619783,0.6644791252570711,0.65337244899563,0.6871759610741964,0.7391929820116218,0.7941385533746369,0.8387573928291431,0.8636709930243233,0.8607595830497287,0.8444303922109239,0.8433298940345325,0.8588437639963934,0.8822882568156271,0.8974187238028132,0.9021842520777129,0.8968420261469837,0.8938263215428933,0.8937846098717394,0.8919935073649067,0.8789935765290237,0.859753103763328,0.8659999952558782,0.8965811412340029,0.9252764384006397,0.9221119678604136,0.8671290257141057,0.8076591397387624,0.7504151345993925,0.6815055000509506,0.6165843667311265,0.5460310118280237,0.47597729818740653,0.41120330584027454,0.3409213436051046,0.271061711886896,0.20623108421072633,0.13761937806125424,0.10606070327541584,0.15432183826034251,0.225106945391486,0.29640745346180375,0.3677080484494487,0.4389900050024894,0.507871411273476,0.5732365998517716,0.6441187295453324,0.7153546394362323,0.7829815846123601,0.8493889441308274,0.9161441808222949,0.9354940188650239,0.9233213358253877,0.9021317883780992,0.8693317332691334,0.8343222944174596,0.7922125516764965,0.7461946299555079,0.7020451407980327,0.6724900082020325,0.6879810132973164,0.7342396535885952,0.7891509779909439,0.8402082954652904,0.878782626752249,0.9011579202313881,0.9003328738618518,0.8893485756690186,0.8935363651013052,0.9062933610684486,0.9271251898832659,0.9273011053746011,0.9194724451431134,0.9246255986697932,0.9313835146066481,0.9181441507194336,0.8860219969921307,0.8399250206125518,0.7878589529163847,0.7379961407698706,0.7077030166299304,0.7385086912587583,0.7853355631367475,0.8294331959777145,0.8695050615866541,0.9016160524513622,0.9300881214400604,0.9490875062297873,0.966117369930286,1.0,0.9784740030446312,0.9101222259692866,0.8407017975404428,0.7756757557518125,0.7050061212215813,0.6340110876019537,0.5688561007153695,0.5346272903693013,0.5889206530328598,0.6598038575613844,0.7254826467792256,0.7935950655298553,0.8589984235791838,0.922487355550205,0.9660773349986692,0.9591764293290098,0.9390471531823449,0.9078965344882218,0.8941299576077216,0.909443648801551,0.9211858862021457,0.9207186774465369,0.9209276443299333,0.921231171260645,0.9236391998604608,0.9235067167528742,0.9180447742815873,0.9015939963964202,0.8786537856695239,0.8657235421219217,0.875845629915574,0.8901855539855855,0.8907776525355987,0.8676409498754775,0.824945895923105,0.7725371943089704,0.7216452131071621,0.6822381176229521,0.7052652278691703,0.752090694923455,0.7969070455049337,0.8417678815477693,0.8797044992922448,0.9095076131422642,0.9336378887992484,0.950625327030925,0.9760835325184213,0.9769725505709371,0.9173637593938958,0.8462254855959018,0.7777988814932325,0.7120845609617487,0.6410844400675123,0.5697840022573605,0.4997666586412889,0.473225961059064,0.5298288198139983,0.6008531127836921,0.667950348337525,0.734871881551099,0.8048337445188135,0.8694761379114445,0.9327737259184211,0.9650519911940413,0.9641987031608034,0.9378104420538048,0.9205256202961319,0.932035416588718,0.9409859088108935,0.9412675332867574,0.9412669271974602,0.9409890706726621,0.9435985976936884,0.943559801570704,0.9368282293548437,0.9304057634111663,0.9176064949825496,0.9133981951105091,0.9150632715024037,0.9201107835778489,0.9072679613454119,0.8738784451361813,0.822205434615289,0.7683652864890004,0.7190711573831322,0.703854237124948,0.7457795832728665,0.7935783925286101,0.8403359166614296,0.87934851552798,0.9112205591243699,0.9412721851428595,0.9605204401805881,0.9610090037061213,No
0.7296172910566685,0.7502521673438398,0.7577996645421853,0.7543951611715476,0.7506262418763568,0.7537435899332968,0.7600051625650892,0.7621007045646272,0.7627320407379172,0.7670245551770872,0.7680003819374397,0.7680043624575535,0.7679835943337122,0.7661739208663024,0.7651465809313394,0.7720386364673173,0.7849069925921491,0.7681194087824528,0.7199370134863786,0.6705727284081079,0.6178735406780757,0.5642244423559564,0.5130160400501818,0.4625403635039329,0.40895495228872436,0.35525433089884506,0.30155748371370295,0.2488103185312433,0.19940560005139796,0.14633014709495085,0.09273208066665467,0.042213477394932086,0.0,0.015159427919577306,0.06565290501701793,0.11531616729114547,0.16867434555862904,0.22237469110928915,0.27607531249916856,0.329775933889048,0.38347655527892743,0.43708080822384077,0.48772877194100317,0.5387585291485798,0.5923994107592615,0.6461000321491409,0.6998006535390203,0.7535012749288997,0.8071903172647606,0.8587263302284326,0.8786576016809488,0.8420351335841639,0.8027816957348571,0.7745408121395664,0.7583016876489491,0.740113540734464,0.7146442750832485,0.6799587829876412,0.6435139213006437,0.6058058086969871,0.5658502828110016,0.5387814253840396,0.5514176968621017,0.5914522132000741,0.6338463030397903,0.6767483489655999,0.7150945248205292,0.7475947842353283,0.771555388885676,0.7761868192446693,0.767457211536872,0.7576346462959747,0.7555419685200667,0.7592784208544178,0.7653740180941796,0.772613876808479,0.7761956530785585,0.7798464192624165,0.7819220676513975,0.7841056400460519,0.7865003853686311,0.7834930020841827,0.7800261109710791,0.792245055342567,0.809084402863388,0.7965036754311551,0.7501061566343109,0.7003210723927195,0.6468857185058215,0.5938977861140133,0.5445248009969066,0.4916590061080548,0.4379611273460319,0.3842605059561526,0.33063781397720715,0.2798192218186367,0.22896451349637742,0.17533785127218365,0.12195553223040129,0.07226270256929807,0.023018163283806348,0.011490911902348078,0.05273253320942389,0.10366590328897263,0.15730678489965383,0.2110074062895333,0.2647080276794127,0.318408649069292,0.3721092704591715,0.4258098918490508,0.47951051323893024,0.5332111346288096,0.5869117560186898,0.6406123774085686,0.6943129987984487,0.7480136201883275,0.8016885987238279,0.8533685248685204,0.8975622536437285,0.8889827876240616,0.8456415939094485,0.8078898562486813,0.7793657137720708,0.760339009003257,0.7437095657820224,0.7178165008322784,0.6833269526346402,0.6473435608382268,0.6086998057414068,0.5705330911824328,0.5489778342886075,0.5681656081637076,0.610493593659446,0.6530583330660407,0.6943951741895794,0.7282963138060831,0.7532438586145737,0.7681664771471222,0.7738702711145458,0.7592760853670563,0.7518479034284521,0.7577151322611736,0.7684528351319058,0.7689641681240595,0.7800086776084253,0.7922090452210852,0.7860739590149636,0.7702963177309788,0.7479722246060623,0.7175772782799839,0.6782967487304951,0.6329017749645666,0.5915410194651888,0.5763092463215718,0.6088499293986305,0.6492407465733605,0.6855938144350692,0.7197918026882557,0.7491359044540218,0.7675968667658155,0.7850962327651679,0.8094492911858858,0.8466535543729022,0.8904750101407414,0.936281717518526,0.9819078824824047,1.0,0.960952699519317,0.9100139351213884,0.8595998270780326,0.8060259703029425,0.7523253489130637,0.6986247275231836,0.6449622395850374,0.5935773280374983,0.5432604060318801,0.48970726663965325,0.439590289304265,0.44159294768869806,0.4924486430631002,0.5461335796717913,0.5982548262038974,0.6479793790624819,0.7012969143332407,0.7521640928316164,0.7998917637177657,0.8281530773265159,0.8273915019049781,0.8090274354165906,0.7986940341256138,0.8038857424480675,0.8025498413528761,0.7998192416576165,0.7992273477745678,0.7949089649221824,0.7910387766407957,0.785620560941264,0.7779494342699185,0.7730378280807286,0.7732880616278385,0.7824254295009156,0.7921577022491285,0.7912821135993012,0.7759844243947202,0.744361936942164,0.7057108223929371,0.6633725637529965,0.6182304760054529,0.5757010834317446,0.566495247941771,0.6002321144938586,0.6412196992188253,0.6787115026000717,0.7133423174033274,0.7431533464751809,0.7655376107349189,0.7807972383696603,0.8006341779922542,0.8396032886558783,0.8841760732488105,0.9304769811532073,0.9732728216383132,0.9786828619704898,0.9348317260174918,0.8812852353164958,0.8275846139266171,0.7738839925367385,0.7201852137628911,0.6671860001037494,0.6177952336748936,0.5662254036509436,0.5493450019151588,0.5924025032895673,0.6383008647846627,0.6876508245351773,0.7368595379253216,0.7837223809967803,0.8037958632257404,0.795335925859829,0.7860072672328459,0.7830723405924959,0.7860570354402059,0.7857149148384921,0.7855795174077788,0.7842352944320984,0.7822933875577247,0.7809360335743629,0.7767117003252753,0.7760017495610202,0.7721319824227575,0.76745010996623,0.7680059342805531,0.7751562975852742,0.7741930003830148,0.7626352118158484,No
0.0,0.03025901388579482,0.0651037106092128,0.09998487708292068,0.1348648655766277,0.16913542816898006,0.19992579371409488,0.23410375902265826,0.26898359853912235,0.3038647650128302,0.33874593148653803,0.373627097960246,0.4085082644339538,0.4433894309076618,0.4782705973813696,0.5131517638550775,0.5480329303287853,0.5829139046804138,0.6175065309220656,0.6485485662549455,0.6821567199862079,0.7170316517849868,0.7519128182586948,0.7867939847324026,0.8216751512061106,0.856543228909238,0.8867744908279754,0.884675253911654,0.8731971914982944,0.8612951904384611,0.8474752547080446,0.835585422862059,0.8211614738583213,0.8010075475601205,0.7818874547557977,0.7638355959774371,0.7454883802290503,0.7389802230694739,0.7534246881522801,0.7785272862182006,0.8079453796356275,0.8335065004603193,0.8585031683294112,0.8808859221051354,0.8956093097257445,0.900558322549379,0.9041119712289757,0.9172618797435563,0.9185366311054697,0.9113511995937278,0.8978210056835182,0.877625365553102,0.8531752919649576,0.8245802406950569,0.798099308100175,0.7724890575456704,0.759782021588803,0.7749480521347601,0.7940876091799128,0.8133146245279279,0.8319255898720197,0.8480640234431577,0.8592127801142213,0.8729034349045355,0.8854190419635176,0.8988033685302279,0.9200877701938128,0.9490085427397709,0.9718117909244701,0.9593933970204095,0.9293854169145909,0.8957781425649866,0.8609032107662078,0.8260220442924995,0.7911408778187916,0.7562743010591834,0.7230943925207789,0.6917315811845596,0.6570233048142194,0.6221421563625901,0.587260989888882,0.5523798234151744,0.5174986569414664,0.48261749046775887,0.44773632399405083,0.41285515752034263,0.3779739910466352,0.34310648352316253,0.31350799895387044,0.3263825009981423,0.3607984938049058,0.3956796287399761,0.4305607952136843,0.46544196168739177,0.5003231281610998,0.5352042946348078,0.5700854611085153,0.6049666275822235,0.6398477940559315,0.674728960529639,0.7096101270033474,0.7444711943599972,0.7774083345341761,0.8089754650558633,0.8437276991068153,0.8786042378178142,0.9123113734494299,0.9431683274539612,0.9701851457058764,0.9668726517495042,0.9470742175098127,0.9390667916359418,0.9276986334264088,0.9123428746300593,0.9046577227390605,0.9157831807847431,0.9266965904623203,0.9278337786766152,0.9260157275049034,0.9256987293694717,0.9239278492014479,0.9225894294236817,0.9247068286889395,0.9214078007212422,0.9176587905763136,0.9222565159275297,0.9237945929004058,0.92052986092618,0.9206911866012928,0.917089296764514,0.9019516071588233,0.8812734318407015,0.8560012629630606,0.8289944783670263,0.804152161152467,0.7835946384735138,0.7877211590416917,0.8081237807046397,0.8259004917662238,0.843740037863967,0.86193193244489,0.8743766660975223,0.8833833359101864,0.8966017032529889,0.9102426336735456,0.9300916520541255,0.9581741527941005,0.9862863574810907,0.9912583862513404,0.9648498324857981,0.9302533945093608,0.8969646579188442,0.865690082431002,0.8310050176126383,0.7961239016007499,0.7612427351270423,0.7263615686533342,0.6914804021796267,0.6565992357059185,0.6217180692322104,0.5868369027585023,0.5520363464930287,0.5278595484991498,0.549745761251565,0.5845044235414163,0.6193842061269481,0.6535543967500433,0.6843466712890272,0.7186231283816529,0.753503144997618,0.788384311471326,0.8232653229551599,0.8578422462137215,0.8888658549713373,0.9225019215459263,0.9561039963961923,0.9828393793319954,0.9844590048930494,0.9609989174494722,0.9473234176323954,0.937695638371538,0.9241246274735506,0.9116532343834468,0.9140863408587016,0.9288710422775627,0.9325605540424013,0.9264196527105037,0.9241815905601686,0.9230958385614657,0.9225251221800995,0.9231523290792915,0.9256132836816147,0.9214303397000213,0.9174385608141857,0.9192692313075304,0.9199703927282455,0.9222409448334525,0.9232227839202455,0.9261379536798402,0.91700121636594,0.8992627061101309,0.8737564056600171,0.8468016421909473,0.8210092006048741,0.7947014760851585,0.7769294915918981,0.7886907592760991,0.8075851472887245,0.827301815246749,0.8459745713982019,0.8617297894497881,0.8741909617793243,0.8871340468958394,0.9007695510973618,0.9114935300114994,0.9295168386890824,0.9562473817948715,0.9812595755580881,0.9741614039308187,0.9451424736040753,0.9109443359865331,0.8760643256772717,0.8411831592035635,0.8063019927298567,0.7714211499274289,0.7370409568845722,0.7094140330121322,0.6775682818576972,0.6427103821859925,0.6078292157122845,0.5731371642012377,0.552566790775168,0.5773764117014333,0.6121761087986735,0.6470572752723814,0.6819384417460896,0.7168196082197976,0.7516980244629508,0.7856715821728464,0.8165197130266671,0.8509376381258442,0.8858178158022614,0.9202557263277027,0.951104517456116,0.9834039936619485,1.0,0.9835621094881479,0.9628220419446853,0.9548512851651328,0.9402971638609197,0.9246948079622705,0.9168399613039981,0.927415141829884,0.9382602803965365,0.9418090256016215,No
0.3378395218765875,0.380505313159728,0.3563445134021026,0.2695070953797789,0.18523744511009088,0.10062358068560817,0.07233602141216,0.13966397722160884,0.22352697555074585,0.30673693140998326,0.3670224262115782,0.4431582824894982,0.5342344022091776,0.6268128314804451,0.7193795692057052,0.8043879708318669,0.8014479130964782,0.7403430030890998,0.6979122976795007,0.6661029368924793,0.6410308728100758,0.6082479330334951,0.5612654311141603,0.5044917041162196,0.4456238833953916,0.3911750469998505,0.36629736233480936,0.397972665257589,0.45917626883807494,0.5278609962129981,0.5854467812678508,0.6357683040595652,0.6681643905730701,0.6639025642871528,0.6536596580430372,0.652915043467803,0.6647532501076574,0.6769007839666674,0.6866005994664417,0.6952288753853479,0.6883614223809353,0.6738381688404498,0.6741678823184463,0.6878867308006953,0.7167950634128646,0.711417699304961,0.6393077458434131,0.5607326618411819,0.48873446788652086,0.4060786323398624,0.31885227830837115,0.23317695684823936,0.14952166659361366,0.11976468621306968,0.18516382370056306,0.2769663646093212,0.36814523279616096,0.4522314064340025,0.5431941859844267,0.6312517774347688,0.7172181173913137,0.8037419667330543,0.8093309687195862,0.7510271193158318,0.7079764613494073,0.6858135205542155,0.6571274286925006,0.62369447489411,0.5736039329345652,0.5174378160614923,0.4574153898020168,0.41009702735633136,0.41063985756016197,0.4657845543313981,0.5296377480214609,0.5927988226766174,0.6449795089112946,0.6775893026134461,0.6857127578174251,0.6762375242278884,0.6680660443385207,0.6836385137081817,0.6969164982716176,0.7007030471295872,0.7003012857995556,0.694476666143166,0.6712414643972282,0.6636526473573279,0.6742333916853702,0.6913031683572044,0.6516526625735921,0.5723205404969165,0.4847617150444534,0.3994849327806991,0.30923685480924856,0.2250584718780999,0.1343986981510914,0.05099278306864963,0.0,0.04841130892755685,0.1361883652732616,0.22872424018730064,0.3213060183126084,0.4134434747825866,0.49852476611034335,0.5876286188009927,0.6798912608128038,0.762204987119186,0.7764879014515762,0.7223808364390765,0.678165707526845,0.6480534136330034,0.6190137466139776,0.5853343888412756,0.5354850822088257,0.47728040705337427,0.4177412656796078,0.36116146357254175,0.3272093702255203,0.3545681762101318,0.4185492882659001,0.48244877333325054,0.5421486048897743,0.5996323124264136,0.6512944404242922,0.6571307547361938,0.6458197990702537,0.6346794798303967,0.6364907081642337,0.6467169229203791,0.6584438575579339,0.6597125877442629,0.6812856468636692,0.6906860730816955,0.6870336609070422,0.6739070070130009,0.6766010624305256,0.6903067566427454,0.697052720536947,0.6794261857127626,0.6300204362374309,0.5723280076592492,0.512844685544309,0.4437031872702293,0.3843983803940667,0.38422890400120124,0.44160948520481424,0.5025487221958849,0.5579812154050818,0.6075655445067591,0.6432678891354757,0.6728435142958888,0.7039021882201282,0.7455487933798004,0.8125235487464313,0.8893874028821165,0.9599564052051013,0.9600692000853999,0.8770701385388306,0.790503966009757,0.7031162507361841,0.6108466399585917,0.5245294989534623,0.43686655520019757,0.3529604583469983,0.36339411989113146,0.4497138112691428,0.5341715938026865,0.6199985988409691,0.6982904441742575,0.7336571211891103,0.7225652384697625,0.700984684738047,0.699772326771066,0.7173483876848088,0.7321294163309506,0.7343183234643116,0.7361448058002691,0.7275268439386473,0.7191603730882037,0.7073462578098413,0.7162288308857332,0.724677727093346,0.7164802031421638,0.6844491741354228,0.6393288964336741,0.5796190881852263,0.5095608580504458,0.45133055453246507,0.45265569609665546,0.5103004302604859,0.5695658615299579,0.6228279165695803,0.665669732561238,0.696203760620862,0.7228332191639069,0.7485513574727276,0.8041769773010048,0.8759332645492977,0.952052763302859,1.0000000000000002,0.9496761312194686,0.8583451318289848,0.7680172840080084,0.6837136751231183,0.5920446056091013,0.500502172513474,0.41861116144375754,0.3976718939151813,0.47501114293262536,0.560596300827233,0.6457945104966603,0.7252644273112998,0.7631377101614472,0.7509984753181163,0.7243756905448298,0.7101848905706134,0.7169086476218596,0.7248482622289916,0.7234713842293723,0.7141151040624478,0.708705702474014,0.696224440189458,0.6885751508087199,0.6904826302742901,0.7004309659671839,0.7051902599542745,0.6753613071802753,0.6288021680788711,0.5735697110358466,0.5070002766590973,0.4431307706519405,0.41913822787410915,0.4676140834057996,0.5263408201559701,0.5788766914855905,0.6298472405626789,0.6646132974013039,0.6932886412818418,0.7197390384993354,0.7627041220275119,0.8304277675570984,0.9066759743013393,0.9749930442605586,0.9647224578916174,0.8857429877622958,0.7943126597492769,0.7090267364114908,0.6201722498601643,0.5290183188862463,0.48953857027866077,0.5544355605338367,0.6379590888569593,0.7156078950240987,0.750925892767125,No
0.9470338978061691,0.9295674252530163,0.924614448148748,0.951803517308551,0.9625956128940124,0.9444917570904353,0.8770787160992909,0.7968441527146551,0.720527718282184,0.6493680461939387,0.572541626517637,0.48949247320028044,0.4050569976216585,0.32601490543786726,0.24391921876104805,0.15921715278592008,0.07849060042810141,0.004611281104312415,0.0,0.07213032219216053,0.15224254403729442,0.23690760631614638,0.32012963297687347,0.3984945866848373,0.4824698770460284,0.567277290263254,0.6498891460809496,0.7285633708937987,0.8122794728004413,0.8823141722618008,0.9145721262914378,0.9001228582215987,0.8688162295410874,0.8271313371253229,0.774114754258317,0.7194333092010908,0.6619798106456037,0.6208952471010115,0.6456435359105567,0.7120233712528276,0.7799530055932743,0.8429202204131009,0.8987986416216999,0.9289392293213569,0.9256565414952586,0.9146730210887836,0.9074711129314558,0.9132559229461873,0.9159975925623401,0.9177074547497209,0.9229369147632712,0.9237174136676704,0.9182144600063759,0.8947832247842827,0.9094034967895951,0.9341893508193112,0.9340358268967311,0.878976846033647,0.8008965434513532,0.7222538890096631,0.6523555747905662,0.5755125462494296,0.49136902370899105,0.4104442714902483,0.330392059592169,0.24579343608397286,0.16450075066338732,0.08481643026853469,0.007413592796261748,0.006248935205524497,0.08335697183729096,0.16813123238449823,0.25056531533142845,0.32935941134926927,0.41370523527967684,0.4982700109796169,0.5777518917429968,0.6593041979340323,0.7432253726385872,0.8206691563176923,0.8797216681317598,0.8973423962690198,0.8747236123225696,0.8399171760400265,0.7950064366900952,0.7390551734423744,0.6807047574147943,0.6301381572497246,0.6142988901405696,0.6640981119072805,0.7307181028698008,0.8007919233635333,0.8620655711792408,0.9038800225854741,0.915450729723363,0.9110449628201865,0.9020502347731535,0.8996436487612441,0.9052078178962207,0.9091597241817165,0.9142770744280974,0.9180834888383272,0.9203387179416439,0.8984106822632539,0.9021212876631161,0.9322498244344805,0.9495269697596708,0.9439334532936471,0.8779316926405413,0.797254563133683,0.7187530176672176,0.6359760229885106,0.5541410505964236,0.47490288764471733,0.39040095067089897,0.3065515147114085,0.22823847464332314,0.1449165112684695,0.06606639519963742,0.04046022096212476,0.10416445004398411,0.18485103447283568,0.26471261832449444,0.3493508203852881,0.4341763644352429,0.5190019084851974,0.6038273960821822,0.6883444747620285,0.7676263200012051,0.84765903314042,0.9050490123650011,0.9110118127322478,0.8859221110839958,0.8507692834622868,0.8050277195718661,0.7494289327950351,0.6922105838971858,0.6371587854229998,0.6223438644378388,0.6756931633194715,0.7327998341005403,0.788085893584845,0.841643623054776,0.8831946510049423,0.9169737186526404,0.9408247340146155,0.9412156756734839,0.9010735492431111,0.8283974187566782,0.7503739424115393,0.6774717679099901,0.6012109467835766,0.5219603062334196,0.43781981050645047,0.3844577861245271,0.4405790426693931,0.5242154973009888,0.6025708373719382,0.6857633671077968,0.7670134993722707,0.8465468086981521,0.9251637406549466,0.9869141005551899,0.9999999999999999,0.9741522411716858,0.9574637472856514,0.9302311361354386,0.9315302195627525,0.9495163975823117,0.9474344858452409,0.9446195625063473,0.9390906038802257,0.9337399451550797,0.9264526887191203,0.9274864296999038,0.932984758917545,0.9427434384780061,0.9407970660526258,0.9188020227229651,0.8735151732158853,0.8081329136388226,0.742898113257824,0.6777438065255529,0.6546592831300316,0.7037137684807787,0.7617396490301259,0.8140622641755714,0.8598226804290635,0.8951594283420746,0.9206937675927184,0.9203896959245735,0.887715418142721,0.8144418392687017,0.7299292161493302,0.6495191646345374,0.5689686298150239,0.484266940422439,0.40627890651706045,0.41362012571206686,0.48818288318260283,0.5720166396220515,0.655664138738901,0.7339449477124077,0.8167822643524393,0.89474471148538,0.9661161915953188,0.9822609604494078,0.9642172298694304,0.9495812437712677,0.928406979485069,0.9454883508061432,0.9512200921323392,0.9522133389058568,0.9496031609693093,0.9480221306186692,0.9450130541580767,0.9433914131612474,0.9409562665666383,0.9380234572655218,0.9475799229539797,0.9587509642049284,0.9503410537614762,0.9150122602138598,0.8596561512140629,0.7926760044028235,0.7229378233947422,0.6660498370819475,0.6795995222618653,0.7372126889295064,0.794026949815796,0.8453791906039866,0.8874239116198063,0.9193858971075385,0.9458987164330989,0.9385624163134706,0.903523038419558,0.829952057518848,0.7505041171011967,0.6693711264070138,0.5846158870086283,0.5011399686781323,0.46859505883112773,0.5385561162067584,0.620128966174878,0.6995344340509521,0.7835085169984538,0.8620971302159076,0.9410960061040178,0.999573951060145,0.9956617279248811,0.9943012987837164,0.9756425134793606,0.9542031508636156,0.9723611404145157,0.9800030445438418,No
0.9338581912387408,0.9366054718225773,0.934724045020538,0.9383448884613913,0.9378101339468313,0.9224382372642791,0.8996946329720977,0.9201160455745049,0.9529769931646094,0.9633948591272173,0.9414040144888814,0.8769225786403695,0.8078341268529848,0.733086014824384,0.6576561533396023,0.5826457804360557,0.5130428871475566,0.44001816094263435,0.36486067334581374,0.2946894265804393,0.2224246802168388,0.15159217216505894,0.11915104537483101,0.16731195292083112,0.24146680278620836,0.31127964519744944,0.3840283983570876,0.4594327910443331,0.5348626178989956,0.6095639577822839,0.6771871146277929,0.7385572007608497,0.8105707286857419,0.883881809198987,0.9273583954911798,0.918852173103318,0.8968447052302783,0.8748321749013602,0.8412637053997342,0.8040202029568538,0.7751627054815503,0.7764180022069206,0.810492818314643,0.8584491429993256,0.9061573088677185,0.9259869877205241,0.9139214151619884,0.8995522830738901,0.9053877155181568,0.9136093037822407,0.9170034463128608,0.9126502614270006,0.9123631888664941,0.9053409889116871,0.8798312059596295,0.8828766261290361,0.911604163666684,0.9284184378771433,0.9159386706645732,0.8554894113655512,0.7863603778578246,0.7130269579015823,0.6411616571193471,0.5706069754263839,0.49560332406456065,0.425738055698791,0.36452042020660413,0.3132364366124051,0.25541748372662176,0.18709544360737695,0.11271275007214931,0.05419939343694391,0.07391850277201695,0.14648480161328004,0.22182877568575188,0.2933573154918909,0.3642396459757241,0.43952881780219544,0.5149575472788842,0.5893731194730695,0.658422234034917,0.7325803946748902,0.8078782083728074,0.8745418391605925,0.891794231546854,0.8835149584376673,0.8873445137219925,0.8663209728890359,0.828446022601366,0.7885434184775454,0.7695633278901143,0.7884523681673651,0.832168206901892,0.883365557472093,0.926716360746349,0.9426329823758647,0.9283135709946525,0.9156580069189858,0.9203990132891496,0.9326047327510437,0.9383754652481767,0.9408082456219605,0.9451691035163517,0.9268514021938784,0.8873044660812516,0.8670341921343642,0.889338800656548,0.9212873178614264,0.9197277083932102,0.8848417631055573,0.8191114613256484,0.7497820082386489,0.6773511367755102,0.6076586237603069,0.5326281019270959,0.45907722806083673,0.3898033265474725,0.31501171447066834,0.24151282219267478,0.17221131610782714,0.09804013748030549,0.03018408836061559,0.0,0.05718510709458269,0.12771104702180103,0.19942590648157388,0.2747590905916115,0.34636306586160115,0.4095770649404138,0.48175931612678624,0.5510646763973305,0.6259122586817819,0.7012927821315852,0.773367419421393,0.8331355582823804,0.8417284126166126,0.8419572294399263,0.8683956973672468,0.8916582668503789,0.8698413411409333,0.8458393865848185,0.8764872782591212,0.9116510251963438,0.9156274278223765,0.889668990137016,0.868640222259902,0.8822846625959567,0.9134269089575892,0.8803840525684566,0.8111217667973872,0.7407423612134924,0.6655420535333442,0.5928957999430452,0.5422189595589147,0.5827951546674696,0.656472780196394,0.7254944538450309,0.7978561873662396,0.8662832685044816,0.9252290602817076,0.9497817702829751,0.9531587727559862,0.9288971967202603,0.9031049348231069,0.9208268812274499,0.956962443653076,0.9703239839060093,0.9700504879044144,0.9611225293084112,0.9584502413549719,0.9489884963220453,0.9403360519580105,0.9491253049537797,0.964896583598497,0.9620464651155408,0.9324721133174204,0.8823079364396577,0.8328828329411687,0.8024065192925204,0.8210023400236511,0.8598222254948823,0.8951564683484522,0.9131741509317725,0.9133123175053767,0.9291653842494879,0.9697714382277961,0.95318675422607,0.882501688469829,0.8070977983357287,0.7333833636521107,0.6642005442982518,0.589471118956486,0.5140873777761336,0.45049011191543775,0.473208594217984,0.5429482921603698,0.6181578919965937,0.6894473002142784,0.760545465731998,0.8337845690592923,0.9016249908551889,0.9544677868643695,0.9602559063510082,0.951566569308267,0.9279270805693279,0.9070389312707331,0.9271456134095569,0.9379374157896262,0.9397699258405984,0.941877478260628,0.9397987201908763,0.9324608104848654,0.9264367802041092,0.9352007668396071,0.9468344613500891,0.9468830005514605,0.9185090657185618,0.8718984325643818,0.8252051600287037,0.8004035543733629,0.8248579323072688,0.8633224561927794,0.8951942199241533,0.9177812178039061,0.9398332510759845,0.9618123255587839,1.0,0.9913928370555903,0.927787446687598,0.8551483246051989,0.781774920951415,0.7124210475212233,0.6375473506188242,0.5621168786422338,0.48681450458685804,0.42991363926563386,0.46932900724116455,0.543009990935763,0.61203678193226,0.6860255741973528,0.7559357607739424,0.828335396274373,0.8985294037915482,0.9646243500912229,0.9957611274775827,0.9890634797684338,0.9762866452221289,0.9429000059514815,0.9310986266966398,0.9576883205784349,0.9622818910320782,0.9596851670706111,0.9631479172681735,0.9597218727680455,0.9574255857741881,No
0.38984416131870536,0.4364054224567693,0.4392348316391381,0.39423741184922356,0.38805384395296993,0.3964259465902624,0.4238201200883793,0.48452742469092636,0.534548260080606,0.5781672155996869,0.6193645605849096,0.6442891177796886,0.6469240526088389,0.6376262114395816,0.6149854567846282,0.6211358291040687,0.6347640816715949,0.6044826422400653,0.5355227742403845,0.45838240271080766,0.3827894927789981,0.3032434155053445,0.22772358763790745,0.1481407444778028,0.07263638983873677,0.0004909692516500419,0.0,0.06880353371677461,0.14943173124169773,0.23034937518511467,0.3062156088373811,0.38566322947502196,0.46707943301029764,0.5472927126793747,0.6228349905755055,0.703221250434148,0.7800173641463968,0.8126391703540823,0.7560437244676281,0.6881174854579368,0.63224451634538,0.5965792154822351,0.5606445431889171,0.517350764835038,0.46139518565937077,0.4165877029459837,0.41446576054336126,0.46049724984472573,0.5195611106234079,0.5785901961146325,0.6270423540557364,0.6510969190525504,0.6465918942884714,0.6463989469258491,0.65064395902078,0.6381319976260174,0.6517937438641863,0.6756799787075995,0.6573295572295192,0.5872993215521034,0.5106808062597912,0.4349537887286088,0.3547847450146351,0.2791094151579079,0.19934244888383812,0.12055080877314484,0.053020499891349826,0.05990998542642101,0.13059767766642505,0.21071389468882695,0.2907921445322976,0.3663463890256651,0.4469333385610741,0.5283267021456144,0.605134379910466,0.6706218319897639,0.7484264328189685,0.8248779425175321,0.8280755328014557,0.7616619903076656,0.6977907045024068,0.6456575785599892,0.6118617509484949,0.57645750885379,0.5281252054825674,0.47244720622312353,0.431022257734607,0.4440282148461585,0.49548605954271197,0.5519788376633061,0.6057175911513641,0.6317526928092907,0.6296933733879804,0.6233346156977377,0.621490753945837,0.6133006939862251,0.6216114746694648,0.6383346272586568,0.6059624599132833,0.5355466376345619,0.4583085975071477,0.38238855586800646,0.3019699165924239,0.22618067585555113,0.14699942867022908,0.07133793577783187,0.018466537650439152,0.05715164062690126,0.13351819192560477,0.21482157556973502,0.294131865565207,0.37008601897313276,0.45105762928566984,0.5324513020665556,0.6110036757268087,0.6875070474452873,0.7634211217400722,0.7740798306513863,0.7124372139257231,0.6530338156823929,0.6133402571571196,0.5746704382748167,0.5336862116705565,0.4801768198783105,0.43160719555924487,0.41174458287071736,0.44686472489877027,0.5029629561270506,0.5608466392453091,0.6044937452569428,0.6147725148672312,0.6020509595489927,0.595274950263531,0.6043550413164638,0.602721710068425,0.5953009266810061,0.6142339227276172,0.6195543392188161,0.6286923645174123,0.629175837303942,0.6222476396310703,0.6291604296265148,0.639526846071921,0.626562594392069,0.5822900379504694,0.5272052593836187,0.4720624216186766,0.4411432074283612,0.47349325990624647,0.5250168369246571,0.5731390031764285,0.6118390795277817,0.6502150202291694,0.6985800382160059,0.765089917942511,0.8404635901651871,0.9100247645557547,0.9309320892425943,0.8713068604060008,0.7959654564841068,0.7172723536712879,0.6406143459540823,0.5622442443610725,0.4818802901107504,0.44534013766597713,0.5040948297508818,0.5783655019591138,0.643378583201714,0.6637256058711225,0.6477955192175489,0.640452196771014,0.6464070767737187,0.6433248871528756,0.652584066158578,0.6558029747824365,0.6356337138741845,0.5893503141233662,0.534380044937945,0.47919257015321604,0.46796978930144006,0.5159970476736349,0.570638656591052,0.6126197814925469,0.6445623612834055,0.685282705115805,0.7465740211062597,0.8179118420065838,0.8894284349301729,0.9613689047263205,1.0,0.9510289563158547,0.8761720795819936,0.797885865902694,0.7165037036595545,0.6350670941314862,0.5536329705327758,0.47316185104853004,0.40838224731027317,0.43190438618598703,0.5078528203559662,0.583664285596577,0.6573452106512829,0.7108479442206523,0.701500457334381,0.6750406086002598,0.669211163363755,0.6770036448857966,0.6681546881515055,0.6719614107329273,0.6703671470226005,0.6429640867439494,0.5938220696657968,0.5379889006827796,0.4797332273753381,0.44631997532374856,0.4822253719042886,0.5366508697706609,0.5797661689251983,0.614457357721709,0.650917143098841,0.7062548731131371,0.7797985744687059,0.8540248820145873,0.9265543968728913,0.974913618477016,0.9385460466319984,0.8632995205833192,0.7876312635828988,0.7068707937499112,0.6284556196698354,0.5518149973511295,0.47060703545087734,0.38954689215015725,0.33834056547642044,0.3918420294604361,0.46929745637559495,0.5451065609842778,0.6154140647888211,0.657571443479434,0.6549757285216757,0.6429205152985713,0.6605286893982256,0.6703713960763054,0.6698287531903573,0.663205437731675,0.6286036401228832,0.5882128482342888,0.5419580586125587,0.4958260668151093,0.46766296194354595,0.4250671876848888,0.4318655327397334,0.4848380424354408,0.5372155715633438,0.5810842398852667,No
0.46740113582129633,0.5029308787581479,0.5020334410808329,0.4493697286932427,0.3917844178054049,0.33454060558332627,0.2748281723798001,0.21694664469678127,0.15989404528183254,0.10029107660488795,0.043326472057007404,0.0,0.025233053519155002,0.08279461797157733,0.13920262392248717,0.19866797253897395,0.25851832193226465,0.3183488860370746,0.3766435176857547,0.43319494922468577,0.4853362996945532,0.5063251825527009,0.4840800431969174,0.47385160361668627,0.5125033723509962,0.5363078313751191,0.5434559539724608,0.5958756007728381,0.655685244858313,0.7155218153098359,0.7734759935111895,0.8021949929975476,0.7607861566422576,0.7061823954967346,0.6544547216314069,0.6139709044719985,0.5925472697070768,0.5726329322719885,0.5412287674172862,0.5154137337014406,0.5255088659928109,0.5582209273574719,0.580134557753418,0.5877647196887976,0.5887614166636084,0.5937474197649344,0.5968542850645131,0.5948976696368524,0.5904699106900426,0.5754548828557229,0.5877035266536719,0.5714380470557063,0.5191866730362307,0.4677835597994677,0.4108402395770105,0.3545128795624491,0.29518528431390606,0.2375913074970577,0.18028169127202726,0.12162924395985703,0.06546325023107286,0.02246987553216584,0.04923826968651007,0.10531389656949597,0.16298446354873825,0.22278201504133227,0.2826330656066331,0.3424841161719337,0.4023351667372345,0.462186217302535,0.5220372678678358,0.5818883184331367,0.6417393681706092,0.7014779072351585,0.757738584346348,0.7821323369497244,0.745911511840011,0.6999323955583907,0.6509890948525727,0.6117886647007131,0.5900494703822612,0.5691491755975484,0.5347473469612694,0.5057640532274945,0.5125518281946715,0.5442219509529655,0.5651393293158529,0.5732885730415949,0.5713477353204754,0.578492132668355,0.585100124410191,0.5946480986572982,0.597496234306522,0.5834781472942259,0.5953514756229565,0.5821360601984897,0.5290836269174937,0.4729586231719402,0.41395935717067206,0.35514436615936745,0.29876842464262293,0.2393681651757863,0.1812244644760147,0.12441541331467054,0.06774951837148419,0.05086188585386625,0.0986174180788581,0.15823703966051011,0.21602746087139918,0.27316184021302964,0.33289632651826934,0.3927473770835696,0.45259842764887065,0.5124494782141709,0.5721971500452807,0.6294045081807786,0.6871144487742209,0.7469138873518903,0.8053389833226035,0.8251389443563746,0.7774312151302394,0.725822840111142,0.6787234760030352,0.6362511402977709,0.6112395737778529,0.5917622991148888,0.5604470579926155,0.5287575947217447,0.5241736655911451,0.5543483924978727,0.5860863323365699,0.6049072742260748,0.6121104647439726,0.6130303405181772,0.6200707356107369,0.6227640033055644,0.6233133069042762,0.6083088718290381,0.6031159394143868,0.6226291718809644,0.6375112628948947,0.6320940110697133,0.6222392612115439,0.6381433763315982,0.6400662061269573,0.6390949839760007,0.6316139073897067,0.6302859712061823,0.6284722763018789,0.6151958829536304,0.591040951717956,0.5567710925767486,0.5453354145864326,0.5745219538065518,0.6047686053503674,0.6251778453092935,0.6501696994202408,0.693550944582233,0.7499832521013461,0.8060041468024246,0.8619980460981018,0.9182413233101823,0.9729696412793611,1.0000000000000002,0.9601228784297939,0.9033786249950908,0.8436640298862241,0.7838597675975425,0.726088442169913,0.6689362387670426,0.6091989919920604,0.5493479414267604,0.48949794267847474,0.43143698983739437,0.41713110916982826,0.46926375603350595,0.5259158660004515,0.5812838248027787,0.6178952655339627,0.6106079208708972,0.6072567387732142,0.6174852582227661,0.6072103302526723,0.5999311073932008,0.59200914646407,0.5874607710887809,0.5890504021889829,0.5781474557888115,0.5553202511593165,0.5266573584620418,0.5358796481884172,0.5704787774727857,0.5968808051962728,0.6154695843868914,0.6495455701762789,0.6987212219910146,0.7536695575653354,0.809975992837509,0.8668798036193166,0.9223162441947057,0.9731362805260588,0.9743654629389611,0.9214388949075054,0.861805799635287,0.8047360586940715,0.7468735962432285,0.6870634655430352,0.627212414977733,0.5673613652402609,0.5076227524771846,0.4504673039046317,0.39270084925367793,0.334429370941886,0.3173753567175553,0.36866418821602326,0.42753345827013794,0.48385730209786854,0.5418952571244726,0.5925517633777597,0.6104864543891468,0.5986054237800327,0.6084125261436377,0.6121865426054212,0.612483592483744,0.6095812785228372,0.6058604672669587,0.6045730537478449,0.5981057489425707,0.5804067985807833,0.5481202432711518,0.536232704376493,0.5643462309190275,0.5917193135461656,0.6094961265989334,0.6349880521907749,0.6802827957784174,0.7366361605911962,0.7928977503329848,0.8491515230201743,0.8986482631052373,0.9521424974999506,0.9862077227899564,0.9518457226574806,0.8964072311654419,0.8465772073067124,0.7878778677487053,0.7280294758814192,0.6681784253161192,0.6083278184946439,0.5488112322915011,0.49777877533717024,0.505594021171017,0.558436925470176,0.6008069596778098,0.6012035975055163,No
0.0,0.03887536246622747,0.08083282038336437,0.12279471632387799,0.1647566122643916,0.20671850820490517,0.24868040414541884,0.29063765907524725,0.3315886425283644,0.36979501749971916,0.41133926366384105,0.45330060961674007,0.49526250555725365,0.5372244014977672,0.5791862974382809,0.6211481933787943,0.663110089319308,0.705071598746719,0.7466585781022609,0.784896734602172,0.8257738798405453,0.8676911613011902,0.9018083726489797,0.8906026926850609,0.8696453442496465,0.8492789123056156,0.8282546175803414,0.8054569370269606,0.7774977043953978,0.7474838693763086,0.7199434728689745,0.6905422424970412,0.6578458586706237,0.6247122765801203,0.5904299685899248,0.5593943240138548,0.5375291000057659,0.5463806741813736,0.5766859210722062,0.6106611887675326,0.6462400451094912,0.6815747337519206,0.717462741895896,0.7530879352001444,0.7894556948403422,0.8230891026327095,0.8478455806852345,0.8601867921232697,0.8564193501350829,0.8642548002279093,0.8764102874623575,0.8775224621995757,0.8630298622922451,0.8393228504921536,0.8079267872868424,0.7749931899576612,0.7462215763874273,0.7117979939205005,0.6756305092548746,0.6406147495030311,0.6053828674087457,0.5700782263374501,0.5627395420299565,0.5892109994785973,0.6208047838048528,0.6549577311442404,0.6900629440311639,0.7236684624471931,0.7547892500838468,0.7832059388640396,0.8115263496547109,0.8360892799770429,0.8568640484268649,0.8774149513305517,0.8986216258899635,0.9300152293911592,0.9651514785995073,0.9837853900187178,0.9579988224548363,0.9204395568544477,0.8791450083845181,0.8373387886381487,0.7985609964577727,0.7584278943644798,0.7164883885685649,0.6745264926280511,0.632564596687538,0.5906027007470241,0.5486408969997711,0.506911325597669,0.46841280505150207,0.42793194643662413,0.3859824952757026,0.3440205993351894,0.3020587033946756,0.2600968074541618,0.21813491151364858,0.1761730155731348,0.134211119632621,0.09225953349035267,0.05479343247005368,0.06404180794289528,0.10484635296174434,0.14680782845278464,0.18876972439329842,0.23073162033381225,0.2726802765276964,0.31312237869182147,0.35164771772766873,0.39338999490068904,0.4353518258051332,0.477313721745647,0.5192756176861602,0.561237513626674,0.6030926594249572,0.6421283219430294,0.6819694312488142,0.7238958231574817,0.7658577190979949,0.8077492807292261,0.8470718283213825,0.8865589287280807,0.9228112392627417,0.929485372582803,0.9175382287888028,0.8997874111983358,0.9048736309715694,0.9076449001527086,0.9035650015636256,0.8992952725771246,0.8952117640762141,0.8929162053904629,0.8928728371933958,0.8927672742474392,0.889758851890611,0.8845088554935888,0.8760547423374072,0.8726084759825098,0.8775148566418419,0.8802220200359313,0.867905519378853,0.8439274300255124,0.8136122511023651,0.7802933984426843,0.7449766398805624,0.7061246649091709,0.6698632730483784,0.635395295132182,0.6009178651531535,0.5761409701642493,0.5910714463371131,0.6237113895816214,0.6556066194708992,0.6890513374547729,0.7209022928064002,0.7529878186643307,0.7853258185414379,0.8142174060536694,0.8391895978208355,0.8629592544658041,0.8838757037705047,0.90245405690796,0.9324272417952696,0.9684929371277512,0.9999999999999999,0.9995049660085334,0.965013667797184,0.9250532311217584,0.8863014966385065,0.8444904862726539,0.8025285903321395,0.7605668396060697,0.7188620747090954,0.6804159140713496,0.6398593881002402,0.5979083848608191,0.5559464889203047,0.5139845929797915,0.4720226970392784,0.430060801098764,0.3880989051582508,0.3461370092177376,0.30437205588163674,0.2788115299354569,0.30772994766263795,0.3495761752768769,0.3915380712173901,0.4334999671579033,0.4753934664738453,0.5147413587755023,0.5542505834448653,0.5961582766887116,0.6381201726292247,0.6800820685697392,0.7220403555907317,0.7630908001294026,0.8012595377526288,0.8427395013823343,0.8840151415340861,0.91906922993478,0.9431951799837439,0.9527914712353791,0.9436525168581219,0.9407263035310155,0.9526368782682317,0.9597297076670721,0.9565756749600665,0.953852069451771,0.9537212647329107,0.9464669451311385,0.9337664294986573,0.9220189907150507,0.9160475529713581,0.9062683781561246,0.8869151751792812,0.8723846192287165,0.8712442748516867,0.8793703794668319,0.8808407800968361,0.866926506810217,0.8427924381560582,0.8116039679757063,0.7777626452631808,0.7424504195610115,0.7064661082188969,0.6689880194112569,0.6320003522239122,0.5983161130600204,0.5796563809038576,0.6000345971813665,0.6334600048549018,0.6676576991554669,0.6999589332157784,0.7324107424789876,0.764122507686997,0.7933063912278557,0.8178683855237397,0.8372975115796066,0.859619659975463,0.8777206014643024,0.9030200737417569,0.9400948685884857,0.9764013558789522,0.988860890732057,0.9606885382021131,0.9216769885561746,0.8825714742017483,0.8407088142588125,0.7998543027889614,0.767623975690274,0.7584460867719048,0.7942881583527585,0.8358895328934395,0.8739536639025883,0.9064384538981722,No
0.37687298075720155,0.42580836022702906,0.4798125738745993,0.49955311730250895,0.5210809540305883,0.558168047970645,0.5989092010918315,0.6237948557929576,0.6301680607638169,0.6279256367570392,0.6309744356884304,0.624859309160154,0.5998134746030279,0.610590440471769,0.6399312086346771,0.6445134426656081,0.5893894487120097,0.513570761781238,0.43548438700038816,0.3573979522913684,0.27670415248089864,0.2004436212227767,0.11974935496829398,0.04665893727104853,0.019930440309093633,0.0831287019306306,0.1656086824557883,0.24605918309264396,0.322548171503384,0.40480139394569625,0.4875833415634583,0.5698853473913685,0.6464621034395586,0.7267544821355751,0.800622703373125,0.7882268516579518,0.7227844575434073,0.6704795717665897,0.6383446654680092,0.6151951070896196,0.5908432068857243,0.5517270391247269,0.517428265778588,0.516928760085493,0.5488880379067795,0.5932940983427109,0.6153549047304416,0.6193321803720884,0.621161334756676,0.6081717020329978,0.6149633312500193,0.6035662042136698,0.5790059237967433,0.581017121376826,0.6112557742219793,0.636761332012963,0.6067689022197322,0.5327121335806129,0.45521962379183645,0.3763890657967941,0.2970855829839112,0.21981915461927048,0.14073553895938717,0.06406787759515165,0.00359217225877273,0.03146481360932085,0.1093477800970939,0.18556390656079547,0.26644449780554313,0.3492086929126037,0.4303090863984078,0.5064504060962189,0.5883924541873389,0.6711567409035539,0.7467569168697781,0.7430223739821953,0.6850903688635956,0.641323642293399,0.6190383628347222,0.6033819409852439,0.573082810362141,0.5362074155445749,0.5115979335788248,0.5292225463805014,0.569475488350665,0.6053632171922896,0.6215610078092499,0.619290437870476,0.617584646855369,0.6148415261796891,0.6178466824599187,0.5901353106058089,0.5962626362954084,0.6269413845536942,0.6448065716684861,0.5972235146547282,0.5226645480076464,0.4434317887524706,0.3672403003695388,0.28606414346176656,0.2099285127469508,0.12914022290421223,0.05268802122278338,0.0,0.036646952141490274,0.11067470077633257,0.19200271542772773,0.27095790191992775,0.34865182974429554,0.43124391810799234,0.5140267164337029,0.5968095147594132,0.6795922715782561,0.7613681017532004,0.7996895381308595,0.7456056705828011,0.6847071596241994,0.645266981678225,0.6204174453943294,0.595909204313188,0.5623253922279792,0.5174620430300254,0.4834943673636556,0.4994616813557462,0.5338178076917297,0.5793268586015461,0.6164694350349222,0.632103221625355,0.6271715183700481,0.6216170140821282,0.6228934426946728,0.6193094142692586,0.5902397446586487,0.602912221113266,0.6380010084825394,0.6577375856627179,0.6543138495995358,0.6586488738051965,0.6670348015062493,0.6576201463552078,0.6407624662832541,0.6016271027173841,0.5585625460235146,0.5307501106441099,0.5520258330312202,0.5937818656193716,0.6260555926204827,0.6501680794414677,0.6750302551480338,0.723110139205158,0.7885335846846182,0.8609875760388492,0.9354805881332917,0.9945457191158689,0.9700365827108837,0.8964264448006909,0.8144558531177879,0.7372323144371835,0.6577449056934845,0.5750075261521208,0.4922289736392662,0.41264934105248896,0.39660443852741434,0.46400530607707013,0.543374098063127,0.6180333645732481,0.6692959083101762,0.6759919352037957,0.6511371266189732,0.6308193572706007,0.6504758316915149,0.6586211715286789,0.6525121432862813,0.6563534319364899,0.6621490720240779,0.6474801472390068,0.622666698995122,0.5799128835278047,0.55208648221106,0.5716419286585461,0.6082831324219793,0.6418608278184872,0.6533701492134047,0.6746651099239063,0.72398110796693,0.7952705705945731,0.8706813977059096,0.9458157521182704,1.0,0.9703492879475628,0.9047951282713582,0.8321603057942701,0.7513547601930484,0.6685836870908215,0.5862456975912742,0.5095761064470989,0.4293855701152771,0.34664777910285327,0.27239107678962515,0.2882051701093691,0.368321891425907,0.4508787174992557,0.5283302532958414,0.6048476435007666,0.6654075583336252,0.678760671470352,0.6585344578996966,0.6311576371917267,0.6249704970733498,0.6449787113824645,0.650411893133054,0.6541571972480256,0.6617287386508757,0.653060005170687,0.624724903441171,0.5819854979511705,0.5472490895330151,0.5551241798412541,0.5938597241207944,0.6269976490315594,0.6529013850158356,0.6739488359407309,0.7136462510663197,0.7778373314349605,0.8488150150806386,0.9228395820991853,0.9721501689886425,0.9343308118472602,0.8536879964271622,0.7724413565340786,0.6963483399534063,0.6145081382654296,0.5317273710343571,0.44919279352462205,0.37276417361288483,0.33837884462622947,0.40312092588165616,0.47939953291150283,0.5585797528871417,0.6328640638908933,0.6884565141865884,0.6868992194985213,0.666010949485454,0.6429163239047893,0.6459879945031222,0.6646237449280863,0.667284238799432,0.6687122185978616,0.6614479302869947,0.6441151981512176,0.6095638656101701,0.5661146515494562,0.5460118585392746,0.5748704779063316,0.6126000490919703,No
0.25034553278301774,0.2974734856711645,0.355694767150152,0.4033262326600531,0.46636650734221785,0.5215965813278614,0.5494434054379993,0.5517050108581585,0.5456055527722685,0.5427780639204347,0.5459657128554358,0.5440227134631486,0.5306017483281218,0.5500730443840034,0.5726245663516103,0.5428313007979602,0.4676296138409166,0.3874699683390648,0.3016721420037367,0.21772279166521358,0.13718669669982098,0.0549189970076861,0.0,0.03985171406602073,0.118548344828042,0.2027530278235854,0.28776337191069135,0.3678404427760955,0.453124822260786,0.5393444814735215,0.6217749193395676,0.7036429181666799,0.7863397708922386,0.7986490069797014,0.7277247962811491,0.6536421801602001,0.5939625205521724,0.5516672727185177,0.5196452834619836,0.47826558823426124,0.4256015330987124,0.3660699128732918,0.3073090086106429,0.2854925347164794,0.33320263121878324,0.39856712342043665,0.46321989929037977,0.5235101928468124,0.5605245020950924,0.5623674521663542,0.5568737613100403,0.5594577071788085,0.5666434918271435,0.5741041450534987,0.5679303952550898,0.584769122314748,0.5996855797147123,0.5535126032470197,0.4762806062253848,0.39391814544045634,0.30772365344050345,0.22396451257564642,0.1434161434197645,0.06274910049749627,0.008371845161489033,0.049942462272788535,0.12852164204881045,0.21382484542775426,0.29913805929089965,0.3792046430124354,0.464210007467287,0.5502101141632323,0.6311807010202599,0.7144998715106887,0.7819070291968315,0.7456120590041049,0.6717999466138544,0.603019541837553,0.5550020849194559,0.5214237274655193,0.48180003160414686,0.4320924319787327,0.37481705247779895,0.3125636507370364,0.2595949736770897,0.2605887602773602,0.3199404785704656,0.3870112560586638,0.45367370917398175,0.5143554624011641,0.5518601205446254,0.5592412873101733,0.5452203232737913,0.5426285225931671,0.5501999751519098,0.5549203657563591,0.5429323673331676,0.5415651089913673,0.5655248623110936,0.5600334985568072,0.4958738504557221,0.4176652997964203,0.338195242247771,0.2542561225881024,0.1742310034150807,0.0920843007102582,0.027788554599129323,0.05175056529092703,0.13026937366533575,0.21634373426500542,0.30265860799074873,0.38897348171649004,0.47521825598585465,0.5579884211751718,0.6395443002758685,0.7245153998522489,0.7689665408136619,0.713193989880853,0.6394038472081678,0.5768087489856359,0.5313093362487811,0.49796953514497133,0.4576750863490171,0.4091580312325007,0.34652534760859743,0.2908797516532988,0.25907641641360124,0.2939890702915622,0.35809547745911074,0.4198652098924527,0.4815204222906315,0.5317942648513754,0.5629898964692284,0.5604762730761961,0.5179088382929091,0.45598939935166705,0.3899862607754019,0.32540701917167913,0.3097100603058709,0.3598192429728855,0.4191397310112206,0.4716302379042967,0.5115932060794941,0.5462864875866427,0.5883961200309917,0.6538581582041567,0.7291506251215354,0.806811483078882,0.8848561710103116,0.9538734638710564,0.9435128844251035,0.8696192694481042,0.7985766204562295,0.7162846085356416,0.6337238798793359,0.55202899112248,0.4658905034246752,0.381625359333315,0.3403723572666342,0.3989828019945274,0.47870093503961475,0.553345577768618,0.5969526941883039,0.5917573563405545,0.5687075556542025,0.5728790809676045,0.5769513408338727,0.5756854888859206,0.5703320560033385,0.5789811097194992,0.5819044960289976,0.5652722779681951,0.5205405070172329,0.45949974283680883,0.39219951349157123,0.3212880141050858,0.289789681348386,0.33524925048009013,0.39708208653801647,0.455769708670404,0.5023904984421141,0.5426774429412278,0.576166289080233,0.6284622628564676,0.6993879765970072,0.7751368212351464,0.853608457814889,0.9320479902323013,0.9795625955441869,0.9311232319245395,0.8520234241534916,0.7678244619592329,0.6838817626691185,0.6047684669310853,0.5325801780291992,0.4680137049945656,0.40819146651103044,0.3347850534486696,0.2730133527718177,0.3201089448135872,0.4012533800731408,0.4823038451196291,0.5593344489592804,0.6178447980388078,0.6217898372106325,0.5989994225945363,0.596717218874423,0.5945828438779048,0.5863716994939698,0.5810471841307823,0.5827631176567349,0.5872079605725979,0.5793985458602293,0.5406845499850408,0.48231939824920844,0.4170755948959588,0.34926346952377596,0.3343722570073999,0.3865330539679237,0.4493843868374445,0.5003026423832879,0.5400387718363071,0.5720516724296298,0.616043529930727,0.6810192082864888,0.7498164100511768,0.8181054819000926,0.895976001535916,0.9726067542759984,1.0,0.9379660241652623,0.858865421798207,0.7747822405916567,0.6936156682914345,0.6104233725077901,0.5241621956297322,0.43950036127432734,0.3803190350935899,0.4233548683644446,0.502626950124367,0.575708356434079,0.6032124621325916,0.586447554954536,0.5619941470473688,0.5660359231635235,0.5726681175215718,0.5685953822685479,0.569061900286536,0.5777230494645875,0.5778239845527633,0.5559733071658686,0.5094991010692012,0.4576114291584199,0.4007427305359914,0.3426328927773643,No
0.6508490598452529,0.687334415215009,0.6940327011419279,0.6742982523314475,0.6692711202105507,0.686113695363897,0.7045361092868793,0.6956481878590849,0.6918348151908696,0.7024098828941711,0.7261014068400077,0.7162308068489177,0.6552757740394443,0.5776107462264509,0.5005218047969288,0.41862054933862225,0.34077966387965153,0.26338830365590205,0.18138230348830608,0.10211926403722371,0.028785154451157702,0.0,0.06098485067247039,0.13637359802098648,0.21622126513684659,0.29837826012478585,0.3805521306416345,0.46242440137186,0.5387815627921205,0.6177594324273173,0.6998923290155227,0.7798291389211102,0.8015512079293875,0.7450973478998614,0.6984655738322932,0.6624657380737146,0.635074141533038,0.5994503737225177,0.5578386671547434,0.5103368687533981,0.459538615898733,0.4206881974619322,0.4233023018203833,0.46696569735137683,0.5239749990192301,0.5856658920687302,0.6382801109078354,0.6788163544027083,0.6925101175803724,0.6744451428419617,0.6574150885005211,0.6584295074619287,0.6716288646868117,0.6711832849803211,0.6553943743620622,0.6698191926034877,0.6940717231496912,0.7101739781573774,0.6772101545241377,0.6025234800252574,0.5271873354626005,0.4459013344709456,0.3672523019236239,0.29061025348795544,0.20874924898951652,0.13041171544884078,0.05632974818105396,0.02735258706498911,0.08881889861500625,0.16389194038692734,0.24500447476798148,0.3271758416860059,0.40929587204624507,0.4879307763143915,0.5645813564448018,0.6465172227439436,0.7285039988995506,0.7883184064157308,0.7532283969820733,0.7037822654318605,0.6679773666988634,0.6391451165155922,0.6081576355256181,0.569039677156063,0.5205159299283978,0.46953421253370864,0.4258640384352569,0.4147593393506829,0.4539795331940081,0.5110543858555218,0.5740363650122761,0.6307177533858738,0.6725625716778653,0.6881224216678666,0.6765579722291165,0.6622601390171362,0.6697296721072908,0.6848600253597662,0.6929354507340585,0.6835605146050746,0.6828356620036472,0.7085317024403911,0.7221783682974842,0.6968685720503603,0.6323404720741298,0.5537722099906536,0.4779421452044218,0.3983227420982999,0.3162663933408504,0.23837298636146753,0.16103406418582444,0.07971445173914704,0.015293836842173891,0.03243047904762608,0.10947551744741935,0.1907699449468102,0.2661362110544939,0.3466264771249107,0.4287927855389725,0.5109666724292238,0.5928513188504504,0.6692496315852984,0.7477673647137594,0.7994273717249859,0.7555143921968143,0.6995710977173127,0.658415097530152,0.6259505170680423,0.5905781680699241,0.5539432150273383,0.5096911664962874,0.462511714448545,0.41853277418120693,0.4143437012377801,0.4586517624741685,0.5165981050086182,0.574833455209521,0.6326529103867563,0.6889764045429853,0.7319627544035455,0.7456149486467684,0.7404520479191367,0.7618367739351287,0.7761973580503588,0.7649113291570361,0.7269067235151302,0.6761220132031477,0.6204853762005395,0.5618781036583017,0.49904607117773103,0.44822042160912934,0.4527296209391357,0.4994057637049619,0.5442392829238379,0.5865913506378094,0.6226767111211943,0.6579071686119341,0.6908973693382693,0.7370425475100287,0.801817166191635,0.8740100907179861,0.9448403596774456,0.9725537357385555,0.9182471986701087,0.8407942409579156,0.7632684749902173,0.685655191385686,0.604578515126804,0.5687862855623632,0.6333565188626101,0.7043426019197948,0.7435414769068717,0.7514263440370875,0.7316973706616517,0.7099043649967692,0.7137883058394633,0.7215128420305478,0.7145951439577255,0.6979051741555583,0.6943900985958568,0.710560852683194,0.7200607527180906,0.7012993105763331,0.6660087441951873,0.6096044055452311,0.5491992244593987,0.49069430698635086,0.4513799194872795,0.47637011109640726,0.5239250748213872,0.5734782247959275,0.617247692961825,0.6502732310140112,0.6780622162608169,0.702554728816356,0.744727389115576,0.805798438548384,0.8766436288598328,0.9450996665604842,0.9545386808926967,0.8884056416074771,0.8122090132481409,0.7303664284534629,0.6508670187896727,0.580424337837668,0.5827923560386187,0.6535618164776417,0.7193486424285208,0.7427432445958252,0.7341425712712543,0.7048421352401547,0.6889093917148538,0.7013332383827787,0.7043721944147988,0.6924982796949709,0.68490183856272,0.7026814134691427,0.7214252741362507,0.7125824811866649,0.6781085432949948,0.6271486838374415,0.5683203618407663,0.5119662295168145,0.4619160102997367,0.4621941315444148,0.5077009705065695,0.5558904953904694,0.6009523630923189,0.6404570824098162,0.6696068025966947,0.7009536667426078,0.743045893381805,0.8027181921111733,0.8731256815695981,0.9466626843473508,0.9999999999999999,0.9652363694720926,0.8920283043474272,0.812313100034226,0.7303600155012423,0.6540104727095323,0.6105448354569788,0.6645260866909725,0.729938621896408,0.7568687325404998,0.7541030828801513,0.7345478963282223,0.7231417796347225,0.7316563554192116,0.7220320231260601,0.7008519452375913,0.6989765754548397,0.7158186136633661,0.7226854336095413,0.6984326757466816,No
0.5252889635132669,0.5857367029519054,0.5680385158383716,0.47467319498507177,0.3831009945691215,0.28603019221891257,0.18333454353612422,0.08220814357136863,0.0005023518816542616,0.0359125269968108,0.1396721072881727,0.24612387043030037,0.3467842401446095,0.4505860700279751,0.5573902407330624,0.6614352652169149,0.7618648238658361,0.8558284870596835,0.8547135822694223,0.810546738400187,0.7641319887605496,0.6964145074577943,0.6192751486889347,0.543903853838827,0.4941328472291011,0.5283081293881897,0.610932049627797,0.6927295106704545,0.7694045817122905,0.827102931350129,0.8486622791877139,0.8364537569708126,0.8062559901760882,0.8050023564634292,0.7988500107848229,0.8221170521600474,0.842723771637514,0.8066067621081037,0.7269907014242458,0.6474462462485977,0.5511721744309686,0.44660393263359266,0.34664818730073943,0.24212349494006458,0.14133379484736952,0.040377393813948226,0.002325859684124909,0.08218070957287016,0.18502987225219902,0.28555094830641625,0.39195334106689406,0.49794679966271516,0.5978899455841911,0.7028451796004731,0.8080403391985171,0.8574601386714051,0.8131077858107976,0.7735754749148913,0.7177029239101678,0.6462604933194738,0.5675648888901976,0.5078794574333749,0.5200762260696887,0.5935015994254103,0.6738894993066813,0.7536428373071196,0.8107024373449347,0.8242977064400427,0.8124647606974742,0.8202294748944585,0.8212046751714042,0.8187349463990043,0.8567523962280015,0.8575933756895033,0.7841148629580852,0.6846946725967926,0.5820622437271172,0.48138481900307917,0.3777532010654048,0.27457948546115185,0.18281909839157273,0.086460286112375,0.00869724311299569,0.05420230241311186,0.15368163813530944,0.25608684342359744,0.3615926057006913,0.46126019757969483,0.5592841979404659,0.654813442912132,0.7588803090386242,0.8472406774179071,0.8485050069914974,0.8100852525827853,0.7578455137406019,0.6879283595735297,0.6099462742448578,0.5388724447074857,0.5157538158001858,0.5723500603377032,0.6514717706153874,0.7327783613044956,0.8038292212646407,0.8343130410902573,0.8268705899452524,0.8252133243169928,0.8289103254162271,0.8086620565500942,0.827176002403444,0.863907490200521,0.846892590052452,0.7648372416947886,0.6638130349843712,0.5623090217566264,0.45977112407378495,0.35835374530720254,0.2564955396379258,0.1542818556469191,0.04953687066367085,0.0,0.07199375802756325,0.1659769758148152,0.25674797688500917,0.3618088450831989,0.46174569438413293,0.5667137253922856,0.6731837658412194,0.7737443062614711,0.8547527316718628,0.8369352582419676,0.7936753703902548,0.7403617122567336,0.6699717918028114,0.5887705108728656,0.5136448781882565,0.47775397568165645,0.5242393821587934,0.601506201372281,0.6866699314851821,0.7676823236133001,0.818740976137595,0.8365588914329134,0.8544945326944497,0.859424938822412,0.8292367419025692,0.7671512375001144,0.6879722755218451,0.6042859811815882,0.534533332332596,0.5520030179147222,0.6267208895738647,0.7074110382161878,0.7766877876334959,0.8263089619461521,0.8694982088004579,0.9433432530552366,0.9804444320325618,0.9052393720777028,0.8057606210935089,0.7013235908902673,0.5945034976940444,0.49341854638333915,0.4712545440461542,0.5577956390512329,0.6634189217482929,0.7696963697875725,0.859739670029283,0.8971814665134947,0.8827871870043389,0.8500925019798233,0.8598596499427129,0.8564928236637188,0.8553800616377263,0.8669927840986267,0.8524670070431395,0.800368036442866,0.7249400624536237,0.6448768375183036,0.5710421211309964,0.5722935906801729,0.6412452551165848,0.7207288787652197,0.7876100896198643,0.8364864163879897,0.8783548069243765,0.9542037189006025,1.0,0.9330168880944845,0.8344034926815695,0.7288410683248263,0.6223121096105324,0.5356705695988107,0.5637361795555147,0.6654284041019851,0.7718576662174785,0.8632010772213825,0.8992511948911903,0.8860158566827236,0.8542687057377727,0.8577815988076047,0.8489468448692492,0.8527223399689199,0.8534382806676717,0.8320470338007973,0.7722819953043194,0.6948433968095378,0.6153672813682283,0.5488974169967782,0.5753420702535137,0.6505400933138876,0.7268967496900627,0.7852732103343871,0.8281316913678338,0.8803883767541814,0.9580505523178391,0.9532359123136354,0.8617977669455947,0.7565199628480155,0.6564460288234388,0.5517924633090656,0.4483716266122406,0.42361994257228686,0.5120799053013942,0.6184134391288714,0.7236254722189175,0.8175524494383539,0.8743324176742502,0.8705413863530185,0.8378961037346793,0.8321444034583112,0.8368212671314808,0.858600839425566,0.881453802247895,0.8763769618961943,0.8400793155910293,0.7754559572165924,0.6960941459074141,0.6091930370761578,0.541109873270617,0.5637312772138352,0.6423819457373898,0.719155465516353,0.7856717686987735,0.8333195386348622,0.8795943197763574,0.9494668512632269,0.9749720639076109,0.8902090690091424,0.7855800065677863,0.6858679224227362,0.6066122209570954,0.6527079308485544,0.7506807610045101,0.8446051890229187,0.8956264780991892,No
0.6149672894502141,0.5993869866576729,0.5866327124427568,0.5680641578339538,0.5395583701214943,0.4969398745880311,0.4772662046347691,0.4673929320021257,0.4304038803121575,0.4029091423584472,0.37622526610179485,0.4174099393289932,0.4738231490547167,0.511947152478291,0.5050921465975313,0.47006025709800126,0.4379491052190556,0.4273575473522544,0.4561687420469478,0.49878413973517133,0.54440805253681,0.5859130283020486,0.6150784099800974,0.6243503398432304,0.6206567401031808,0.6124716884491506,0.6206415177664502,0.6282082895234544,0.63013576722543,0.6324120218113802,0.6378525949066618,0.6351200940829484,0.6243603838376188,0.6246885972039047,0.6439849252694105,0.6645955907235608,0.6712411913868481,0.6666741661511542,0.6255679527838616,0.5575346209499719,0.4876171348893503,0.42275841329644903,0.356557170998661,0.2865464053173947,0.2190797119724459,0.15528435037568555,0.08568012987219897,0.021568707690944877,0.001874010763483147,0.05141736717080747,0.11883527659861404,0.18888199710276354,0.25603622308619123,0.32006895930134394,0.3898308189588069,0.4599237335063391,0.5299195458844486,0.5955635766070326,0.6609612822997515,0.730023694538118,0.7582637203266045,0.7087369482405088,0.6635871080810005,0.6360221259078038,0.6200473998177134,0.6044001727560522,0.5846414369644484,0.5602649210635418,0.5268507532341251,0.4900034945853773,0.4504704074624992,0.43114158025386273,0.45380481338092094,0.4993648716864587,0.5472513680496696,0.5894430069895731,0.6226806220805237,0.6316287486618246,0.623732603304288,0.6185899062728111,0.6326989769362243,0.6449038494636037,0.6492529878391957,0.6517404990016014,0.6500103913482005,0.6518574793936021,0.6419986380520697,0.636716908796293,0.6401917979999721,0.6569238566298639,0.6642210653246379,0.6553548475589757,0.626160881917109,0.5683754497054014,0.5017184076355259,0.43166634597809983,0.3615733457457173,0.2916466150927499,0.2282312457936635,0.17547905909111905,0.1094896942937742,0.04549456146235231,0.0,0.0274035510222711,0.09508474607179296,0.16122066950587777,0.2261386213874652,0.29606758374843745,0.3661605839808211,0.4362478963686909,0.5047599825178426,0.5679497905138851,0.6371452974251599,0.7026544494513838,0.7447475699537445,0.7137537088912478,0.6586320309661065,0.6260518458190674,0.6080189910421128,0.5965156178591695,0.581993895859384,0.5598787426754577,0.5251528156234935,0.4895743244629436,0.4555177138202675,0.4333158863269204,0.45205742679363503,0.4956590531602585,0.5413965895490196,0.5850221540510803,0.618573444763457,0.6307446207622491,0.6237103391788237,0.6207533891395969,0.6253285362530006,0.633187423392062,0.6381614303839491,0.6430267110658883,0.6558213780666144,0.668182787054626,0.6657770502798599,0.6633756863376059,0.6498370680118848,0.6471578285164263,0.6518621015805446,0.6559518997557805,0.6467891706765645,0.615064019935206,0.5714345906140783,0.5225383698083015,0.47917769476391725,0.4728991252374528,0.5078039429804535,0.5439706732282663,0.5787107437994634,0.6037893459090409,0.6197795406062758,0.6310280021265027,0.6454029753480461,0.6772262637610476,0.7299830741144402,0.7899776771675098,0.8514424941351766,0.9125917716266541,0.917738442761856,0.8613775594056767,0.797964758403251,0.7283687806249171,0.6586664432854925,0.5948062856985392,0.5298220689398807,0.5153527014947403,0.5739940188295141,0.6335498242520203,0.6746947741682359,0.6892613921292381,0.6932728081279538,0.681829268843716,0.6716301225099146,0.6683287555256625,0.675772628393299,0.67869920661292,0.6777794789617795,0.6753431734535615,0.6777609518190457,0.6695700425154976,0.6567086096146559,0.6468068424689408,0.6549754302948907,0.6615457933481506,0.6494120631106648,0.6217722312894047,0.5819817721144869,0.5361250628466809,0.4852698784245284,0.4634828869054852,0.4919070426924621,0.5321158144598999,0.5677437215672407,0.5947672639096018,0.6164661732155328,0.6353333209372467,0.650815129340101,0.6719545695626776,0.7083111792746946,0.7643664608589078,0.8249239162627491,0.8778104625160739,0.936286371947396,0.994472597988749,1.0,0.9444154749073823,0.8775145828501543,0.8074686578813173,0.7397495540275474,0.6761340340720934,0.6065316045363944,0.5364388672678664,0.46634726766748225,0.3988225301867274,0.38953871830673026,0.45062768348476845,0.5149887034173428,0.581463841274771,0.6442892941890117,0.6895440696170188,0.7022847440396185,0.7023873156453502,0.6888571611127856,0.6675801178135525,0.6540936970458571,0.6643857890259666,0.6692950020420503,0.663180751885118,0.6574491212132529,0.6620308533857653,0.6549106521724768,0.6464374394126293,0.6503414670241039,0.6536413441597193,0.6468589120148658,0.6327639785892469,0.600724629438333,0.558749868205423,0.5123525813870469,0.4686170742360276,0.46725555813464625,0.49997085229939064,0.5360832793087305,0.5682339398345599,0.5926551540130436,0.6108016150501678,0.6235830468815118,0.6334807290126849,0.6566228740427911,No
0.39218679779814414,0.44648504383634835,0.4934384510522196,0.4315466745926446,0.3424099077713556,0.26588094127635453,0.1892937839754818,0.10830744728995079,0.03551039051495897,0.05444823580316127,0.13873592592825545,0.23365617127643845,0.32743045403075266,0.3974079391746961,0.4667433954065079,0.5584582059036955,0.6537628056078026,0.7459356255511336,0.7710767766017952,0.735072058048303,0.7229454581218597,0.7044049708283098,0.6685111906345447,0.6136466501550384,0.5557386725089599,0.49342564706443337,0.4266084596713571,0.3593318806648256,0.3239908989792788,0.3623744364218098,0.44033992398016686,0.5155874830589988,0.5881668363691543,0.656079777115806,0.71404451722621,0.7422451746837007,0.7333678717850116,0.7264756458463197,0.7169367082979698,0.7213069192005321,0.7325476987713846,0.7421032273638977,0.7496065029368266,0.7316541315141194,0.7203266423007726,0.7446692816702285,0.7743200774305483,0.7853025919819949,0.7643046485256333,0.6828377602902895,0.5955660381374979,0.5030887276012996,0.41267564300116755,0.32346032390408186,0.22855721224731385,0.14017575020270168,0.08363578708908315,0.13248911081996062,0.2254599457228632,0.3207827660929763,0.41611068786752137,0.5114386096420653,0.606757359331483,0.7000471026513218,0.7847444312141347,0.8107388650573215,0.7576278537450492,0.7348867844691893,0.7213480100324501,0.6937248276681847,0.6547059588896764,0.6003229328113997,0.5408262637640648,0.4797778206657548,0.41257144330735485,0.3512119418095432,0.31626204360995946,0.35998408318957686,0.4293840767685373,0.4916110264063265,0.5626575549496184,0.6319959462895293,0.6937071470280638,0.7202351190006069,0.7126467176757652,0.7024290969837088,0.6969025091327883,0.7023422760747713,0.7149633010094436,0.7274380518211712,0.7295239362984052,0.7141312820277577,0.6982132815101938,0.7228015729240993,0.7526215455002099,0.7611625043407528,0.7454519771046393,0.6696655791543356,0.5790923745378682,0.48904716169107765,0.39953852705434145,0.30444579953446205,0.21353558681292983,0.12477624730489278,0.03344301569619601,0.0,0.07492614139116949,0.16298018089984811,0.25453955560672403,0.3497444495359807,0.43802641350324545,0.5180910608929477,0.6045150978618818,0.6971788407723916,0.7793510420154295,0.7636900186542916,0.7195425085980158,0.7008860964963046,0.6811966785522092,0.6480496803481532,0.5958395648858923,0.5336255213499856,0.46993094350083897,0.40078135256493175,0.33243681347146214,0.28478119708645555,0.3038765368409373,0.3731702287124534,0.4483502899287801,0.5214317686139902,0.5961320710156004,0.6676581658671596,0.7152896752895219,0.7243748340630864,0.7082287688335276,0.6964559266401746,0.6951907494028848,0.7097395497082568,0.722002128560643,0.7439999568608238,0.7459263676785923,0.7371063278815027,0.7250385273202522,0.7349661841569595,0.748739250936868,0.7585636876037083,0.7527043989621087,0.7158314020809882,0.6547329257220846,0.5856643446213381,0.5116544373132588,0.43588715071717843,0.3644887030910706,0.33040789826336003,0.3780969575648365,0.44593280379206024,0.5141718870155385,0.5800955128662026,0.6388719745550389,0.6849886545565707,0.713436599297155,0.7331714371997347,0.7577621242335675,0.8151156181925554,0.8963399270082428,0.9651047391073804,0.9519942815734983,0.8643365248615438,0.7690508374373959,0.6781940406012437,0.6668296919043271,0.7449593379227095,0.8234639679217319,0.8295759810830219,0.8005327436499281,0.7932600366320748,0.7597388871139799,0.740454762367031,0.7552518653358016,0.7646924072690908,0.7587395699319814,0.7483594345612237,0.7357624296988061,0.7290861466620302,0.7384259195069547,0.7496367683994274,0.7474859836438823,0.7146836730973678,0.6563004519859892,0.5893368557087593,0.5152815265710486,0.4347588818218939,0.38365865346976236,0.41848483150254334,0.48408970105518123,0.5507646813699865,0.6113651762537062,0.6663711165045649,0.709423043470145,0.7409186890983326,0.7616868559361907,0.7847028827780105,0.8487744735589389,0.9286387007824013,0.9808814899122629,0.9344317600678682,0.8444440408428227,0.7571059053055977,0.6718822124907358,0.6760226201537769,0.7624715537708973,0.8427830626207169,0.8550098667685426,0.8225622462520052,0.817351709105907,0.7828167971816606,0.7591157942893325,0.773505328346832,0.781518909345253,0.7712563656177676,0.7660534857327941,0.7531017584990878,0.7485065616577087,0.7577957127895514,0.7742193022453101,0.7772885303649013,0.7562595395030729,0.7092751306870051,0.6450911202491172,0.5741421096148875,0.49456866818942724,0.4176351918440231,0.37444496353019274,0.4178328303432943,0.48949533277252955,0.5562919412253,0.6129509762210494,0.6694298312576741,0.7153730724420084,0.7451132363765645,0.7615581339424928,0.7819813948637928,0.8518370355869949,0.9341568820324415,1.0,0.9739512582447865,0.8873497780992867,0.8004350929883686,0.7067735012677052,0.6218982378246256,0.6377117852016569,0.7254820476488453,0.8119648633408505,0.8610662747958262,0.8323648785994249,No
0.6490095798770694,0.6506588959868451,0.6352256333556636,0.6351055421084719,0.6468351598094229,0.6207414274919405,0.5535166608584396,0.4825712202561963,0.40981020712054433,0.3381721259910509,0.26577628932565783,0.19358070543630973,0.1265683928561504,0.060071845080456765,0.009973122041173621,0.04641432848568805,0.12021968760001595,0.1920601607488232,0.255721604100873,0.3235162985294812,0.3770520894071469,0.4278037991263049,0.48822867259490926,0.5494814803378612,0.6017440396751808,0.658818416052422,0.6896287569758204,0.6484688670008887,0.6056170671156933,0.5655398330446129,0.5153433420141591,0.4591411850736658,0.39748353667094477,0.3530069745819416,0.3705059710195591,0.43043727202096255,0.49389549259669124,0.556595846704649,0.6158299047597295,0.6483521302920732,0.6443088364970806,0.6375165532879203,0.6461513223213418,0.6516926497169839,0.6422726883365444,0.633437767539027,0.6432494430400735,0.6269697750283012,0.5623999253416723,0.49004066552812936,0.4188351739799963,0.34643700237000913,0.2744022148578709,0.20137187118078986,0.12935808487896383,0.056108016866201094,0.0,0.02814870673783393,0.0980049210855426,0.17286565125294573,0.24817857639714275,0.3234474224055956,0.3965643529965677,0.4686717802902684,0.5438252664814769,0.6191391292531376,0.694452483326454,0.7682581559133801,0.7952061850255268,0.7369030830711853,0.6718637531435987,0.6181875668177228,0.5793293135793662,0.534567083306885,0.481257942213346,0.4200605540759848,0.36087929986519546,0.3222689338134676,0.35158403453961723,0.413181674562997,0.4774836829411743,0.5417540161546248,0.6011080014248642,0.6355241222252659,0.6304626904877153,0.6204452469645212,0.6266714851407948,0.6298305376878162,0.6182986234478538,0.6109043040400994,0.6229805392630081,0.6106687180356101,0.5473141191519888,0.4763918284450089,0.4043980004782574,0.3331826376748231,0.25942663961839924,0.1881314521409318,0.11497410541982561,0.06961656388570203,0.1113200492976204,0.18386226312583664,0.25910975255205787,0.3326975320610173,0.40442178457810257,0.47946553538737796,0.5547791780134905,0.6300930785755383,0.7054035054611507,0.7776592592162601,0.7908490788737452,0.7288079863726631,0.6643188494326187,0.6152529099077231,0.5799210408430855,0.5330616083747277,0.4779703945716824,0.41698966061611137,0.359673717373821,0.34164787905975075,0.3880304019482373,0.4505813103698449,0.5124764433322742,0.5709456212259838,0.5958302606710539,0.5663162475050951,0.5247391321419681,0.48370640411094473,0.4461781999709388,0.40495380261878494,0.35263386097035393,0.29961030410475914,0.25332949502833263,0.21771390293319498,0.2327422272335335,0.27364333791759216,0.32307081069096005,0.37733684849336796,0.42595354638906263,0.46590562745873815,0.5035653321228859,0.5454523112051595,0.5860856365523579,0.6150749461873461,0.6028196347219721,0.5521319156359172,0.49107659097537254,0.42867019197784945,0.3744465935097944,0.38998780986203324,0.4417790070043878,0.5020631930538733,0.5568429198484468,0.6002542374367679,0.6353859170116594,0.6909962636982268,0.7589384776491277,0.8294388475060717,0.900946061926458,0.9699828145363902,1.0,0.9460252024670941,0.87437087632192,0.799263299355897,0.7239495078098408,0.6486356072477932,0.5733217066857481,0.4980078061237005,0.4226939055616529,0.3476100079790427,0.2940873657660859,0.33495193445390675,0.40569031249126847,0.4785367867238784,0.54923049604318,0.616063271304369,0.6507130102092546,0.6422047024988207,0.6363465230980825,0.6492050658810486,0.6492576949907911,0.6417174818479963,0.6420499685174947,0.6578624517787166,0.6461096518804379,0.6031669101449222,0.5447430055337914,0.4863054639547318,0.4265053977782746,0.3674053343561931,0.3667869716838023,0.4213736847612964,0.48092583016638396,0.537700332065308,0.5838606416329848,0.6224228248630241,0.6711631633529016,0.7388275070817107,0.8096308868410642,0.8767088607941664,0.9387125140603623,0.972930223036395,0.9218650761928804,0.8491430602737617,0.7738801603436751,0.6985662597816276,0.6232560407174939,0.5496079516446635,0.5158726507103533,0.5707500809425003,0.636936256904642,0.6719242574973374,0.6628854699898707,0.6603292416626114,0.671337296527907,0.6674498277439693,0.6589150720920989,0.6604841032865147,0.6684656717593507,0.6475497273673352,0.5972790339423022,0.5365300086062645,0.4733630917932817,0.40948810654593587,0.383397998361857,0.43103262128891756,0.4901156398780075,0.5457840710224149,0.5923506359504276,0.630245312731248,0.679044775960987,0.7444088174013332,0.8145008322830027,0.8843484814075178,0.9465986449647821,0.9405122508947228,0.8710132051076449,0.7967155118988776,0.7254024870759053,0.6507012930714866,0.5753893196100548,0.5000754190480072,0.4247616978118897,0.3505619201008076,0.3183607296007472,0.3775022279432512,0.44920023004536697,0.5216964153163173,0.5914235654618725,0.6523910859734836,0.671234177014288,0.6585125758661698,0.6621017226230288,0.6683437917173933,0.6675825209138555,No
0.8606780774649878,0.8396023215655906,0.8380816413579324,0.8635275813692207,0.846609548539468,0.7861458741810614,0.7207406339601639,0.6541602617716202,0.5857225620570177,0.51631612751675,0.4499392537545737,0.3794919224702065,0.31189693975386684,0.24394863308910325,0.17300251777921716,0.10235204572281437,0.04288622746138987,0.04921387349673617,0.11112524684947894,0.17242530998909544,0.24004255413154724,0.3061784156242166,0.37625676333610597,0.44727840791075296,0.5183033832310913,0.589326281034976,0.6595807499214457,0.7257469371212535,0.7956982719356027,0.8613905166568938,0.867789190530933,0.8519485433848646,0.8370677256493375,0.8128621119716031,0.7825336520821164,0.742643897003679,0.7130133997054364,0.7192045259422255,0.7545362915733747,0.7965906479591183,0.8265039452229708,0.8358698184182585,0.8212081494438066,0.8122632822783755,0.8222764437562213,0.8343000942829171,0.8462165525495589,0.8382950743029687,0.8222355586285599,0.8407828200468159,0.8583840342630593,0.8126645096847918,0.7452058683166876,0.6782280656380926,0.6105120627915246,0.5428874823058465,0.4724480455463473,0.40608398383515104,0.3366190489721606,0.2672645205551322,0.2012768126234485,0.1391830867021367,0.07769948089445511,0.012683498540700056,0.0,0.05699215051539919,0.1255998162461962,0.19658966365878938,0.2676146389791277,0.3385706142129297,0.4050250605223578,0.4677989325139154,0.5383187996160252,0.609257624864783,0.6752936956299895,0.7381135549687141,0.8043741090797802,0.8661339753187001,0.8724592582459747,0.8579914254157759,0.8354794868872457,0.8076160489273414,0.7741937675854296,0.7389241080716618,0.7231137210328618,0.7473498508894671,0.7896426837835899,0.8313975997661069,0.8628607858502688,0.868912987487906,0.8534832944436972,0.8462164735637678,0.8593685223813889,0.8666824636163661,0.8703385161772046,0.873211991827535,0.8557082025529292,0.8477975173433436,0.869793561533764,0.8687787424393472,0.8130735610554387,0.7471670716769983,0.6807105271756027,0.6111546824467724,0.5449838275675907,0.4749624494386219,0.40816149714401123,0.33943245567015196,0.2718537220710409,0.20391722529728679,0.13306802958923353,0.07321828715741652,0.08753213899647883,0.1522804852117181,0.2194353653636636,0.2902827431586588,0.3612986760296529,0.43090206925807645,0.4971956648803841,0.56768558344172,0.6387096283747413,0.7097346036950791,0.7806170279031737,0.84646445853762,0.8764433649270613,0.8627356732089739,0.8445035419234097,0.8199685458609094,0.7857938095750618,0.7452566419894076,0.7175956503988727,0.7301676825532368,0.7724421442393716,0.8147758065675947,0.8442423812427293,0.8529606457902943,0.8422969248460281,0.8566689852205249,0.8728906703607526,0.8708182235187223,0.8565966521685893,0.8217038614313132,0.7793381537361046,0.7472579077403603,0.7663229726255827,0.8055774387135346,0.8401351806277091,0.8652350732909668,0.884677950577516,0.9051148697170375,0.9572339195270569,1.0,0.9666928711469185,0.9016149905686122,0.8324090069007368,0.7614010705793655,0.6903760952590263,0.6193589726064528,0.5496595881447663,0.4834091163641974,0.4130646684293509,0.35659047113222647,0.3875029090230225,0.454558284540626,0.5220995398207018,0.5930056871552933,0.6640154575812456,0.7332779238244533,0.7985587801647143,0.8618519063957482,0.905400008502651,0.8967559921373904,0.8707393516179267,0.8807012293423326,0.8963015760984461,0.8936812799470379,0.8892104486990191,0.8837485617099909,0.8707490840604486,0.8700857960265085,0.8855781973108725,0.8882382690785835,0.8684256396370122,0.8327387136009861,0.7897699531919324,0.7514850975701868,0.7577821468498527,0.7937497647794425,0.8261759509446729,0.853405627678141,0.8754114824277193,0.8944411917146555,0.9421304497282583,0.9932365718417044,0.9748752357005694,0.9077730342196801,0.8399578126332936,0.7722537922991588,0.7013292811719625,0.6303043058516244,0.5592793305312869,0.48832587136958655,0.42099181181680795,0.3890255752773755,0.44241635463646095,0.5088167153582805,0.5779249260764494,0.6456183018739294,0.7127634102611395,0.7750641815929722,0.8308187300341281,0.8800304027045729,0.8794026323170923,0.8504218100041729,0.8546995804911965,0.8648631225237271,0.8576731951189565,0.8444973839845888,0.8342172977795601,0.8441086211152806,0.8569238348986488,0.8466503081060495,0.8178661437913617,0.7764304637372945,0.74295741485167,0.7522057430302334,0.7892046901802359,0.8246961614127459,0.8502370623229456,0.8666905725624294,0.8863329412904821,0.9384242078830369,0.9848966078082539,0.9575809821331995,0.8905586332510751,0.8196369541326676,0.7513708924020697,0.6840774042737927,0.613204727843659,0.5421797525233212,0.4711548101626805,0.4010341925166661,0.3675607919414435,0.4193227796214139,0.4815469534887859,0.5454462372578526,0.612700443194266,0.6835658306857362,0.7532743068279741,0.8182276415602183,0.8743400767509228,0.8913364484956574,0.8694260603650912,0.8622095938879948,0.8819746458616191,No
0.7271597483287806,0.7314829431420937,0.7574541791412825,0.7612617965595927,0.7126513014446219,0.6571720015400639,0.6437095148328158,0.6161865190604126,0.5976800240903415,0.5576443693730679,0.5245829710398826,0.55606667632103,0.5651533474418866,0.4897989344738054,0.41008976997480495,0.3249407320566906,0.2424785291645597,0.16218735924382455,0.0795143285714659,0.044283889607403815,0.10276295019005088,0.1842917846246257,0.26985582309778344,0.35550241837797647,0.4411490136581693,0.5267956089383625,0.6124422042185553,0.6980720060491046,0.7815275858685504,0.8568642943897165,0.8676786306393798,0.8092768770588916,0.769077047360671,0.7508355475901578,0.7317721060255977,0.7032048931481587,0.6710207580638659,0.6785643473387382,0.7154257454848623,0.7443445043532562,0.7547822660754173,0.7514028054354367,0.7443564268334564,0.7465024050692519,0.7482319716176247,0.7260505217966193,0.7325090775092784,0.7592271148247611,0.7560076938833691,0.6935031463536216,0.6116778918893164,0.5325271984673818,0.4510192122508574,0.38356929964310593,0.30309488417007024,0.21905924910892793,0.13981819360095293,0.05615808974529202,0.002095844187263163,0.047378130374913785,0.12509249164833225,0.1978042555968752,0.2772831077567499,0.3477262039201434,0.4162254700498065,0.48453341675268113,0.5497525198900668,0.6285969579442292,0.7141562118223821,0.7997789418671255,0.8813734276642116,0.9086324976197437,0.8503894520395745,0.7915494684049895,0.7635748377866718,0.7450413951348014,0.7208391714974316,0.6836033543694149,0.6598961937542285,0.6810808742326606,0.7206399538448807,0.7422661869702627,0.7482672968254362,0.7376257186643218,0.7407712345219026,0.7423276550642723,0.7270016449724483,0.7258629966630143,0.7519451815218248,0.7637370044604441,0.7136482679985074,0.6298640620143616,0.5492782495176265,0.46740838345336755,0.3871126475861373,0.3047179329499514,0.21955553944630202,0.13978004062124028,0.05739771519134673,0.0,0.040654417680514365,0.12279103964696259,0.2021721640688201,0.28713876440736685,0.3727844299053411,0.45842367346783663,0.5425099694357067,0.6217420215225524,0.7065234089922023,0.7920125299183292,0.8583638832875025,0.8310183180001547,0.7826733152757464,0.7597648571198266,0.7454619876602757,0.7172263063638864,0.6810440390541765,0.6703773250145373,0.6997618427239429,0.7332355035942328,0.7480250912098254,0.7477403205092179,0.7395152722170124,0.7443488112422152,0.749773993356589,0.7321542272690458,0.7253619729374343,0.7513098317577611,0.765621760636481,0.7254492277461484,0.6529843830009605,0.5827415708229449,0.49854513858728344,0.41299166419667865,0.331315193794232,0.2503057073618784,0.16509446804486605,0.08556207184360831,0.03403366955100562,0.07978718571151222,0.16405226124202066,0.24561862435858572,0.32673637066056793,0.4122415526093841,0.49788814788957736,0.5834994399768232,0.666250943816006,0.746307533211445,0.8309208349401147,0.8898007477510148,0.9340947441599563,0.96045142576424,0.899717620174223,0.8176759726979135,0.7377598463744455,0.6524891227289651,0.5668565020344665,0.4882246070723262,0.4971427221185374,0.5750581400516313,0.6543491838057214,0.7316100076152634,0.7892067877608413,0.7954103465554834,0.7770932351005928,0.7539722156744499,0.7676771794674728,0.7774464496564448,0.7694520557501494,0.7665805037620754,0.7753343809189834,0.7773591108492142,0.762905737567318,0.7358498354826584,0.7047977630368738,0.7155413880079302,0.7514486011142238,0.7742377925971577,0.7898620905930143,0.8219457517374908,0.8816595442926616,0.9453599993294206,0.977629761556744,0.9229044117729326,0.8411474348831496,0.7555605559445988,0.671129050680541,0.5919572021996056,0.5083924558166373,0.46845739780354645,0.5346262130070916,0.6139414651769148,0.695353006867304,0.765443931321798,0.793944656139381,0.7827318610234473,0.7560420464413817,0.761983888037886,0.7721013632816882,0.7659598074591853,0.7672843720236624,0.7754091665769491,0.768801603488692,0.7497462950478995,0.7139042809680534,0.6877994333945658,0.7149894960277767,0.7482545544146386,0.7721968556208245,0.7940351292872454,0.8255338320688537,0.8940244217184168,0.9617371069885221,1.0,0.954126827467833,0.8758181921235746,0.7906755633545681,0.7050318707768892,0.6227266253119139,0.6084586919357413,0.6798884070378117,0.7556311473647701,0.7958205276521833,0.7893591788862955,0.7615017455545772,0.7596454967058401,0.7791802484452652,0.7760447869756459,0.7737692473232287,0.7816652001744662,0.7856834321745318,0.7703045340254588,0.7407383180126617,0.7048990516489777,0.707129409729482,0.7409498344595125,0.7659781052392574,0.782545243887633,0.8062320011161537,0.8631066815980024,0.9270499652704833,0.9518477925599762,0.8937782293437824,0.8141017191819822,0.7287660677481071,0.643152109932303,0.5622983459067281,0.5433846322631863,0.6143560415694134,0.6938733846444072,0.7653198089955693,0.7954129561001115,0.7905516145995759,0.7632081550742871,0.7612825466018303,No
0.477339689075298,0.39407244661550334,0.31589767274895586,0.24279155597986768,0.17349161517431888,0.16167022855076263,0.24059228067505722,0.3306723362518641,0.41611698902349514,0.507597984853375,0.5994044226171303,0.672230055553427,0.7253908634808993,0.8096054268445857,0.8871347242977482,0.8760135264575831,0.8334557523793252,0.8106585134746359,0.7782877103045648,0.7262600790478874,0.6804874611268129,0.6876121598738795,0.7373538864794337,0.7962680209257583,0.853938376179655,0.886146498244268,0.8788331495938048,0.8592584009603678,0.8550314418524371,0.8590706209171405,0.8594984430839617,0.8403182916669235,0.8555654559994678,0.8735460646769494,0.8276042825830637,0.7463154500553232,0.6604933669673555,0.5726801469422224,0.48666647817335684,0.39745098558756864,0.30715406403033907,0.2218030925771851,0.13689879308777908,0.11978076209068367,0.1969790660812607,0.28857095450306514,0.3743663956613704,0.4639990393564316,0.5562067339821263,0.6482972558251937,0.7357313201112895,0.8234157295768424,0.9052190344461598,0.8980611571748597,0.8487400033789495,0.8169592740234143,0.783903290082434,0.736122653272531,0.6822301456747851,0.6359830731302761,0.6437522155891656,0.6958383086646077,0.7558373659932328,0.8147165990306665,0.8423795867993623,0.8240332285808935,0.8003446129769772,0.7928156237000193,0.8010923181426267,0.7952379122815042,0.7965142737938761,0.8250795420280911,0.8075110311790733,0.7314652855516645,0.6449821169201396,0.5725416169728897,0.4855364168840922,0.39730997742181084,0.31040265036630854,0.21977562198005685,0.13454695816911288,0.04532616533000511,0.0,0.058204009373514554,0.14645247354617907,0.2386286010641141,0.3299372310958336,0.41525564436514595,0.5057669609856751,0.5979826003960899,0.6885654489194452,0.773799373484435,0.8527198991752295,0.8437604411617289,0.7983532586074159,0.7710632525884821,0.7383490585866913,0.6871854666638043,0.6367151148422173,0.6194946314608251,0.6627441469805885,0.725721686202175,0.7898129632972654,0.8365696317598618,0.8492052456280009,0.8272733046121928,0.814276176374194,0.8236210427372063,0.8295731753373302,0.806608109317475,0.8070795927779074,0.8337883316894102,0.8162339353510729,0.7363695117853198,0.6503320508738847,0.5626792272246425,0.4775881601381228,0.39460843509022336,0.3207696313820926,0.23090725298171944,0.14848144566122312,0.12593175712769566,0.1987083857583941,0.28746209943286904,0.37365533556623187,0.46237377987503814,0.5379738206282004,0.6113471182933262,0.6948694485372761,0.7863093316695741,0.8504411573267249,0.8254793280755296,0.7950762493085614,0.7740820172758566,0.7370029581177208,0.6920003735177064,0.6815696329022393,0.7245957018692587,0.7881238293370375,0.852021247445074,0.9100218401897836,0.947088100555468,0.9621362385684046,0.9816776292912971,0.9522279985424699,0.8988514002124649,0.8364005956189332,0.7688504439935221,0.7228630179519625,0.7431775910688304,0.7869881951127174,0.8132807033612471,0.8366103903580372,0.8812440907147502,0.9441680121857304,0.9479056183448159,0.8725784214445153,0.7812044246614974,0.6933349179155642,0.6083262667111989,0.5805909400940946,0.6578315688769619,0.7429486271910793,0.8214431502304061,0.86845588156108,0.8625323391582816,0.8379409151589091,0.8516827133325163,0.8603791878024759,0.8508597097595493,0.8493728605990823,0.8753800107813329,0.8850823658805261,0.8554289279090416,0.8027544471327738,0.741761886952872,0.6814215960504854,0.662413174839705,0.7058226747480633,0.7571237662111384,0.795387946365043,0.8205420787059722,0.8632738135107022,0.9279713601630838,0.9505891290294813,0.8848316295578761,0.795508745725997,0.7102622440216887,0.6191043201713057,0.5278529222883147,0.48437981727681934,0.5559630071008307,0.6441339256232023,0.7302706314320376,0.8116941096064859,0.8653116350109163,0.8649456787138837,0.8345477385256178,0.8339654204964456,0.8326343821993544,0.825048976067093,0.838718310797759,0.8645285906022605,0.8767797019115539,0.8439952208454865,0.7892918310208196,0.7287274734123014,0.67669533882197,0.6868051347142489,0.7395172899359607,0.7914102737468748,0.8304410423062288,0.8593904880563809,0.9037844686404403,0.965743905841563,0.9860421656735977,0.9153986897568095,0.8285902772101313,0.7405409726870472,0.6484005103797065,0.5578408629041448,0.5235991584801002,0.5942260204023572,0.6803070745325731,0.7484152964226675,0.8187707532531044,0.8857380650087926,0.9108087687943235,0.8883185454825621,0.8768941509557789,0.898965991320375,0.8891724135661166,0.8835462314492565,0.8885126813553345,0.9077056563272478,0.9176854184885711,0.8992374604625334,0.8504413265075191,0.7915449773196254,0.7347488777618701,0.709058393335004,0.7530364889015907,0.8037333183565797,0.836723159708645,0.860995731383971,0.90311725799982,0.9657685842419351,0.9999999999999999,0.9440601673755088,0.8559548891620096,0.7637893379139534,0.678104906221695,0.6786582264346767,0.7590562180103931,0.8359761336083554,No
