0,1,2,3,4,5,6,7,8,9,10,11,12,13,14,15,16,17,18,19,20,21,22,23,24,25,26,27,28,29,30,31,32,33,34,35,36,37,38,39,40,41,42,43,44,45,46,47,48,49,50,51,52,53,54,55,56,57,58,59,60,61,62,63,64,65,66,67,68,69,70,71,72,73,74,75,76,77,78,79,80,81,82,83,84,85,86,87,88,89,90,91,92,93,94,95,96,97,98,99,100,101,102,103,104,105,106,107,108,109,110,111,112,113,114,115,116,117,118,119,120,121,122,123,124,125,126,127,128,129,130,131,132,133,134,135,136,137,138,139,140,141,142,143,144,145,146,147,148,149,150,151,152,153,154,155,156,157,158,159,160,161,162,163,164,165,166,167,168,169,170,171,172,173,174,175,176,177,178,179,180,181,182,183,184,185,186,187,188,189,190,191,192,193,194,195,196,197,198,199,200,201,202,203,204,205,206,207,208,209,210,211,212,213,214,215,216,217,218,219,220,221,222,223,224,225,226,227,228,229,230,231,232,233,234,235,236,237,238,239,240,241,242,243,244,245,246,247,248,249,250,251,252,253,254,Target
0.9634020539472079,0.9661898573614283,0.9292743584831626,0.8650360136566817,0.7940780432003813,0.7047449633156955,0.6114441248854752,0.5134479247606518,0.42323222716867703,0.36811946235106685,0.4329459322738787,0.5252122405113875,0.6237081297234972,0.7169651030420878,0.8099663031866693,0.9023198913271988,0.980377719048996,0.9999999999999998,0.9782307242489499,0.9446899718418753,0.9354196286269725,0.9593082342724162,0.9608757208827772,0.9577790113079327,0.9462654087432774,0.9381660335870776,0.9391817062875469,0.9410614810536388,0.9153625450112639,0.8659657718032694,0.8118963586413421,0.7743912179211669,0.7964203160120731,0.8432598834315757,0.8906323191703591,0.9225620047629024,0.9415641614767583,0.9386297436408699,0.8996327632550456,0.8351158033674382,0.7498304314379354,0.6517949071684748,0.553020920495972,0.4714060188592293,0.5038292437091434,0.5947510520747172,0.6929059577240484,0.7840728779395019,0.8734410357376008,0.9460230948025847,0.9599184471665301,0.9385641748221518,0.9037215436716397,0.9055266892465983,0.9251033546842966,0.9230842976032458,0.9125742211311767,0.9037414562218713,0.9037042552345544,0.9045698150622179,0.8824616990352632,0.8373452057684108,0.7863385874893158,0.7511044334263659,0.7688610473482067,0.8184234166014297,0.8678858350851555,0.9042976425711851,0.9295904519742981,0.9444439110655258,0.9188750083511317,0.8565310988243668,0.7681750945908858,0.6758747651627213,0.5845427470431035,0.4896633174076881,0.4139284683386568,0.4573777145901454,0.5536016049347852,0.6491206944286567,0.7402348079217924,0.8351278829319517,0.919995126910746,0.9678222129015077,0.9669428932867834,0.9364260450910944,0.9328393013368057,0.9556337676876119,0.9607279937513706,0.9556159948800198,0.9495030325176268,0.9493099631398241,0.9479810981212278,0.9302161728176337,0.8904361924348496,0.8360973155300977,0.7842380429663602,0.7795685946816737,0.8244280103109336,0.8730645213411035,0.9127834013336373,0.93901874099105,0.9564407102068122,0.9400053805151631,0.8804692401439673,0.8136059766257031,0.7772784820219827,0.836784367960093,0.925548258726739,0.93434079719739,0.861250545450049,0.767965198848795,0.6775776879124427,0.5809286010397889,0.485958236942442,0.3943813220410304,0.29592148534798146,0.19706784313475456,0.09877049619657075,0.016193553504592284,0.011673071237949584,0.07914312693174064,0.16343026566127938,0.2604225547375292,0.3507210487000263,0.44795452235535205,0.545619630042063,0.6359587586391562,0.7309376401371694,0.8142431149274771,0.8839330826621632,0.9058321510065233,0.8884006375128592,0.8554154705741295,0.8126134419717324,0.7633136213678215,0.7257057241268803,0.7341875042081447,0.7827807244301059,0.8374100752419953,0.8861573259082065,0.9072062354792307,0.9064633901250245,0.9082862277916077,0.9067838773364556,0.9114941989487568,0.9187320313871821,0.8988284727521236,0.8718428697899165,0.8972433858221391,0.9262308762745393,0.9184547945425277,0.8417052454129119,0.7516464704302863,0.6559855396191454,0.5655511404492495,0.46788458021950907,0.3748888195018474,0.2815161708253322,0.18647597607959843,0.09730664499849029,0.045148362487716476,0.10052304317710137,0.19439720081717082,0.293194551726645,0.3920301483503845,0.4880882999553513,0.5788659140397763,0.6757044308571696,0.7649096932196613,0.8462867794265054,0.8950019747231992,0.8972469399079366,0.8690640966566747,0.8302586930470475,0.7837130805703443,0.7334064978674517,0.7001496569030781,0.7155090202117826,0.7615074720851445,0.8143446636773533,0.8496089353030281,0.8608550239189334,0.8635263384014147,0.866110886951265,0.8796971941763954,0.8839483480525885,0.8807011377298968,0.8576157983042729,0.8755457862250431,0.903807810788475,0.8835694131228027,0.8023633365498455,0.7080110428706057,0.6165893437084065,0.5182309576046615,0.4237154966768655,0.33176653802522527,0.23559833323996293,0.14556618343571737,0.06398202314217527,0.066061116901037,0.15353042349202362,0.24386715966490757,0.3411065463341525,0.4323413903031865,0.5276015329154,0.6207138146257638,0.713441538929996,0.8018400284259761,0.8699293173093186,0.8987340492604337,0.8931434161766538,0.8638057175055818,0.8213463211750505,0.7706753315414483,0.7340043854636349,0.7394935077612523,0.7840898579052114,0.8392867449432191,0.8849895135856167,0.9030474810204492,0.8987758003506352,0.8988266649197283,0.9071743135481756,0.9185954841899471,0.9212020364043163,0.9067871800894878,0.8866250037889414,0.9160549249985672,0.9441553925399884,0.9244089669846476,0.8426631992102509,0.748529755608486,0.6497505666984917,0.5508985085390707,0.4531371019617143,0.36273867184416364,0.26596680977654086,0.17119419050591844,0.07992731378966011,0.0,0.0025232192790225483,0.061797340953478885,0.12883606861316022,0.21179144421656426,0.30900630139668905,0.4000562327851682,0.4956931424404307,0.5926190744422395,0.6829712877640324,0.7803229727774703,0.8659355502740065,0.9181799492333242,0.9251455480685582,No
0.5413745388411959,0.5811429375877086,0.6201710505690441,0.6422223073230269,0.6693371968234798,0.6891731778822816,0.7666085555147868,0.8768777136415684,0.9423326161783763,0.848699282149993,0.6831402103462203,0.5343920775935134,0.5212344905040389,0.6535549809438876,0.7362019840766187,0.7629465839039238,0.7449128391444244,0.6734693540820489,0.6375995466334627,0.6687810506408205,0.6841601545498479,0.6807211404885889,0.6700632218919864,0.666910069078182,0.6780758810648972,0.6602045829073315,0.6142632100085388,0.5754925969582905,0.49365507356582494,0.41104358363863636,0.34238542375019776,0.33308353454309536,0.3719779364698166,0.4623703175570588,0.5207296426810624,0.5723225056170724,0.5735307192898693,0.5992123963267977,0.6469961132515998,0.7537670471862548,0.8600530945745994,0.8656811965444158,0.744406655433397,0.5774503522841066,0.43049719659684094,0.4360203436038059,0.5789768712021672,0.6502691093113429,0.6157902470176566,0.5609478754056063,0.5051061658098783,0.4847708119363805,0.5010376747570753,0.5307014676652333,0.5475675622510154,0.563626218116827,0.5857037717807891,0.5860554816561869,0.5621908238768683,0.5210349496874409,0.44471144624081216,0.35877239034074115,0.3230760755431916,0.3705329212073849,0.4465242499233639,0.5059119207846718,0.548156403267309,0.5904577614512387,0.6253402599901055,0.6830761200244213,0.7606348159444423,0.8711521615663909,0.8606025452821395,0.7193679605933267,0.5592152272536088,0.492234129510293,0.5998236231201624,0.6766860530942109,0.7036401264129735,0.679732320456301,0.6203955955582687,0.6351204830682313,0.6544300646057835,0.66947156416028,0.6599103514579507,0.6815869889257158,0.7069130307226645,0.7046043210157258,0.6660281036030646,0.6249149760914143,0.5629029116208821,0.4964568123122408,0.423871908357599,0.43346388257246105,0.4941062895230406,0.5492792976817942,0.5871662842198129,0.6149138891234607,0.6651279249338398,0.7172113954597341,0.7949619217301231,0.9172510162807122,1.0,0.9250535023097362,0.7751464372361303,0.6004617901361664,0.5134286001076154,0.6247057258434445,0.7082927800696206,0.7005086428467218,0.6650453453027616,0.6211426608165933,0.6251048377554156,0.6498407664111481,0.6521901949746214,0.6323385499023253,0.6327935518931032,0.6226254219119056,0.6609843606799801,0.670145029333173,0.6757826591694363,0.6304107360551772,0.5841467655659551,0.5121295835888047,0.5174893731886367,0.5615738004283992,0.5576870349491703,0.5618598815682443,0.5282889003996747,0.5308998539222687,0.5300337750095876,0.5483793209527095,0.5293217456248414,0.5046810800674395,0.5051323776388186,0.5653807694459383,0.6066642873770283,0.5658873228198251,0.41284137056446735,0.2857301790208151,0.16928100621574238,0.07897449561423908,0.1327174087476397,0.2550195812648033,0.4084114733298385,0.5852956959431399,0.7362401837364976,0.7075093660865059,0.6256079725180674,0.5740141747258756,0.5275811581094407,0.4894284739037049,0.4557085119611646,0.4047034638727194,0.3481367819574501,0.28951481079297103,0.30353271214132516,0.3732956144748405,0.46860079975970503,0.5169582515070656,0.5693034592949902,0.5994459054531207,0.5824659964583816,0.5777422861403663,0.554654946136071,0.5497134662838388,0.5313539078851166,0.495510180500375,0.516928180361564,0.5869794595017552,0.5899183639791188,0.5556519970500329,0.4115345697884045,0.26211462192773816,0.11591490939710791,0.048178544046137084,0.14917092283033373,0.30470880679364054,0.47352242231625485,0.6240322789608896,0.6215275235987372,0.5670455566394397,0.5167710168555066,0.4699550706286546,0.4272694249275073,0.38990507512651984,0.31545017542642917,0.2508350328168225,0.22404589080756576,0.23025597328664915,0.3018641071785231,0.38684020583556133,0.4464535892728394,0.4730428504558999,0.48860795288863734,0.47759195226765705,0.45523629409401334,0.41090938809655686,0.3847221917512842,0.37611679407625775,0.34617232896833894,0.40565213352242235,0.4597697458969803,0.5178415883002137,0.4941724373596479,0.3537966304472313,0.2052865506422945,0.04576689055549821,0.0,0.1139720732819054,0.2747020292206912,0.43667839214334947,0.5983103258854365,0.662700621559078,0.5742559271888457,0.5054766076949306,0.4853425799444473,0.47057004554379045,0.44579725069860565,0.39192137479998657,0.29761136149997647,0.24267798962492915,0.22641292236952815,0.26380334889638934,0.3440950757612944,0.43579217340139387,0.4914189679404979,0.5386290516368151,0.5782360950911603,0.5662252887065575,0.5653248202929326,0.56820558820991,0.5662405506923349,0.5682460100630333,0.546404145483506,0.5268014338778872,0.5432405688869748,0.6255097448320663,0.6511115740835685,0.6044277496778996,0.4685338317755692,0.3252143986769598,0.18017737718571514,0.07950303700517303,0.15298135800185442,0.30802544848547164,0.48142372918975873,0.6356109853447567,0.7221288357160702,0.642143401500773,0.5844031011993698,0.5478868991371018,0.5059817910725481,0.4584193252380535,0.4126579111790569,No
0.9338708021093582,0.9338708021093582,0.9338708021093582,0.9338602167978189,0.9295731851577278,0.902375055485928,0.9020411317340562,0.8696119210264719,0.8289130103501572,0.8146136797048635,0.8434860226202838,0.849746438430433,0.8841372913516095,0.9119716563539155,0.9271027523344522,0.9486304136583943,0.954310587689803,0.9497669559646784,0.9642867856496489,0.9814059151158707,0.9142799985163093,0.7768718403311823,0.6544408984994821,0.5863726299037264,0.6957169680571891,0.8031047759368839,0.8956678649719265,0.953174767983568,0.9495301195871795,0.9373938348639248,0.9038648324902585,0.8399155601475004,0.7956201177354867,0.8349316369801407,0.8742435061922453,0.9012537338672342,0.9042117406400259,0.8843903739924732,0.8931087696653854,0.8964763112948289,0.8968820674503863,0.9070230282808787,0.9077897134730311,0.9155517721828312,0.9026877259759782,0.8803918070064798,0.8576999961517231,0.833956597543132,0.8558231156190548,0.8893001789717401,0.9212210657756845,0.9569841596702302,0.9662731381643948,0.9849619418287601,0.984809470052447,0.9806126950613736,0.9732148709718604,0.9907529652775491,0.9455936174066748,0.8210083349208963,0.6981469700051726,0.6093158911979577,0.6936562928043672,0.8241111091605751,0.9301601810257871,0.9552145440489479,0.9482799513964952,0.922556394533796,0.8875765145760086,0.8273367074616749,0.8388766135367307,0.8786816306447207,0.8686356278656824,0.8555979617379359,0.855364390841924,0.855364390841924,0.8555400800272706,0.8678272271370302,0.8812926262375314,0.8813816210871437,0.8700690809480829,0.8462095051353407,0.8135295899987325,0.7876837451995948,0.8118690382020999,0.8406033891050981,0.8774161537810459,0.9065497125732236,0.9295553629611328,0.9581072610767443,0.9507335813319822,0.9487716826556838,0.9649771828725218,1.0,0.9548164088640112,0.8285903952231273,0.7012487760613908,0.7173251498152675,0.8340512814083185,0.9336264953118203,0.9576491775874825,0.936728006683289,0.9115053684969538,0.8739589041086191,0.8485051361143423,0.8879003532332428,0.9186961698384088,0.9086800183273249,0.907708216443571,0.911287977138886,0.9234717211983838,0.9306241682776655,0.9338630698816281,0.9335896402788508,0.9195609248571204,0.8921866998408801,0.8519255354500777,0.8132782972903003,0.7667118892286515,0.7532638508381657,0.7896111937765031,0.8151873689431248,0.8336475031089012,0.8644205385578898,0.8480781267517044,0.8338287141203162,0.8376534096385733,0.8205141795770237,0.8343547003689764,0.8284991958512657,0.8148035145092232,0.7686861914673226,0.7454278006360306,0.7859910598789357,0.8233137187299135,0.8517650629929125,0.8535754213926863,0.7577085575452642,0.6264113359596308,0.49353649539843225,0.3667205810107448,0.23839480176897698,0.13410263701510772,0.15129149193826352,0.2648241829994329,0.3990113959249415,0.541771138738119,0.6759332496099129,0.778559051670296,0.8516447921467867,0.8610939261356796,0.8547697822911644,0.8611003110552264,0.8667322844216789,0.8465571245671306,0.8241494140242134,0.7742960087237352,0.7419676611367816,0.7189912065983286,0.7163435372828566,0.742521734972299,0.7773300329689015,0.7972156585300931,0.798574096430805,0.7923039361655917,0.7800200715343681,0.7762819373410235,0.7666946756873418,0.7667869706682282,0.7816094885000524,0.7924383891633084,0.7896962862610808,0.748574828751635,0.7259499981648645,0.7681787340080772,0.8214713198063013,0.8508232299091221,0.8569801633562015,0.7695058734537552,0.6354120357329736,0.5124620674982814,0.37565047181126987,0.2527749326042126,0.11926260596241622,0.02680456185589053,0.060493913330358584,0.18496131651057457,0.3275242256732369,0.4703751073520195,0.6129916296135933,0.7424863392122028,0.8584868692614656,0.8819181627163664,0.8955951687137862,0.8972336547606954,0.8968619898496133,0.8820054907085533,0.862468964602348,0.8245748864964959,0.789402510729424,0.7619469939766637,0.731901162569164,0.7628343760255278,0.8035478862069549,0.8191462990804421,0.8291198761964367,0.8211449666490456,0.8287671665291523,0.8190123342575717,0.8089588979679734,0.8020576964686752,0.806179157008958,0.8049147781021908,0.8033037800195428,0.8014074782371994,0.7800303165478075,0.728145395319931,0.7193694825743266,0.7660371306740235,0.8235271940613451,0.8453323417580121,0.8466342160858575,0.744250308902858,0.620942932079414,0.4837427216416903,0.3527930942810804,0.2242451257725242,0.09774093951133445,0.0,0.050746530756365704,0.17896547342797353,0.3066808128556975,0.4490813111508358,0.5840428049997639,0.7094222964496035,0.8402795125846376,0.8779881455722256,0.8711373324496225,0.8709838109359387,0.8616116247671481,0.8413886612755856,0.8117657505347688,0.7803135410743263,0.7485616434395226,0.7478399058984202,0.727034924210618,0.7311990653907205,0.7774510700402031,0.8128196044078848,0.8281208683697283,0.8431945791034172,0.8338216508172582,0.8443279579149854,0.8448968693396006,0.8448968693396006,No
0.8403590008652266,0.8470485211687244,0.8525901063668175,0.8606261241232585,0.8577538697410072,0.8488151873697742,0.8199304847995841,0.7607744039632351,0.6915788506228326,0.6118552363219385,0.5309515860269249,0.4500675243562031,0.3671176054677252,0.3508271522329587,0.4302911552380082,0.5190603671042151,0.5995905288008718,0.6867857950659468,0.7706163697396018,0.853866797690688,0.9337265974947211,0.9410877097070041,0.8993467302874694,0.8795694414604294,0.8450747701942307,0.8202154217190885,0.8443590684318021,0.8614709138670562,0.8728630876608421,0.8687331043286035,0.8736057675317903,0.8725125640245446,0.8642579755144253,0.8719428378617124,0.874125105476254,0.8784661772112308,0.8662729251532684,0.8617522017492185,0.8693693921861281,0.867314939433977,0.8741245882489117,0.8807408229246929,0.8712291712535507,0.8628915243778013,0.8364400693074423,0.808528917517285,0.7974380690608898,0.8178007054233369,0.8424284808716942,0.8583038755759944,0.8568563361875661,0.8654633322031839,0.876559501068116,0.8828213797096727,0.8556987080525451,0.7982504480305612,0.7279680222068039,0.6479667126257103,0.5679283195628391,0.48025189253085565,0.3996706070315339,0.35911489978007105,0.42886500013904727,0.5093602589809254,0.5965344782334807,0.6852605949580439,0.7657333695160753,0.851194396581137,0.9257220343153298,0.9452468716780162,0.8973399810325209,0.863296621326173,0.8196069549900884,0.7855635375845014,0.7986025943839643,0.8182441923774164,0.8256725075501696,0.8092815510846851,0.7985726137380891,0.8009919653541593,0.7999798072878848,0.8048161711421489,0.8022394881928399,0.8135176416583014,0.8239558163790253,0.8493951259621453,0.8781692142641273,0.8904436602619976,0.9024231384010364,0.9078941318028726,0.9110618708950249,0.8968569219853875,0.862701246835033,0.8382796286067526,0.8424433617661575,0.8676929904209552,0.8858734944645732,0.9013795622182414,0.9196824487989181,0.9412365756416732,0.95531512525199,0.9547742867599183,0.9138268107945862,0.8415377401893955,0.7710307495195126,0.6951070690682613,0.6097411490447051,0.5294883468282068,0.4422666640934705,0.36852746583043205,0.38158139416670567,0.4680919631688254,0.5538325911069013,0.6354278215626004,0.7245037032548156,0.8068770446665161,0.8885668309240076,0.9668922839726604,0.9999999999999998,0.9550645464788443,0.9279916330669009,0.8882248370494741,0.8889872211198238,0.9018121233507517,0.8531700687375399,0.7675298301730689,0.6872299337477401,0.5989072595670228,0.5091358726693003,0.4193616084134355,0.32973865579368766,0.24636914473107097,0.16277485504359346,0.0854098500271081,0.07893233878847039,0.15103356032396031,0.2328544972876192,0.3171831293762142,0.3980475356908202,0.48331495160171123,0.5636078347853009,0.6490740213596844,0.729392312757591,0.8103024873523659,0.8796426755872406,0.9144520382749179,0.907785891095825,0.8863315492477717,0.8670712664731839,0.8598291768385125,0.8365329179105114,0.8147588552053617,0.7953284771654758,0.7970675493118511,0.8195012796522663,0.8527755610990739,0.8650161478072864,0.8552399216049598,0.8550765685261934,0.852145760464776,0.834610483109455,0.8025323190174742,0.7806859539859865,0.7711003087137012,0.7675231898234347,0.7663113423007022,0.7584618323446761,0.765261600645269,0.7614676512212515,0.7659234977822333,0.7792582836851005,0.7734759275992993,0.7491059279882311,0.7514732442054803,0.7898886992760008,0.8324597625473633,0.8423344973399451,0.7746300482431161,0.6883857319343414,0.6073766030844248,0.5185946947977427,0.4368036164549123,0.3513193941077042,0.26244089344658805,0.18184221100979148,0.09680358347833562,0.04470649435875451,0.08572849230719748,0.1675771384622189,0.2482175781355147,0.33358433593085657,0.4135735095277948,0.48928804177382945,0.5578334360506376,0.6435107234656388,0.7299795600716574,0.7982302458500647,0.836022661956435,0.8306204347877328,0.8226658156372919,0.8114173287314685,0.8168420131902725,0.8063184816905602,0.7779705412277111,0.7571218540788582,0.7607861883228011,0.785513154849897,0.8151051408759746,0.8347706809575282,0.8382392458600572,0.8328057255842023,0.8306199393377967,0.8232435182823237,0.8184597115222305,0.8253349354590196,0.8377836586336274,0.8385227658917331,0.8288610322967209,0.8220677335738846,0.8301246582924506,0.8308762516141635,0.8311495547064791,0.8328514871693742,0.8133322737059705,0.7860509740828456,0.7745046010779564,0.8023837540733518,0.8373712030832146,0.8424231210336866,0.7847864494888983,0.7050849024005839,0.6171792124548567,0.5327626706498305,0.45001454238840655,0.3604565679133256,0.2706823036574624,0.18090803940159605,0.0914520694399863,0.01504952052024855,0.0,0.06803116625384842,0.1482590894636744,0.2314863662935447,0.3145324794907327,0.40110359387282046,0.4818909163429421,0.5662921897575264,0.6462341433122125,0.7236091138345322,0.784745274575734,0.8101044567660349,0.8179614748562309,0.8178536254682174,0.8098032444687358,0.7990436515761512,No
0.8930534327172484,0.7969095497804024,0.6701936925941823,0.6648938811850074,0.7779227406749194,0.8618089222955736,0.8768592842049876,0.8754848226367744,0.8498905768741127,0.8347691862142752,0.8775614731091994,0.9212405999338782,0.9480180170401886,0.9506712844423331,0.940506606960493,0.9252450619357355,0.898038228462926,0.8537552288739163,0.8158740983982873,0.7803865873234206,0.7583610293909921,0.7518479320364215,0.7316107820995836,0.7096068012642256,0.7022095587376822,0.701332212370597,0.7046469559094217,0.7050859148294939,0.7203217264220716,0.7464942806102379,0.7615420896319685,0.7780096949976554,0.7915004556938388,0.8202068440617611,0.8670037490892688,0.8769822479812475,0.7879322750672766,0.6647344045309782,0.5745289647087346,0.5633448603166769,0.6743193298548436,0.8017396550455032,0.89008942519165,0.9015109781866673,0.8995354018203874,0.8749247722296851,0.8622541381661217,0.9151802470908481,0.9668625201611118,0.9961699394005277,0.9999999999999996,0.994676828507203,0.95726637252741,0.8905580975739107,0.8091135682002597,0.7588859296330814,0.7707650704110969,0.7994637496039512,0.8266815187811072,0.8550239518401486,0.8739057095388758,0.8571521660035173,0.8108337219635087,0.7531834422521482,0.7127708477929962,0.6848157292648245,0.6600657838629904,0.6612680243811622,0.6789778675073861,0.6904802218774564,0.7070763892681904,0.7283817027040489,0.751747705557452,0.7905793337003151,0.8168412465542692,0.7279043810029218,0.6092356012410209,0.47783795765466675,0.4366737286095277,0.5415026139082122,0.6714506272067453,0.7487882236714793,0.7422137491529521,0.7231534469476295,0.6945584153198023,0.6605715262961733,0.6889196304318612,0.7271065076643768,0.7492849552841494,0.7547348918043997,0.7714626813522378,0.7784599167142852,0.7785045659716983,0.7785045659716983,0.7785045659716983,0.7785045659716983,0.7782927922461957,0.7663725336711749,0.7569025757159609,0.775527631098528,0.7764218184020115,0.7627422514783482,0.7878891546830817,0.816009067385409,0.8275540695221157,0.82835951247336,0.8442251759845498,0.8534048159974321,0.8899441288777479,0.9343803588940118,0.8629698231205816,0.7479604299750648,0.6223302972239337,0.6102550556227371,0.731043489235446,0.8365890155138289,0.8679293048046897,0.8211969282162941,0.7421739114047523,0.61210402713579,0.5063080165757667,0.38326003662203467,0.24541560765898707,0.1201273420896225,0.07257771121253498,0.08249797448087826,0.18358198419963,0.31770536836210495,0.44065118558652294,0.5697420944586589,0.7020119334089463,0.7759608417910706,0.7885291326108672,0.7752645282944726,0.7686579899757748,0.7616090018645942,0.7435352492068197,0.7223912063949922,0.6984131942558354,0.6954738132938667,0.7043208521730446,0.6955601712512562,0.6963027351373889,0.714330492746091,0.7194148478965396,0.7173468611548137,0.6986762120510908,0.6954444740807477,0.7109891386285256,0.714003564525862,0.6952693513086619,0.6770012629200908,0.6672896685415304,0.6265320806981314,0.5801893287066844,0.5779776107492633,0.618482629421401,0.6547499835220689,0.6669563917634154,0.612591842781522,0.49118816761661943,0.372052392388436,0.24026538516736284,0.12117092567251975,0.007413257900453107,0.023479968624699588,0.1387762105221575,0.26229574886408935,0.39025958876202393,0.5261948916264862,0.6398378581985735,0.6826084829920807,0.6652456844982577,0.6466562913202076,0.6317358490033187,0.6200381880190724,0.6025523937933945,0.5964121122171577,0.6018827838654981,0.6219481443736141,0.6524332262144643,0.6972792368203269,0.7547928786680305,0.7907048003141024,0.7826109937057111,0.7513381252916616,0.7234792445544982,0.6983798306936215,0.6804127093342132,0.6969210824292711,0.7614899849067203,0.8329278044088464,0.898280195008518,0.9188181726907714,0.9237626170367164,0.9044315469093926,0.8471730452836943,0.8010426788651928,0.7939307321571136,0.8104716550419666,0.8273152852057817,0.8114674728229443,0.7389036332808492,0.6136188311032704,0.4938664699293409,0.3664000329052901,0.24338672087544966,0.10617861874810197,0.0,0.031299959908548836,0.1532383003885469,0.2725412677730965,0.40812061414699397,0.5322417268831496,0.6592649963354744,0.7483671377709462,0.7397557741326888,0.7108518093916052,0.6939924644941406,0.6758669070507319,0.660691763085532,0.6413263920627887,0.6226162673959008,0.6209799571550927,0.6214940495983963,0.6364456768472317,0.6461322707677777,0.662964424678818,0.6886505715592746,0.6961448346278201,0.7161507437661476,0.7438484901939781,0.7798622248115605,0.8243168906632738,0.8625138257647227,0.8715162077996799,0.8873595298622807,0.868275200853819,0.83374641554899,0.7728346829689801,0.7458240992832521,0.7659630664204253,0.8036018700445458,0.814460478779242,0.7720285444145856,0.6695624691639495,0.5516876081083097,0.42020806049910275,0.3008762777290759,0.17150986497030196,0.06624815505688098,0.07290144107166752,0.18934839355897237,0.3093748155876521,0.4360824355656088,No
0.9172830463032406,0.9398120520741524,0.9318903277438044,0.8840041802708585,0.8218096902808689,0.7518165553424301,0.67872609371244,0.602973961673454,0.5279962630124082,0.4529049735259716,0.3757607124928961,0.35873540077440924,0.4299017679617714,0.5083845770187008,0.5811301413388721,0.6593204461363247,0.7351204988313358,0.8094830900346612,0.8887759259860999,0.9624386719505724,1.0,0.9822459686458953,0.9622634412398028,0.9342802606134855,0.9497497991820789,0.9791019315832787,0.9920888181751639,0.9958275208288834,0.997634040956727,0.990877822582928,0.9808526567903688,0.973041772657014,0.9686463420715847,0.963379576924261,0.9505236024747954,0.929841580780119,0.9031028754572665,0.8765518377478905,0.8623712666617753,0.8534289365356729,0.8295340861443787,0.7803144751812636,0.7285171972251334,0.7115269984521779,0.7544068028969602,0.8008732666302538,0.8435276397505691,0.8758245652482763,0.8967193363229629,0.912348129721166,0.9024890483393357,0.857840848541706,0.7963085641732657,0.7254404461255821,0.6516560415903521,0.5751138672466369,0.5265324675956504,0.5750766334906441,0.6537247306780776,0.7268630143114791,0.8027196999214528,0.8746367143252303,0.9390734249782595,0.948464110366285,0.9243700387139875,0.8984992672557406,0.8730842439303876,0.8911162136037682,0.907802352919193,0.9141766675573826,0.9106791137857901,0.9093620479369073,0.9139932282918226,0.914832461557118,0.9138002588679004,0.9070123712720937,0.8990113371307438,0.8922975689674428,0.899101600014194,0.9111442139363319,0.9050320227976059,0.8771857927276052,0.8299267987599968,0.7772262702079829,0.7381551027026365,0.7660538468331479,0.8146297109877392,0.8599235722651535,0.8934403908939703,0.9168448096817008,0.9285989820557912,0.9230068631289632,0.8802334338874949,0.8179008353322983,0.7557792033855282,0.6939567707160055,0.6186988121919346,0.5451683461074888,0.4659710282456653,0.39519299144354836,0.40925393360972206,0.48209477764606334,0.5612470914066077,0.6349689950410489,0.7114864551108455,0.7884510652598928,0.8614370479918856,0.9325262354860231,0.9701559462525431,0.9458934915914172,0.9199957058947887,0.8870421850400354,0.8814816354478368,0.9075645976181912,0.9250163317646385,0.9259387500272172,0.9107572399525194,0.8987420219808915,0.8829610547417337,0.8572076649934965,0.8380231991385279,0.8649398442929357,0.8985361683944533,0.9128156139743013,0.864628100529057,0.7877755146917051,0.7081975201234922,0.6295996262379098,0.5568432574679294,0.47869159264470795,0.39941165377996923,0.325634227185264,0.2491612710757789,0.16974194291417388,0.0949355798246323,0.023674244790874988,0.0,0.046252578504315744,0.12014852709097978,0.19942327427637552,0.27356416143300644,0.3496086168127408,0.4291500917926756,0.507497715333429,0.5802332580527576,0.6581338573883164,0.7313081880818249,0.805345548022034,0.8670965312968155,0.8984702764798815,0.8925247164055288,0.8706636528296456,0.8370849275095462,0.7917894731640887,0.7416257239729762,0.7085987927825814,0.7241801204345926,0.772750426291535,0.823737561010482,0.8670021580498775,0.8770715919373833,0.8713698721627243,0.8685370318603127,0.8742108940383513,0.8828629422411065,0.886770860494069,0.8868142097101432,0.8846807084164199,0.8836544428167614,0.8835102327724309,0.8829477307743858,0.8644680478774416,0.8380490547599995,0.8516838645241738,0.8867944584697023,0.8985673963207224,0.8523775727940046,0.7809781035525747,0.7035251145075203,0.6305006927200985,0.5529985095141396,0.47395570948547916,0.40078348262976116,0.3235154182346309,0.2464695265710477,0.17335231641680393,0.10332190984732514,0.09385358198298932,0.16136568390455852,0.23884445751635752,0.3118108271987796,0.39072275080328,0.470069797708635,0.5440998328419189,0.6201215892467138,0.6947630413396759,0.7662720790449917,0.8311774463042727,0.8763027854995225,0.8771934174015381,0.8574642374001888,0.8277414192966099,0.7840964301370359,0.7372651555710583,0.6909272608368531,0.6701924999989455,0.702659513687671,0.7567949917545687,0.8070885101443797,0.828981612177444,0.8347326022962931,0.8545251123241224,0.8800511253643304,0.9050568032676063,0.9277522739082031,0.9389887842502902,0.9401931975896305,0.9472102927278085,0.9568262632062747,0.9630877273040461,0.9697357884323459,0.9675321753558883,0.9630880317080286,0.9402009664337752,0.911884074497042,0.9029388711178161,0.9334316063884738,0.9473642342665249,0.9104196549331269,0.8404615104734803,0.7634820114851903,0.6906446916038214,0.6127451801100174,0.5333979844366188,0.45930232586233344,0.38320243432776957,0.3036580850192423,0.22406223271719095,0.14486163548760278,0.07508077490010134,0.06029485878757779,0.12508960404692515,0.19836356121705634,0.27526698203976263,0.3548303388675875,0.4325776674257342,0.5049336038073704,0.570640617709872,0.6242002516144167,0.6821468389226415,0.7546496323268419,0.8236164344448624,0.8877216052914134,0.9084007280139093,0.8872674007315029,No
0.963387663039331,0.9626657544858759,0.9489159312745494,0.9408759423971595,0.9406449795045262,0.9367221693850127,0.9460679801959011,0.946217408355337,0.9460443087449684,0.9362478275484847,0.9419082067468487,0.9462059000640384,0.946217408355337,0.9462173035548118,0.9456402614146207,0.9339376077817167,0.9437126080202463,0.9317690456087013,0.9309472789998434,0.9212972944121738,0.9397472234030304,0.9565779326887389,0.9660646888821658,0.9485611213885012,0.9434838773154066,0.9124085819493972,0.8846920160856948,0.8285508870110894,0.7610221202779948,0.6873791216127016,0.6327850994471143,0.6526717642139528,0.7078121870426957,0.7600509715909745,0.8082870210572088,0.8397812004115739,0.8663324634625216,0.8685567438968644,0.8676697131395414,0.8874175888151972,0.9048606953369913,0.9165774741374735,0.8686021264951793,0.7787692281868686,0.6754556026239036,0.5719525627201323,0.6011560705081092,0.7164192305752026,0.821894453261292,0.9290444226589241,1.0,0.9818928058046121,0.9674142980656972,0.93743164066762,0.9023995904572009,0.9002781706693082,0.9205615852492528,0.9134865124311387,0.9008755969454127,0.9149564477597156,0.923070455046501,0.9192475306416665,0.9101776400061987,0.902579791035937,0.8982357813987236,0.8905275737336447,0.884458745260869,0.8931627881714301,0.8886899565168758,0.8817374535834905,0.8654326584474838,0.8615951211598922,0.876424952433172,0.8748447559159871,0.8647797750729525,0.8764510016719744,0.8805349028444085,0.9027729731164933,0.937523863404528,0.9555176621979493,0.9438877362682083,0.9315920590784037,0.8911268932495431,0.8360177888994818,0.7662957518845621,0.7028317525204075,0.6815035745411855,0.7318275076695269,0.7832199616236233,0.8325019372457385,0.8713137298449505,0.8939155343338698,0.9218108066353792,0.9359189967080717,0.9278337046546463,0.9474036616178871,0.9779633059476569,0.9474123601925615,0.8697745741534524,0.771173576520745,0.6658525259321748,0.550085939588226,0.5056282652247504,0.6044600838722136,0.7127498044847509,0.8252375446799682,0.9249494373195062,0.9606590102397337,0.9348478766649047,0.9198058548902863,0.8838448300353363,0.8701613255985716,0.8949041127211199,0.8792395493626279,0.8720949821945623,0.8598682760328749,0.8753973368969206,0.8619024381556195,0.8340841786327431,0.8404926077513397,0.8319884932628616,0.8191193588851751,0.8208037895653786,0.7675128431198579,0.7525141912023572,0.7594034600153008,0.7595180994946484,0.7541587529758886,0.7829988139525099,0.7983528821834764,0.7985477923837463,0.7985702525855682,0.8017015610781844,0.7877383778958085,0.7812388249144129,0.8229076569392682,0.8616578836323212,0.8510078127426723,0.8249506616934412,0.7440352995840751,0.6642048446698428,0.5762608726377292,0.4730102371758993,0.356562670790888,0.2507959759422089,0.13889321662255094,0.054691677455959375,0.07623695181362589,0.18568986994810377,0.2964871086183205,0.4095875411222414,0.5325024325851802,0.6432555913896789,0.7563024893805284,0.859739384000497,0.86855686198124,0.8608312178731219,0.8474065219432503,0.842629967988326,0.822311588926766,0.7995504179413317,0.7695362754983348,0.71348183417473,0.656094714627323,0.604896974061095,0.5950287754206944,0.6318249555887672,0.6999589955523686,0.7711167543354644,0.8342840734282895,0.8621287766945995,0.8717053868379558,0.8568142611008822,0.8256186055208774,0.821467306055891,0.8087566903296586,0.7825703407316564,0.796421645908775,0.7985455514130448,0.7985479427225943,0.7994013344571527,0.8152545240943647,0.8215951261231571,0.8216211698793074,0.8216211698793074,0.8216211723745581,0.8219465287018579,0.8348174487050048,0.8445937533822114,0.8430756896196914,0.8286875909618949,0.842323251454371,0.8440214934763337,0.8244176327542756,0.8076040414596779,0.8462033398159727,0.8845886966692165,0.8940155521805697,0.8731927149117111,0.7614643301022808,0.6544919998622301,0.5369985218907583,0.4218615952101219,0.31304809944357226,0.20107740003670305,0.0906639213851026,0.0,0.001258209367146712,0.08955155884980037,0.21013424090827115,0.3322724122524887,0.43881176953384493,0.5569714848115002,0.6713618776726755,0.7785606445060784,0.840956070507977,0.8282543365419439,0.8047874530404546,0.7983720653433855,0.7864807003102121,0.7596903383208113,0.7230238300052432,0.6666431367592791,0.6089345333136538,0.5591482698647474,0.5476021794668635,0.5616789318096016,0.6283998376877697,0.7023320005811957,0.7736333855910673,0.8298699876676521,0.8543946032429104,0.869431229971013,0.8871956132426639,0.8824433488610994,0.8649979240526458,0.8409592422543906,0.8502310938108519,0.8674661253137197,0.8677679248704298,0.8677679248704298,0.8677679248704298,0.8677679248704298,0.8677679248704298,0.8677679248704298,0.8677679248704298,0.867767935475245,0.8681131830490258,0.8802968374742863,0.873737398963633,0.8677999049359681,0.869097818679287,0.886130928342415,0.8874909407641267,0.8866083379163534,No
0.8320889465224299,0.7902883349185426,0.7086659081949165,0.6005429378142875,0.529439831621132,0.6108552640077707,0.7206389853292445,0.8270720592920826,0.9282466132243883,1.0,0.9626126541583164,0.9059213948507678,0.8907485221288369,0.8652947484617188,0.7955768063113249,0.8010254515581026,0.8415580064826305,0.8712040533984768,0.8932985377706681,0.9097978102817508,0.9351519716595571,0.8954250385375584,0.8919295755927465,0.8739279153928039,0.8751657877412606,0.8523711167649006,0.8393111457499733,0.8362287259612229,0.8455928867334888,0.8573485525818652,0.8392749354083664,0.843240314477053,0.8405027844149235,0.821273486672073,0.7808868261022059,0.7231675416589112,0.661847094300799,0.6773424280295051,0.722298808983802,0.7691257010097856,0.816601140386692,0.8279790977636723,0.8423715642823808,0.8746265299149418,0.8627728133304209,0.8129433462748397,0.7227728593234786,0.631377643286863,0.5291101738315414,0.45952064590114894,0.5410163328391504,0.6529880744750369,0.7584712054935414,0.8539575958167207,0.9413063361534113,0.9906033104171938,0.9321987683950348,0.8948777179038117,0.8697241583955817,0.8194059113779417,0.7733084915857025,0.7684804743547047,0.8213837508923296,0.8478169213783828,0.869017914009016,0.8929352650660163,0.8721789265476132,0.8717918239418072,0.8760180543207836,0.8624416754480513,0.8574355672374905,0.8627055193625335,0.8452668956380913,0.8589790510156741,0.8892170712376202,0.8721574183101013,0.867341181320672,0.8732794090956064,0.8611144609661054,0.8358256160089632,0.7844538187233447,0.7246860268530702,0.6907481382198708,0.7142574056496911,0.7649215422873512,0.7924559943314775,0.8134316022817458,0.8399108854840942,0.8593897547496026,0.8588733083236146,0.8300633914999875,0.7663262422557109,0.6890749998306203,0.5930806885153328,0.48459261051068747,0.41292497669188855,0.48418527536149325,0.6013321369776556,0.7190086350816212,0.8327850038346329,0.9286308555823237,0.955715356969316,0.895788920744466,0.8851904230195213,0.8769860060828836,0.811466531894883,0.7722788672311638,0.7934334917204602,0.8371109675380928,0.8481763242352849,0.854508060571324,0.8498677103748058,0.8706433593374951,0.8445008489431167,0.8537902818443657,0.8712372252881968,0.8439606949420497,0.8366940488865438,0.853817488944951,0.8498163627863047,0.8458761021476495,0.8492272596335124,0.8084490958828932,0.7776367865562421,0.7753117044548312,0.7605595026593148,0.7711190197188,0.772249460195765,0.7685004785983773,0.7813526222238041,0.7796748380988778,0.7802344631830591,0.7811420543258025,0.7729978499180747,0.7645823352267049,0.7134301120450934,0.6944016690011034,0.706860938854768,0.7529594039434002,0.7887241589177769,0.8038255370266087,0.767194056679664,0.6541822775540611,0.5472453882246722,0.4358060676896569,0.32157542393272776,0.2167067621407699,0.1034397347066407,0.03825438544245463,0.09839824298405953,0.20212825293829528,0.31368112568532824,0.4090234248103579,0.49793243676112064,0.6000856455038508,0.6910477844416834,0.7598306093416838,0.7812592259588578,0.7660309841215325,0.7683310147705256,0.744992704879551,0.7120617802052966,0.6596648725282677,0.6235159103341545,0.6352362755159966,0.6892496004336235,0.7558590944968868,0.7939733026366995,0.798770005874931,0.8072149459197346,0.8001264807771276,0.7996624601279652,0.782377328714599,0.7833746936140282,0.7811469217388307,0.7836193740371833,0.788230899006467,0.7954884664980382,0.7874043639342903,0.7951496538674552,0.7986023845000401,0.8022856030875412,0.7904670383055445,0.7688806590955988,0.7158824687639163,0.6922457031088074,0.7185677172320846,0.7647552359590422,0.8124044258523693,0.8308059409778528,0.8233278753910098,0.7247800803272715,0.6134864866853764,0.5066054910475288,0.39663657894455717,0.2887409346455869,0.17204569097760647,0.06709645607435677,0.0,0.05779504767432542,0.16008637733997189,0.27356617021028384,0.3811673711519812,0.49188030628772905,0.6061796232194565,0.6986874303762272,0.7759141496327873,0.7878789708963034,0.7600192542373567,0.7498003123190609,0.7257468698617187,0.6805852794820684,0.6320204142449488,0.5949455416288143,0.5990538722939069,0.658844573661884,0.7180403460605751,0.7593202667092642,0.7868223759669082,0.7684998968788799,0.7664294978552815,0.7828936079077615,0.7770881190826815,0.7618720457600121,0.7682009504984868,0.7851167438384667,0.799546800659992,0.8118174422535773,0.8224819888051216,0.8149672987371441,0.8183460861310805,0.8060620235415343,0.791204049654473,0.7499465859564638,0.7002994360551416,0.7041394195977406,0.7190866922917571,0.7919199124122782,0.8273372927380791,0.8446252043288767,0.7773997722963424,0.6692693129036145,0.5603466207991188,0.443804653533471,0.3385339923920676,0.2255956051284178,0.1216299349734058,0.06836653912291579,0.13982927124675992,0.2437622304199607,0.35761649468594614,0.4621565520716664,0.5775593446122884,0.6823601979699876,0.7552775868061388,No
0.8671720702522565,0.803531731541574,0.7284675247510739,0.6523855249840964,0.6075428442382234,0.6551200943200421,0.7238795885892393,0.7876629494269203,0.8432917388381633,0.8786051153992194,0.8926616185754841,0.9198303375048487,0.9429640252945393,0.9671653336010699,0.9294616843277281,0.8277092669619166,0.7223575098137882,0.5990289973666356,0.4850775269861045,0.3623440397244897,0.3196922403348159,0.4231014870198604,0.5347283447201598,0.6338848490068734,0.7444020450973796,0.8630271488449099,0.962341665679749,0.9737442782625818,0.9382642150526546,0.9036270749366664,0.8631184285911537,0.8708005176575977,0.9032292520291532,0.9180163354450617,0.9188761707295479,0.9065155358939925,0.9009638863172627,0.8949823931286143,0.9062344400819229,0.8820177324043366,0.8819122229953784,0.9006766938540465,0.9039330991217698,0.894667458815241,0.9130524428869315,0.8977075736121463,0.8531125204284096,0.779940824124274,0.703925616269176,0.6277842871743862,0.6151375329428923,0.6765206071244618,0.7459792217892467,0.8133286108391196,0.8631891324263887,0.8885789339796575,0.9163737990397292,0.9376227098725765,0.9524584330187307,0.9280242257608458,0.8308855775598074,0.7190830255567326,0.604807793739834,0.48595803984393227,0.3842122253049909,0.43721553349099107,0.5619305144352986,0.6767367723266622,0.7972089452717599,0.9094876475613569,0.9969633043268771,0.9760743927797169,0.9437989904756443,0.907546212206245,0.8853067708866535,0.9025035688758156,0.9232672198380163,0.9244994783261444,0.9230473096627279,0.9022167848809342,0.8995476914125566,0.9021937044337953,0.8952249241995238,0.8962100067900507,0.9029972012727012,0.9157828151246039,0.9080257610980755,0.9037160927368761,0.878329421413417,0.8266671154529228,0.7604643173646588,0.6827850785741685,0.6002087806119714,0.602578339757466,0.6656724065525008,0.7409409684676818,0.8019159105156652,0.8483852287951086,0.8795168451043511,0.8946009303431359,0.9186232090461832,0.9385215912179832,0.9069981907403473,0.8168207436092749,0.7097700626997288,0.5878207328495324,0.4757930393492349,0.45769281353702773,0.5736417836341285,0.7008323650506494,0.8163086982502108,0.9272079767258266,1.0,0.9652880829187764,0.9318300545741343,0.8992386667586314,0.8818307928852205,0.899722153678995,0.9130584316384693,0.9212723508442724,0.9143863205177531,0.9259507876355171,0.911869164212654,0.868245054621223,0.8548986573936088,0.854014917470213,0.8527958617547764,0.8517928086868611,0.8364012798253571,0.8140678584066809,0.7992903582806887,0.8467796910455903,0.8764007721576204,0.8431421774919774,0.7394394771293151,0.6181275014869425,0.5038810403347185,0.38088286013314177,0.2663753586658304,0.1512147150404406,0.09442250634493154,0.16722901634058296,0.28905982116416107,0.40415667881678186,0.5268653405562618,0.652497320670943,0.7626664164697652,0.8499210907947186,0.8535193959681244,0.8472088884604845,0.8343524383447303,0.806490273861153,0.7660478872539236,0.7052974767247817,0.6375863691247274,0.5686928644662839,0.521023693553234,0.5392383755273129,0.6119748004188073,0.6907206395234531,0.7625159593280384,0.8180566031818088,0.840525165716242,0.8446761238701739,0.8467033301317919,0.8260339561921684,0.8318408258229733,0.8324226009766411,0.8316263204974224,0.8282844385547263,0.8486999247364793,0.861151281020271,0.8643535049038458,0.854110759463917,0.8274182833857053,0.8155115078532167,0.8495898569638101,0.880803071700957,0.8717101441686252,0.7765798479863095,0.6527189848397357,0.5372363006590026,0.41522844522923164,0.2971426381417235,0.17962778378521094,0.07185601170055378,0.04005996920264776,0.12715710792608492,0.2518490621719267,0.3796701032880838,0.5052181754801142,0.6187639745614049,0.7339915145425646,0.8333954542236803,0.8717001703418563,0.8615443059377954,0.8575887703466485,0.8305249567716091,0.8028125339328298,0.7525256731947176,0.6788783288067171,0.6089392531558064,0.5470127793204145,0.5369021222138475,0.5923884454940991,0.6740776477675832,0.7540765472458233,0.8122574274245902,0.8354223134667857,0.8267619883207367,0.8362002125456311,0.817608243232971,0.8222059233842849,0.8185163181787609,0.8351185342933114,0.837745677430255,0.8440449998712269,0.8449066987383036,0.8457175077222634,0.8553135361319328,0.8408905076910025,0.8134835662435522,0.7920705182097438,0.8238134494233229,0.8583736635688366,0.8613726358747198,0.781970780358912,0.6636457190470715,0.5461248692486649,0.4236149321363669,0.30861985859067875,0.18819750683351177,0.07499838423150296,0.0,0.05221242107005608,0.16263267164775375,0.2829137886135036,0.4106442865263351,0.5384676046170487,0.6632508350333723,0.7723011712964607,0.8644846952323588,0.8820186047080614,0.8617317682605603,0.840399268519251,0.8127603478257797,0.7733100442954908,0.7082008119547001,0.639174729635525,0.5723181316298755,0.5371518934391442,0.5678877246155065,0.6398002426949958,0.7176843317176269,0.7884013136155437,No
0.9114667773109206,0.8640898922482323,0.837247283763854,0.874544565799235,0.9130238077640833,0.921103960117639,0.9035577585640311,0.8981544995779689,0.9051487703781615,0.9051281441444685,0.9034544152652895,0.9049401482129535,0.9075652021624105,0.9085764094291291,0.9079824682430273,0.901063632663482,0.9084705419584844,0.9250719933523628,0.9330177386608025,0.9453761260545417,0.9379969452869246,0.9249954385573245,0.9129978747292278,0.8731491073954121,0.8058948098405996,0.7395522912537145,0.6773684004072396,0.6761935915910342,0.7341027871851684,0.7848186460873128,0.8318270390057061,0.870132906730382,0.9031544579877602,0.9286390183596074,0.9430664825820558,0.9632253979244665,0.9898148369161788,0.9440310782816546,0.8525560288476324,0.7506943323918593,0.6569577478257977,0.5530628572672478,0.46885109254586,0.4910132921542891,0.5943287610248758,0.7005596845104891,0.8065057718422846,0.9023339225042923,0.97051658638563,0.965913761406753,0.9496691582120638,0.942529023881508,0.8987646109102012,0.8447375831363566,0.8224679180143182,0.8672483069718273,0.9088543309593737,0.9019894636121213,0.9147099159793874,0.9163038455382908,0.9089513697901193,0.9031107658903055,0.9016415188962574,0.8952510123895003,0.9009344990070927,0.8947748145808558,0.8962127860813134,0.9058422169615146,0.9080745373735424,0.9111813388000118,0.9187414608219504,0.928779414299248,0.929083232455681,0.928504006835656,0.9127274872695501,0.8844602141484612,0.831543432598085,0.7614692027794672,0.6988151668414295,0.6892063286247352,0.7372355976232001,0.8005478036973954,0.8451376537628719,0.8813300727744211,0.9143512255206574,0.9405085760355723,0.9532881950720233,0.969967441022096,0.9999999999999998,0.9624929116702339,0.8774219724243844,0.8048376095476246,0.7116349972807086,0.615282440752629,0.5101897006294058,0.46129884077531824,0.5404769280162454,0.6369937675795783,0.7420286789278003,0.8358502223220559,0.9311680471408617,0.9871701532593098,0.9677559427578399,0.9619225607633826,0.9438411741988506,0.9005403916955774,0.8554426638918413,0.8464313792437712,0.8916057207137758,0.9152723287994056,0.9254449252027894,0.9209329050490791,0.9078281157700177,0.9182108756532885,0.9116045370145802,0.9033775342804737,0.9036299660291898,0.895193410976159,0.9057469889429821,0.8976001458475615,0.8883011426694412,0.8849907097800866,0.8857936753661362,0.8544989787824584,0.8365555522611714,0.8356480620225926,0.8413850676966705,0.8364620317826501,0.8438185204841935,0.8479385313450802,0.8526701932780425,0.8527274240817142,0.8533658111535221,0.8650049647276294,0.8674464315808119,0.8379511932818022,0.7888982977679355,0.7749128763001509,0.8113610974141234,0.8571070010257318,0.8986637561295849,0.9147764315136986,0.902418089306251,0.8383505420727364,0.7335653824022168,0.6273341256343297,0.5214439207526722,0.4254567892940948,0.3259298136039328,0.22357550881968868,0.1304788826841976,0.05322233008398869,0.07748173428511484,0.16603523282914945,0.26891681627003083,0.36200234880347293,0.46618662920794285,0.5717575723589563,0.6662700397224854,0.7672316105555643,0.8612277360753435,0.9054520389443554,0.9031890548479773,0.8881872906868116,0.863421897221716,0.8314444992032082,0.7909173493310899,0.739439765104281,0.6814395104134123,0.6343742549458857,0.635795977451554,0.6862242200693671,0.7502846626060731,0.8120396884424521,0.851870515358583,0.8693783399658053,0.8753058064080765,0.8840832331126987,0.8642800185920938,0.8530045528687371,0.8527136990085824,0.8491184974346677,0.8367631133114368,0.8443342267935112,0.8462685576523523,0.8464285552917177,0.8489362671880063,0.8527140603444863,0.8550371412090698,0.8624697504075483,0.850109201500121,0.8457942784180579,0.8093347428784743,0.7609286010617418,0.7714148984920717,0.8093395639281236,0.8653956489699521,0.8926541056925619,0.8962470005966716,0.9087623330523347,0.8520742870656772,0.7521268211142591,0.6506167036389134,0.5563227637081523,0.45093714302709054,0.35341137564230496,0.27670145308133853,0.2058624818563224,0.13646253692794175,0.057482671559350385,0.0,0.06100904570113008,0.15262253660907166,0.2567120931187674,0.36035076332580274,0.45350732971957197,0.558022497417251,0.6590895148560401,0.7536840528868802,0.8528935918467131,0.9095662224302752,0.8997971838567238,0.879269231579898,0.8550939618295128,0.8249991068402032,0.7876233038319926,0.7345987055915078,0.6829727741727802,0.6248481557442978,0.5970435390598048,0.6296918168252497,0.6903880386452947,0.7640010101459029,0.824275848671405,0.8598165709592973,0.8755199040182065,0.8866164658215927,0.8769982094660829,0.869171663385014,0.8511192719645899,0.8456303661672411,0.8469013188228789,0.848073970615608,0.846039726827345,0.852253568571242,0.8527855870459191,0.8558099931076113,0.8535519180620861,0.8527600585088886,0.8574682625457786,0.8542442730702182,0.8063697650724018,0.7709213734672347,0.7895354473143688,0.8251305132419182,No
0.8236794261973965,0.853007143212974,0.8315705721863862,0.7424378713475013,0.6416228259775798,0.5378667943903659,0.4362350510133879,0.44319118389817835,0.5468163437791114,0.6452432601250988,0.7534746613487908,0.8337629423486483,0.8380061946726418,0.8354797937218483,0.8187054688952242,0.7673590639767569,0.7217147107009689,0.7138140378918354,0.7444979432210965,0.7340935088137417,0.7119492747210459,0.6994092339144642,0.7198612938734261,0.7680640940500802,0.8387268171602036,0.9002990028889355,0.920128325755454,0.9278732563567222,0.9395367481843133,0.9519666999942722,0.9564131435662622,0.9534671209936987,0.9268569408377909,0.8851724914789585,0.8354857412902661,0.7944543153540227,0.8037626872227535,0.8494992665561176,0.8990156735952641,0.9467467952949054,0.9852657386880377,0.9902789834177355,0.9799365856209239,0.9999999999999998,0.9979082752315549,0.9102817936682086,0.8062587812996636,0.7067665387648365,0.6001461847704299,0.5231081798234885,0.5841048383174205,0.692212215347096,0.7905877296615353,0.889450456655035,0.9593515410581379,0.9519673605739347,0.9353728063711662,0.9155231324630695,0.8660020283286689,0.8190419774994162,0.8260125933571183,0.8755999075587761,0.9027731205886662,0.904795465179941,0.9056368854063803,0.9199618380671801,0.9340474887558587,0.9334124079445998,0.9287491673774622,0.9148382359332576,0.898981389343408,0.8933927986911205,0.8958281250376079,0.8968106544752199,0.8990701973117889,0.8837906883935858,0.8594782859298127,0.8275783071007343,0.8049947198309975,0.825275268748541,0.8645077278348643,0.8999112451787517,0.9256955076577904,0.9315187841544621,0.953590059395298,0.9627566170936104,0.9750872143988161,0.9035924865300136,0.8056406189449385,0.6987389087522959,0.5998865127135058,0.4908225383969935,0.44504243091292106,0.5332305083147573,0.6326149661675855,0.7401469931134488,0.8204140942451448,0.902407176321186,0.9459141935851412,0.9396987507651089,0.942949503477281,0.9280586758877096,0.8742950893658235,0.8512035024686602,0.8963854233691542,0.9502355296165554,0.9741656475734615,0.9880285621307385,0.9828532932587317,0.9619045299416473,0.9264498195902571,0.8887232041644142,0.8850091387859289,0.9123829851186274,0.8960912269248473,0.8747882962429439,0.8802552893437892,0.874274892445069,0.8832335429851226,0.8455015183101746,0.8251879087498704,0.814905233456938,0.8203048540433862,0.8309672522441718,0.8495632357551488,0.8351470062916426,0.8173798035087356,0.8407145880286577,0.8837477059320886,0.9197762915983441,0.9389189452052171,0.9335788202447446,0.9118180867299983,0.8621498305939708,0.8078183495207376,0.7880818846266211,0.8151114860567026,0.8613617330229884,0.8861933170853382,0.887817312088049,0.8404952053002235,0.7438108928753964,0.6409317403660186,0.5308658072050811,0.4320373559162809,0.3239653835149021,0.21714971691600105,0.11930906761715021,0.05408372533365635,0.09662617466941925,0.19345925780815176,0.2922227578261547,0.39977947680959613,0.5112199446101997,0.622677540927272,0.7338644259774763,0.8343213347523892,0.8930642182831348,0.8954546434935573,0.8793546361044047,0.8618422554046463,0.8326267397454623,0.7952475785902238,0.7632432677498417,0.7505099305428165,0.7716280103827231,0.8067133188560531,0.8352391402729824,0.8431140020019139,0.8425607818908445,0.8428148655057435,0.8377744113647199,0.850201180961762,0.8658086173414914,0.8793981010241898,0.8804138292774935,0.8705658298378534,0.856520112498077,0.8537157774501607,0.8458928514355193,0.8265155468743124,0.7741487331578167,0.7488283899485195,0.7697234876214349,0.8192767623381221,0.8698600615666454,0.8929675830302448,0.8784981547903035,0.7971526671022475,0.6979082023001484,0.5933465770981543,0.48964990793240903,0.38737630671500045,0.2766150601344519,0.17627846922904955,0.0941485984216952,0.11318751087995715,0.20353085309754104,0.31074014337724054,0.42217538401527865,0.5334858338199855,0.6369542155173742,0.739526929600441,0.8468615990670523,0.9163906854534443,0.9239638039861597,0.9320210066890258,0.9220079208416487,0.8792731136332141,0.8344633896798073,0.786391229674688,0.7434587236323578,0.7379703282365815,0.762400638262825,0.8081086871989334,0.8576074921152814,0.893192137281807,0.9061880755620286,0.9008389157963761,0.8893207956374709,0.8736961655413162,0.8672046942844218,0.8587077537343226,0.8044428913221184,0.7357492540616295,0.6829067514124929,0.649309048939944,0.6513025945296345,0.6649793684606353,0.6845334606001552,0.671803825729911,0.6447461494342794,0.6699102713763347,0.7172956311623053,0.7637596654280785,0.7814717028772942,0.77480878107462,0.7200626413262519,0.6468986543607829,0.5720272082126103,0.4768423772403463,0.3669002044801377,0.26749818030901706,0.1603571432722568,0.05206674166024716,0.0,0.06473207261258263,0.1616951848696233,0.2672618157104447,0.36664261827507727,0.4769714233417093,0.5787872964828888,0.682727789458095,0.7705298795366808,0.7788254009800835,No
0.7807776949727965,0.7804424480595669,0.7697284289329362,0.7335960644364008,0.6639556169113157,0.5922270613458511,0.5446664185973071,0.5783393254625515,0.6368201086432455,0.6909948044401684,0.7303217028219537,0.7654213412104973,0.8165615319281507,0.8946584446386143,0.9257832923723532,0.8534548712582584,0.7517542871013372,0.64227582581098,0.5910817434142548,0.6735322757928006,0.7714884774279864,0.8056540932178595,0.7807410338199905,0.7458846221173034,0.7367400155046611,0.7684121708945197,0.7805176798135329,0.7828705719776596,0.798258798525217,0.8063345992217135,0.786145323888144,0.7449987452579501,0.6788198091751398,0.6089735231618032,0.5500139052940411,0.5675919781498926,0.6248857258416172,0.6776054281552335,0.7161521562667048,0.7447328011545771,0.7984471531997894,0.8795835628334887,0.9450325706608795,0.9006041891788688,0.8027765066992114,0.6940721173493538,0.5831152655075964,0.47452293903871134,0.3775798916041617,0.4234081379571315,0.5344601103220767,0.6407039147391684,0.7388791595705431,0.7636005310690723,0.7440630043421266,0.7066695507592373,0.7127309957521757,0.7335106265351434,0.7368191054632172,0.7500224482784847,0.7704303677128779,0.7789181802881366,0.7563440817033895,0.704860792850565,0.6359515803758053,0.5721231784960856,0.5696742652604734,0.6232092540916929,0.6795959911185261,0.7132783072299305,0.7450221148562968,0.7969094334476872,0.8841261467353727,0.9753369921689046,1.0000000000000002,0.9264761815647258,0.8231226191646523,0.7111868101713206,0.5969959395374167,0.4977563132514067,0.5020857696172059,0.6131353870325278,0.7210779718486451,0.7900868764644076,0.7821969354185165,0.7505570110095825,0.7176893073543422,0.7367196639223448,0.7551926792651746,0.7653837559214229,0.7702527947450115,0.7840728015324252,0.7861700553560727,0.7552426897691673,0.6955080823752089,0.6266126253239632,0.5638500660338928,0.5831523257523912,0.6469305155425913,0.6950068254710551,0.7364359111072558,0.7679335783594297,0.8159055712834207,0.8995389895233983,0.9474680272798952,0.8908967312899725,0.7916947510383443,0.6817835255929052,0.5803226461489144,0.568636106556071,0.6729315927761939,0.7669852822008252,0.7959262287133815,0.7696687225564001,0.7284225333479573,0.6948300326735748,0.6747111910319956,0.705979984458682,0.7294780739189453,0.675502660478051,0.5702170879020596,0.45653588662732614,0.35010531530069966,0.23508636463503452,0.12855579809230377,0.023409632347406673,0.0,0.09320905946035185,0.20336327542247012,0.31261188484000946,0.42954548692221306,0.5436353195967929,0.6501063059111567,0.7617538706989959,0.8332070781395393,0.7898740192474707,0.7230024810827971,0.7002169629645592,0.6869015020903351,0.6437146877605622,0.5899050093551435,0.5295155198115749,0.5142325520004232,0.5648605079162434,0.634832794667133,0.7024329571604178,0.7419846637152359,0.7394757397698017,0.7231102334521549,0.7169518236727634,0.7123895645517637,0.6872839783598261,0.6637897768710739,0.6891209741104205,0.7269637536047007,0.7069616104952618,0.610354955361186,0.5044274248198122,0.3912102188734481,0.2830592354700683,0.17193210566718098,0.06972035592654557,0.04900883974360637,0.14188920389621562,0.24792145405402644,0.3620029006739378,0.4724623166863118,0.5818318768090827,0.6980021002790922,0.8044862725412061,0.8789921488063979,0.8238056553169086,0.7459436031708189,0.6996855940800073,0.6707531263357842,0.6312458516982413,0.5724549494309359,0.5142687415922242,0.5047252098261572,0.5543355766599205,0.62058152309921,0.6874721000335822,0.7304090741508154,0.7341528056828193,0.7142231247502211,0.701096337218533,0.6977968895679199,0.6786798577700359,0.6494310092988338,0.6716569090239768,0.708615099098725,0.676501267243278,0.5756887516452733,0.46861226646718035,0.35594792470628955,0.23881913947785316,0.1255289607483292,0.05261810646740539,0.09600459100093417,0.2025156826196164,0.31010872386247956,0.42658167131200897,0.5365171307250238,0.6462766019881776,0.7561786829320465,0.8336860485559947,0.7847272730977248,0.7210890978195132,0.6874554718955748,0.6542118732411055,0.6062762291750732,0.5484002420043759,0.5015008766107287,0.5117612084142988,0.5742194600970814,0.6442393682199696,0.7123006768511486,0.7520088035182673,0.7629239892505864,0.7475818795340359,0.7450145663480334,0.7393603058143563,0.7094814007487045,0.6789873104899173,0.7012432100687109,0.7383197471809877,0.7063724668449447,0.598624998471774,0.4905785921727779,0.37886434099880906,0.26897177925702453,0.15967742757318004,0.058993157481752156,0.043078175023572474,0.13734667208089668,0.24340038015065213,0.359300322996998,0.47304284599848834,0.5797324330156102,0.6939302170976662,0.792732055360944,0.8021868541758794,0.7471126266564989,0.7049468382602024,0.6817329536903556,0.6397304679868852,0.5820031305725297,0.5247551863188875,0.4966143407201684,0.5327320445793868,0.6039468722185501,0.6789848616744127,0.7255589621652156,0.7434533449146723,0.7450400210389552,No
0.9233886424811311,0.874934423882094,0.8036652987849031,0.6952288115835437,0.5824388808978105,0.4713259328711583,0.5006192605264554,0.6249614892277942,0.7469071716469897,0.861036795751585,0.9557648129309562,0.9410045044346864,0.9105087883513217,0.8748850167539812,0.8328190756248612,0.8786563847517503,0.9134362967738414,0.9165869053619735,0.9164595807784988,0.9135662208013744,0.9378015681369902,0.919331344033282,0.930072258260989,0.9523468346445303,0.9263789721535391,0.9116445282523338,0.875202616838223,0.8503269071065218,0.8661475665765122,0.8766485207200554,0.8690575868922523,0.8867053362891006,0.9119832554744747,0.8772671379610282,0.837838403453318,0.8032869585082434,0.8003972733813596,0.8456397035284131,0.9012200081113875,0.9144906463810276,0.9126655164073334,0.9242878753350618,0.9149343935947516,0.8888304291705653,0.83243619785768,0.7518154697167345,0.6442407215169634,0.5283754220211918,0.47061759613458864,0.573581099286427,0.6898162711170013,0.8080307344068296,0.9070740911960935,0.9243955349580384,0.8769341078533701,0.8365511550740794,0.8070565013832778,0.863437439479009,0.9078515262616036,0.8996834330028167,0.8823925566337416,0.8991564540311492,0.9018225003781732,0.9319006304574633,0.9489277502441871,0.934966629015896,0.940554086379338,0.9672480381076087,0.9831160523162819,0.9680818505292934,1.0,0.9973884062928495,0.9844513093333274,0.9530867485828418,0.9117275513973073,0.8700395051787551,0.8302284897265353,0.850437758315095,0.8940785856638338,0.926695627164186,0.9081924120408322,0.8865418038811752,0.8865819320505661,0.8911880522081783,0.8300983945913925,0.7334665333530657,0.6254245738156907,0.5143614023425194,0.5022802387734964,0.6112284585333656,0.7247040524478701,0.8332353947446349,0.9071767315734656,0.8968401805093524,0.8491216985134535,0.792967225743098,0.8143241424513161,0.8569812334744227,0.8475546977955148,0.8689290484339449,0.8860097712717838,0.8560963848897245,0.827480081923559,0.8635193275356126,0.8752912321357833,0.8406790256032854,0.8410974511211244,0.8525545590870087,0.8730154600778359,0.873315213329648,0.8698946164472354,0.8958494142790734,0.9014006741704987,0.9097978364234609,0.8765328292289372,0.8151542283538533,0.7984131034925821,0.8284545963620573,0.8871578955632491,0.90656609080074,0.867219777180412,0.8106786091283165,0.7883879112984769,0.7507840496592579,0.6964408614877238,0.6857778840182776,0.7059700636683734,0.761446163152423,0.8140532506190228,0.8104161509888845,0.8022124333279046,0.7906254343161319,0.7897514245049,0.7957144492450623,0.7769038039329517,0.7709212088722568,0.7684914572931558,0.7658498458224066,0.7799083348392148,0.7533380058638457,0.7516027014999853,0.7641752651923439,0.7679962567022711,0.7623697905872961,0.6954860494786193,0.6668997252031676,0.7182746212881339,0.766676348668986,0.7421595132128016,0.6405491947945232,0.5187557869726347,0.4027427345676404,0.28192970136683604,0.1576163744154937,0.048540386461031204,0.0,0.07684991079890713,0.18827547436633507,0.3012426931425658,0.424433834412854,0.544130763857158,0.6610071229182695,0.7705558354732109,0.811208719338627,0.8077287626403424,0.8051654963688115,0.8073147119251023,0.8291820656474371,0.783482958976538,0.7694390051564843,0.7369752453546439,0.7682684302771094,0.7952351500976387,0.8466551707228196,0.8724528619919631,0.8776091274634652,0.9041997212691513,0.8820368205056526,0.875080823642159,0.900440827266539,0.8571737375858972,0.8294637261789668,0.8396326342110174,0.8372946901050824,0.8237376118307775,0.7920683677935387,0.7921636659142126,0.7902845032438659,0.7828448749525694,0.8020848330707948,0.761785714437619,0.716785029027176,0.7412397024239752,0.7835900261109292,0.7965156692526634,0.723499969294001,0.6210323192825684,0.5049164181166494,0.388544061457083,0.2689301282991119,0.15325624728469878,0.052284622034153294,0.0659017157199635,0.17075442007887265,0.29556450372965326,0.4090291136449693,0.5300073463628867,0.6427119840679762,0.7431662707060678,0.797409478181474,0.7960740111489542,0.8108009321098271,0.828946579780053,0.8140550524697305,0.7728158723514613,0.7191555390159912,0.7104851785194137,0.7294035139578865,0.777174252197625,0.7953716723032596,0.7934943299837935,0.783030635447318,0.7812497516307118,0.7636026456516718,0.7627470771800775,0.8048646018216403,0.834783533777748,0.8522210814340148,0.8569511841161104,0.8105743997739121,0.8127357986497046,0.8423436722065909,0.8289765470050048,0.8216514709039449,0.8242923538799269,0.796156892588237,0.7424066507574119,0.7298263523322768,0.8004866496525218,0.8310726684252394,0.7698226499328404,0.6450439418582632,0.5173713802656392,0.39664245480837135,0.28052241107075604,0.15893303077442722,0.06588223018937667,0.07850274406158197,0.17950276302098223,0.3029484125368449,0.4169992890211147,0.5361154019810801,0.6495901855200334,0.7594237559585904,0.8220157391927474,No
0.9587535769190771,1.0,0.9453360938027204,0.839420983590299,0.722055508616438,0.6127203447945955,0.4985744988354557,0.49822424856565606,0.6105103943053272,0.7282023399025319,0.8389356963286918,0.937323541338706,0.9546379578736839,0.930188258631711,0.888286198761449,0.8580411053086321,0.8892321682377604,0.9116849831049483,0.9162002089392853,0.9102404841769234,0.916041490113884,0.9090154429673882,0.9087895176191041,0.9087895176191041,0.9087895176191041,0.908810949827255,0.9132410473798247,0.9159338648457007,0.9088776108734686,0.9087895176191041,0.9087926188457454,0.9109633996845394,0.9223493741438693,0.922312635182279,0.9082878503205105,0.8705890428298626,0.8035595198748031,0.7349484221327494,0.6648079437328525,0.6177849104795787,0.6473626512255346,0.7007443514854259,0.7572206145412603,0.8126471383498832,0.8507474090374298,0.8732895752629224,0.8953019559382946,0.9001816162334095,0.9379129234942791,0.9483542007167718,0.8659723652697746,0.7574724232728021,0.6400760362426108,0.5341800256077476,0.5146758495527033,0.6287996134650133,0.7512554299312892,0.8592877437398583,0.9488328644756892,0.9508986509173165,0.9160247871522631,0.8778809249179584,0.8443531052735436,0.8717388742941807,0.897833450980098,0.9069868409117863,0.9013714198618787,0.8990549931879475,0.8934344912607357,0.8930754284504467,0.8961203346839377,0.8888586005336916,0.8855051930720643,0.8769323189546947,0.8695909911322546,0.8686982350138126,0.880176870506483,0.870652478006464,0.8680266153494864,0.8702550890643042,0.8856632312868591,0.8889375953230028,0.8962298099695265,0.8931044838309061,0.8823629194163964,0.8452586344550004,0.7857344325263975,0.7173274385602975,0.6517823207208009,0.6262719123913092,0.6673739712816049,0.7253838901376306,0.7868498171441995,0.8302986771087597,0.8616143714752966,0.8919800384308978,0.9152929760819775,0.9443567853715824,0.9924981315706329,0.9754017035756153,0.8656980352577777,0.7558456883174438,0.6364534732711076,0.5955935417718154,0.6932142914343653,0.8105496395961609,0.9170061119139135,0.9892227044343316,0.9704734356577811,0.9466283569300775,0.9035983557487683,0.8861487579341447,0.9154730557818893,0.9445813286729763,0.9495428889577329,0.9495605690410867,0.9493819988808072,0.9412402752792839,0.9382759580917206,0.9397491990459321,0.8977063126944991,0.8781994301329763,0.8741015638396794,0.8811044692306367,0.8901636181690114,0.8810578903751249,0.8780020309008147,0.8520865682832355,0.8228764436511979,0.8109389541494143,0.8552677462117075,0.8957468204311101,0.8561110990644112,0.7534936789856665,0.6324080069305968,0.5197649672697002,0.40258312440177324,0.2862815218721835,0.20147376535149952,0.10293531500276609,0.08820047148771382,0.17877844626778305,0.2941137635656843,0.3887738653241777,0.49869868591841016,0.6144957493188232,0.733300970183389,0.8425226252016369,0.8978575395294777,0.8660369872595179,0.8465780560057814,0.8218308929553326,0.7918708741406073,0.7502449470290902,0.6918931869419147,0.6289856679202233,0.5770723089686398,0.5580925658388622,0.5963738582282656,0.6590648585068006,0.7283179989162898,0.793123424792129,0.8233232329135074,0.8339628716623966,0.8310706282504854,0.8274651291153039,0.8216262372147991,0.8131405160985903,0.8135040631052926,0.8190505305994273,0.8190932044907426,0.8190932044907426,0.8190932044907426,0.8191687055253363,0.826481763392974,0.8323596580413737,0.8227136974788039,0.8291942425545877,0.8351079670213846,0.8352974182026314,0.8393338379279536,0.8296577261569453,0.7993654171554261,0.7681852243910403,0.8022197324109017,0.8487723445360369,0.8416971505129607,0.7460993873012725,0.6356562692637353,0.511683974908621,0.390694731487097,0.28084248570580517,0.15994393247531136,0.05288176499690156,0.0,0.07790447503129094,0.19339534173422823,0.3035152207994165,0.42241990945983865,0.5323215189370147,0.6515030813599569,0.7605724880760736,0.8433279103341915,0.8388049611070088,0.822222748098794,0.8009394809936272,0.7672484452005368,0.7208816846471846,0.6613831961086829,0.6070312695393074,0.5630144282673171,0.5631104722164966,0.6141141790352078,0.6838544492194214,0.7582632150449675,0.8180392476785863,0.8503462181950909,0.8597339840824443,0.8596088900628436,0.8504172815424105,0.8456526464174483,0.8467307305980909,0.859293804901307,0.8534150630669202,0.8514159392533269,0.8597347495195704,0.8598642559127252,0.8598642559127252,0.8598642559127252,0.8594719268084776,0.849793362544542,0.8479786004743612,0.8573525230773522,0.8409495604905577,0.8060256067450235,0.7889879367744537,0.8184314619721156,0.8709375463629856,0.8565511437703823,0.7529228472802152,0.6436122623437392,0.5215774334223431,0.40740350033133765,0.29185174386423673,0.17065999854311764,0.07782345418686587,0.07633903597893443,0.17142838303941232,0.285154072652277,0.3946163713377082,0.5141007644384072,0.6234697695679179,0.7449098965421443,0.8498280484705538,0.8692197436694489,No
0.8929257976440788,0.8810347256201814,0.9193780366737716,0.9436076979502985,0.9752966630827569,0.8676870019943355,0.7033697250350128,0.542531042143036,0.43401684821674014,0.5543945555739782,0.7009628108307187,0.8112495573415304,0.8645074808183475,0.9000820758674992,0.8291717276374815,0.7548312521277323,0.7802095372136817,0.8370988181884984,0.8524275464032218,0.8972129214755782,0.8530496473755882,0.8731365733160779,0.853055400262213,0.8484018336534938,0.8802089814193232,0.8648051722828356,0.8261589685590369,0.8522688589053065,0.8131014802748675,0.740069263794763,0.6998786223823723,0.7740449347537846,0.8289050171408681,0.8459882570086394,0.8993082520279199,0.8830784549683601,0.9499003967090234,0.950262309972647,0.8851017881072663,0.9492757581157241,0.9882229387150723,0.8639855828044452,0.6921312900854399,0.5377227957966726,0.5261521543351027,0.6694586099765942,0.8001994896171132,0.8752481231993459,0.851282822431723,0.8032493423950173,0.781609289092664,0.7890367430730665,0.8194720783899268,0.8570688860717963,0.8079816480742563,0.8188377523953045,0.8153711039167817,0.7976407239757597,0.790408969564691,0.7955936454730645,0.8246146900497564,0.7839054632536397,0.7737388219715005,0.6766974337755443,0.6727432581992803,0.7583975035243649,0.7936594208699752,0.8804079645274543,0.9311503870019147,0.897685736048393,0.9195234116723174,0.9439251272468505,1.0,0.9670813322536693,0.8220967261963263,0.6610486639999831,0.5035614211146524,0.538939931381246,0.694970202387295,0.840516192510079,0.8992798432354192,0.8877965529188128,0.8284382457902053,0.8035617501779484,0.7835358601372002,0.8257732343995494,0.86305053071972,0.871557702164016,0.8574854330845358,0.8781928555594813,0.8602546359215646,0.8777675240332128,0.8408577876294956,0.8194720961925048,0.8106220091482514,0.7477979382423197,0.6725792514644775,0.6454632102446629,0.7037783496059724,0.7773969613645582,0.7836630491855638,0.824719443815022,0.8472564253198991,0.8231475980367957,0.8789205615858107,0.8844515191849673,0.7582872086403212,0.6010174693326604,0.4729936872669498,0.5701355474396892,0.7165745243509338,0.7993629153483424,0.806331618862699,0.7997916942752958,0.7853813791212794,0.7062207301640822,0.7316035274455404,0.7504442150604422,0.6799382227128294,0.5843878664770745,0.5262161709100246,0.43000081299987514,0.2554811196149207,0.10402651834189092,0.07985771155541466,0.18708870277039535,0.36361153005518343,0.5022684134135171,0.5869111570965679,0.6551304615806854,0.660713059665262,0.5743282056770878,0.43570367307456914,0.27344777885318994,0.13295678165360592,0.09774274762633217,0.23139425599240848,0.3932639988632882,0.5678819738508154,0.7267085112496465,0.7261280204494795,0.7090399539409082,0.6672510142316468,0.6819446958246065,0.6719417005741231,0.6118057402702601,0.6168412439542252,0.5541246616863549,0.5288949335914146,0.5724148346830735,0.6339041657938709,0.6814817484337441,0.6978878647468783,0.7466952728682585,0.7004551464924234,0.6828307348925451,0.7337557016343146,0.709659242269951,0.7101937208928986,0.7028271415342502,0.6590058736479234,0.665356014838085,0.6756346250899057,0.7548400025291393,0.7495516044606116,0.6389359932379661,0.4816101304551368,0.333559604412355,0.21247633788450448,0.18475324326429243,0.30967542911979873,0.4671151139946419,0.6356722783254729,0.7942541848962401,0.8356476509213699,0.7618709347816734,0.794857207877099,0.7588445094215688,0.7856122738724052,0.7944919699489548,0.6909025204723322,0.6262053363461462,0.5910004541705893,0.5412538268394695,0.5608945476060727,0.6481231281714233,0.6748995376333555,0.689201612755828,0.6448678551725893,0.6511606544957087,0.6759941332150374,0.650169214363606,0.6034100275117087,0.6398497871302196,0.7175073441263748,0.6903151619844525,0.6323721229147647,0.5963579277014164,0.674856048103047,0.6861000430855295,0.7151041023087918,0.7600920957148265,0.6858473835877286,0.5285810228259575,0.3754639886459281,0.20674001899148298,0.059067283485820354,0.028089108051198686,0.16085589120989452,0.32129929358286047,0.494543954776014,0.656061562542797,0.7880621034700663,0.7610556242224664,0.7442590368455893,0.7697616366721016,0.7324532441374814,0.7528891034063259,0.7037281647758054,0.7119577106052155,0.6338471393660043,0.5729666908600066,0.5989272671974999,0.6534523995736121,0.7178767951145693,0.7044986769888002,0.7354548532398892,0.7349406999568275,0.7069643434581083,0.7542167812868001,0.7451001070446415,0.7229748066153237,0.7183270835338478,0.6808734454889223,0.6663191106359929,0.6264656177600099,0.6304876293530781,0.7064663026268825,0.7483723693891333,0.6765845365736567,0.5476547855242835,0.39132510912490126,0.23031926832530525,0.07341479261782036,0.0,0.11182660284224655,0.24986535156906164,0.39741809572983033,0.5639233600292597,0.7204595478627711,0.7698439568234825,0.7313707981137059,0.6885314876125745,0.7677738398217073,0.7147691104224014,No
0.8196543201647251,0.8443002124337242,0.8687611353106146,0.9195966552196342,0.9903862778995494,0.9999999999999998,0.9172721873112193,0.8090965090528208,0.7051584385682623,0.6302137009540745,0.6977556546566486,0.80363261962092,0.8881302725415534,0.8950838311247822,0.8721972108964124,0.8362750006361395,0.8403594145838837,0.8743357560405192,0.8956556900921517,0.9096261691832022,0.9197819352906602,0.9087070951966989,0.896991434095044,0.9073311025783817,0.9367055092351133,0.9390264548919898,0.9160348301277967,0.8586563699474341,0.7788972169456463,0.6782449507124586,0.576681164385999,0.4774926579478669,0.39151958766544914,0.3449799626916097,0.3931325805438093,0.4646240045109338,0.5297180061945912,0.5870353986321237,0.6360967557865662,0.6802797755937486,0.7104231012998679,0.7539066167627093,0.8042109145500083,0.7714857563341193,0.6755426300238814,0.5710932246723341,0.45792316090169316,0.41143759271501756,0.5042291737074234,0.6140452621534285,0.7168236431252992,0.78713792004542,0.7799428430531246,0.7634001907930343,0.7346096476598556,0.7538405107859709,0.7851219872088173,0.8006078587938201,0.7996740369337878,0.787829527085038,0.7830353395096072,0.7849447442373061,0.7981668312270214,0.8014988029170762,0.7913604083705257,0.7547917237069066,0.6973369960474656,0.6281610472091705,0.5604439572169102,0.5719790494465651,0.6289585390543195,0.6915255809910323,0.7414660455548467,0.7744073283952126,0.7992482587410963,0.8282836719989646,0.8850379268192319,0.8914378300264894,0.8176641734376011,0.7067880748801854,0.593091372307889,0.5550868124212684,0.6508024351037596,0.7525131300271217,0.8287577681545002,0.8285144228017389,0.8195764708663329,0.7840076714708479,0.7811514419461425,0.8045456368877788,0.8170110005179099,0.8186011054753488,0.8299276231156398,0.8342094538596962,0.8448920937596436,0.8394867602443303,0.8313958986575953,0.8091780148832977,0.757152878705665,0.6919586793065837,0.6163036233877046,0.54324374036159,0.5464498568226486,0.6076596123458475,0.6706481812479701,0.7166807221273863,0.7498185875564076,0.7767747907572005,0.8182496406581958,0.8870462497986005,0.9475525581163866,0.9101243481958006,0.8048302696427199,0.6990470955178825,0.5901014902962862,0.48314491005640714,0.37027627981440836,0.2663182245337843,0.1661115973534819,0.13777188856567668,0.2236010071441139,0.3005630260986656,0.3525983684714167,0.4613189775936697,0.5657770611067299,0.636939391798111,0.7410630248454366,0.8339013987421973,0.8193845067373176,0.7647408977747363,0.7317511153012932,0.7048189814414327,0.668659541141227,0.6188440959217554,0.553972717822093,0.4914316838654835,0.4724764837972446,0.521395811226298,0.594462615204663,0.6699080616914628,0.7340561096000007,0.7782746201519546,0.7947192611633065,0.8000438629631452,0.7958553691068773,0.7922216565357656,0.780796872282185,0.7794222482843429,0.7686715647404665,0.7384436753213184,0.7224240780664422,0.7535297817758908,0.7677010592583595,0.7183263177800663,0.6196034254111915,0.5076659848632545,0.4013580854009289,0.2913361578824205,0.18397092556200056,0.12162701661233677,0.18220954524539912,0.28550481735435773,0.39554183495368744,0.5012433447830869,0.6160562185025296,0.7215414487784548,0.8103814794975202,0.7989582594151112,0.7653744050022675,0.7403354486624798,0.7099634512218669,0.6662154820300519,0.6060988785341233,0.5433936178540504,0.49072307397088477,0.5054725494945862,0.5717102800238847,0.6460826387629461,0.7100054633928796,0.7505475511944721,0.7613924701729278,0.7489520858241738,0.7353762440644316,0.7393681009457509,0.7478316455589755,0.7499183672250507,0.7549115426661632,0.7332391400562284,0.6985500838486554,0.6901921904928419,0.7203816602538631,0.7204069503217629,0.6418273847506886,0.5384204187830031,0.425859587857339,0.30997124979313484,0.19442364298969417,0.0880909074555365,0.0,0.020947646172752687,0.11876683573798408,0.22893599015850685,0.3353454131200688,0.4453207218216926,0.5575047487131217,0.6607588495562353,0.7238210803503018,0.6835345037835336,0.6523603509573002,0.6154144905471532,0.5685743353423323,0.5137455734456011,0.4496821329223597,0.3819997930049286,0.3151226834821246,0.2815169832524538,0.3224824986876087,0.40121296140899676,0.5045294321621261,0.6044372016697637,0.7009427977538125,0.7884769736524377,0.8602793725245215,0.8904080369181646,0.8886712471777896,0.8568850830750552,0.8260189144234669,0.8445804789634701,0.8533394626726973,0.8671977973491185,0.8562666603703553,0.8389417057275146,0.8102449251412598,0.7842849169042212,0.7918251495632,0.8223506450244866,0.8213439544979495,0.7441409955377722,0.6345261701417673,0.5295770990807236,0.41892736088070603,0.3147834102924876,0.22192064017187074,0.23522681969514392,0.332840126702598,0.44786859364745735,0.5637692764585907,0.6778268466529018,0.7817906675512785,0.8832425593991113,0.8986449120637403,0.8406197872254826,0.8064794721326252,0.7821753956220585,0.7538652580457643,No
0.5392506503213221,0.5693704909917083,0.589872825622586,0.5990079880396739,0.5900948407549294,0.5954730037370095,0.6075606537427345,0.6309689276114643,0.6269723876823883,0.610806279273965,0.5951475885791546,0.5518595076177162,0.4927087284958245,0.4485121454269856,0.4145302497805057,0.42447852251628726,0.4693351886179751,0.5184424203310196,0.5649962617843944,0.5912851309430853,0.6216962068092209,0.6451363418792875,0.6658838726139815,0.705905592420379,0.7873703259254876,0.8784261490683201,0.922279498945815,0.8511900229959366,0.7472128363267987,0.6509813054895695,0.6578043374293219,0.7221439049968232,0.6938870668565,0.656155381889159,0.6475996240447177,0.6111949337159319,0.5519523340529795,0.561168881992999,0.5877383978447943,0.5996166423087796,0.596419371155315,0.6008030585693973,0.6056292643720402,0.6123855779546243,0.637269448766582,0.6514323585688735,0.6489831664682484,0.6657465645755831,0.6379688380350093,0.6076790577121693,0.5565897162614646,0.5138121873444241,0.48030513590458135,0.49072626263896435,0.5302091311913864,0.5640396943965316,0.5821333043775723,0.5947071205528895,0.6083683737292169,0.6184491736555078,0.6344614670365085,0.6900741834364204,0.7800319772604443,0.8500881888296883,0.8123214965050978,0.7152858581488934,0.609471878987514,0.5484695717734711,0.6205552082052592,0.6937986920007986,0.6918357254094709,0.6805033122385971,0.681390736764973,0.6329312968584193,0.639323955158051,0.6828047052317188,0.7049384844324313,0.6755748300392765,0.6432052526967649,0.6245456440825543,0.6090596028439097,0.6189869967245332,0.6580562231935252,0.670248517155422,0.6702714571331003,0.640167943572723,0.6060561638515312,0.5600976768560422,0.5142148949091325,0.4667964183407758,0.48396138149301837,0.5263794626401062,0.5739024493094385,0.6130942373376582,0.6517059427303944,0.6820914948535868,0.6996322788043261,0.7220397343191594,0.7787337946254338,0.8694866854543752,0.9585409910847824,1.0,0.929839471864851,0.8289497309685032,0.7196613042820297,0.6208766647522443,0.6581476822010859,0.7363057347798398,0.7240860676809597,0.7115764083836722,0.6965948136633413,0.6533823794214602,0.6203174987079456,0.6358654984154821,0.6505717000563878,0.6448843108117259,0.6381489271597078,0.6246306473480066,0.6286167004433034,0.6595852761248353,0.6595610571744213,0.6204861583118655,0.5803328471049203,0.5606346209865571,0.5684083463017324,0.5856272743112219,0.5812074883295444,0.561493515140429,0.5490005050946043,0.5306459954494174,0.5548718127012675,0.6126800037286695,0.6434937240250678,0.6374781556930409,0.5555112037705969,0.45024892413267326,0.34879437486522935,0.23848495276652937,0.1545707148476958,0.17575800796709773,0.2721730915124416,0.38638588259587214,0.49448624352590764,0.5993596733858384,0.7134682684257343,0.768292047432718,0.7078458093746929,0.6677976108269932,0.6386003000328477,0.6182546552299848,0.5921199830464592,0.5539683014329082,0.5154219867212038,0.4669132432466223,0.4248514106711907,0.4080976474212692,0.4129802612890545,0.4670281306988122,0.5203574432796692,0.560102518803884,0.595078904897151,0.594493012128039,0.5718783513304824,0.5505357536326914,0.5521231765338213,0.5548615351950872,0.5733777929252084,0.5906684188765285,0.6202962938042296,0.612425426766225,0.5604108054009984,0.5545045175429837,0.6015768726292174,0.6048245197303341,0.6064677556157054,0.5412058321241475,0.4360235837739008,0.33076787981668776,0.22332464570002308,0.11419900091275137,0.037332560798797765,0.06809247197232704,0.17483428033687654,0.276963369197861,0.38846992441380834,0.5040319817947561,0.6136932803806134,0.6230759252010629,0.5777072084356938,0.5396337149216937,0.5320495710020063,0.529801630359092,0.5218665802034037,0.5060059574117783,0.47902475343390405,0.43686722118644683,0.4025134854282193,0.4231866338494217,0.46352492291099656,0.5073187450814527,0.5539380227446751,0.5732122831934641,0.5710946374024375,0.5695378764942025,0.5522199484895496,0.528741890160326,0.5310890628787726,0.5232418861913448,0.5186450117989079,0.497186961274942,0.48660464207524123,0.48037685373646033,0.5293147175107817,0.582138016590231,0.591678512586788,0.61152838445491,0.5613447541395833,0.46002788380968074,0.3544040940277644,0.2477867990426219,0.13764481841695542,0.04003665980379889,0.0,0.07794418818785731,0.19236806115434746,0.29895448651713963,0.40528071079269434,0.5206730072295258,0.6353271953165014,0.6949654510151344,0.6444955793536287,0.605592616475628,0.590918209197306,0.5687307749898518,0.5480442367751217,0.5210790911773846,0.476400819147198,0.4263242767849986,0.3792550408949049,0.3422837431922221,0.3166064782436755,0.3661827007174736,0.4133150135440289,0.4757472775389542,0.526681958648552,0.5510099492978515,0.5514991403082936,0.5538401726651356,0.5376519510678675,0.532006999554171,0.5293295082751284,0.5249182230071208,0.5201904151619678,0.5021195398318259,0.4736780833498542,No
0.8969949179539713,0.8964210477203514,0.896909856459779,0.8865387794353707,0.8720259449086969,0.8371012049737612,0.7768487305455114,0.7220230982471021,0.7331926109508333,0.7780797718062611,0.7933504189215443,0.7824155998415212,0.7850179045351378,0.8686011365465398,0.8982330454398286,0.824025148533214,0.7165329026853713,0.6015790404009276,0.5081765616179847,0.5475945137079721,0.6576866934100027,0.7633358623267861,0.8705399223346992,0.9659571579312454,1.0,0.9867651499768786,0.9672738235494216,0.9237921454083033,0.929973147331236,0.9506608991722749,0.9533492816604618,0.9425349915270571,0.9310798675511034,0.9239591087649699,0.9140520621152972,0.8879043351343019,0.8276484738431269,0.7802049852629658,0.7945470800242354,0.8477079618406691,0.8919221284462742,0.9245334540104029,0.9106876532778934,0.8606757465322485,0.7693102287601259,0.6632649959835026,0.55342752826673,0.4475004002681464,0.342105291193721,0.34238282904658823,0.4478393866869097,0.5538289326849253,0.6658414018685974,0.7706008348661162,0.8722387443812076,0.9307007741785225,0.9225853725617408,0.9169569764807819,0.863379386059798,0.8504693516655153,0.8739826214256299,0.8922409258158455,0.8960333814532686,0.8975439485404597,0.8845849072296623,0.8798423308476622,0.8704893985441768,0.8238791847913891,0.7656512216862255,0.7366195866253484,0.7838912801137212,0.8469750906389231,0.8852808535555772,0.9108715909973908,0.8970332016655833,0.8245636213441494,0.7306479070580574,0.6294949994947319,0.5199099295777099,0.41447930108055964,0.30634255070336036,0.29825455137649004,0.40351249801027333,0.508991178538218,0.621301074761367,0.7219095912678171,0.8142492103372247,0.9095500833194237,0.9465165510686147,0.9402127322871769,0.9202624027836839,0.8689019895608645,0.880663734547078,0.89322062790094,0.9119697223839527,0.9080765222296203,0.8996803654642256,0.8766470633199224,0.8420560793835974,0.77899234577399,0.7359977006821312,0.7730094579818219,0.8319981627508048,0.8604634584477457,0.8784571863393777,0.8861195490540581,0.8299969402831331,0.7336555760343932,0.6211455269409301,0.5118513814401504,0.4040203485831724,0.3321609749019683,0.4054720992124834,0.5118006429462438,0.6232534993328867,0.7292382656915115,0.8371782876018274,0.926249462153852,0.942704626892191,0.9260698624710666,0.8789435136231711,0.8620161659461147,0.8754763188799912,0.8352219210094263,0.7351497348348692,0.625370908563669,0.5192714610906164,0.4096529592488074,0.30228800437190717,0.1903027705221787,0.08705372919093524,0.027793127976916798,0.10135303913226257,0.21294368381690454,0.31871296910463,0.4274583055791077,0.5353374475359314,0.644281019079084,0.7464071724732735,0.8308543317514268,0.8395116340003006,0.8107923943828794,0.7757058162138297,0.7146153737260881,0.6748794740982511,0.699919715918321,0.765323780007086,0.8225239973768379,0.8417136646672225,0.8542606508839996,0.8625292131214262,0.8406745217580163,0.8147510601682053,0.7963353562849944,0.829103386587259,0.8777008616729769,0.863752647543933,0.7954722402297301,0.685613591986221,0.5703401986838337,0.45793609726409246,0.3520651783412121,0.23822554511649274,0.13168365691526773,0.029705094378143837,0.00793073308768677,0.09875374088912392,0.20491828671683399,0.31553366701638796,0.42188951339923064,0.5322554606431691,0.637826392679854,0.747355958373539,0.8355673453108268,0.865011561296714,0.8330605348284372,0.7934188483490052,0.7283080520545329,0.6684309087213509,0.681630023927053,0.7341756059609001,0.7889774855022638,0.8264291411014666,0.8259852040228632,0.8410572616235266,0.8472293421865178,0.8382596970569574,0.8220024776246313,0.7927538614577143,0.7901217585571381,0.8441748306261552,0.8675751737659376,0.8379008079507253,0.744888626555543,0.639412697434274,0.5285638769181304,0.42120489548045037,0.3112905269894206,0.20426457369203654,0.09411610959661143,0.0,0.01203840462186978,0.11440189835804127,0.22952302152570647,0.3437259144362279,0.4493903451991219,0.5608655843039871,0.6657647622319791,0.7677428342756252,0.8427278576870885,0.8634351474384361,0.8391057895867244,0.7893096958954944,0.7384350285099757,0.7135591161158676,0.7521427383812291,0.814021984315072,0.8524720203900471,0.8644282540770116,0.8739963653572382,0.8914555198860379,0.9003244992530974,0.8845349429750895,0.8795198032060592,0.8638551771845036,0.9003333083728484,0.9302654179096441,0.913155192157312,0.8364499095797315,0.7308894177615777,0.6368653243321938,0.538942179875683,0.42865454944539594,0.32222981093591296,0.21683940059669804,0.15063971447464364,0.21433566362148704,0.3213475719394965,0.4317146023509735,0.5387889628937244,0.6485787015442628,0.7390812259777353,0.7273921627734397,0.7221119749210443,0.7487228326066591,0.7265965455431869,0.6814157133465009,0.668876602621598,0.7165184902574286,0.7828692455598456,0.8216288379972121,0.8405431798108114,0.8347453801705473,0.8458159417916877,0.8318415224832885,No
0.9505557439492784,0.9775984702474931,0.9883216076705306,0.9882621415801667,1.0000000000000002,0.9912289693623053,0.9631738433794046,0.9357998600927313,0.9370529345411425,0.9363623804754517,0.9309810362001756,0.9326181265768623,0.9449523352132847,0.9457206906812579,0.9539922005218575,0.9569794628559463,0.9462483177346204,0.9341477601467882,0.8951723437289687,0.8690188028341932,0.886040781863896,0.8965539430838809,0.9021665170796556,0.9078762110015932,0.9090353130503364,0.9267541132366268,0.9353810784993495,0.9470847597427794,0.9433175892012613,0.9056445702337983,0.8444650854208724,0.7703364839305114,0.6901990583230859,0.6073065730194427,0.5229125381669502,0.4707255760498479,0.5372419415382594,0.6172333541727231,0.7067413347607536,0.7915829377304358,0.8736678915975327,0.9483239891831101,0.9802031432717426,0.9926154049736893,0.9949544774230616,0.9926844867275275,0.9610315313724056,0.9394918764323508,0.9605911442271207,0.9793659661391134,0.9887339105739896,0.9839351961884761,0.9877361439150791,0.9890733812533086,0.9789669724192549,0.963970878932453,0.9570168630930536,0.9676381358016657,0.9787776592371131,0.974977456379823,0.9781713662504916,0.9793666364666531,0.9688878578858222,0.935231139210819,0.9131949212505381,0.9009207522963931,0.8930292228208041,0.9054219556220799,0.909604675868289,0.9180103983948988,0.9398682912999592,0.9482412862244363,0.9414055324940966,0.9466417844462394,0.927002076922381,0.8849189241701689,0.818432546714021,0.7395576347354569,0.6505443515360161,0.5704643262978835,0.4806939073978642,0.4077509394938368,0.4438710395422636,0.5342618305014211,0.6254351713920572,0.7067280353444325,0.7939457526193878,0.8769327649304792,0.9391518880837288,0.9430739855167396,0.9431798892165701,0.924710617059999,0.9034153835082195,0.8802150130571393,0.8553651215376419,0.8254184277739893,0.8602455718995328,0.8877640866881562,0.9188559857165497,0.927303146663103,0.9328883985813581,0.9430077769734073,0.9538403945495644,0.9458604813851081,0.9546675007082663,0.9489262911987366,0.9456611444329932,0.9438850724749244,0.9421735538162681,0.9662692028938442,0.9719139037718734,0.9791348511404181,0.9823861841413601,0.9872899448412349,0.9600069569715679,0.9217351573726893,0.9229796616259629,0.9377128054288864,0.9485611709297819,0.9568036299576563,0.9389627807594498,0.908493477903187,0.8830327966335163,0.8831722408870666,0.8819817158752736,0.8704917072116005,0.871460451098266,0.9039430617471786,0.9248381752388537,0.9217275983846667,0.9148402005088567,0.9083381700785715,0.8921630377863747,0.8814812693114515,0.8770222941786201,0.8906255227275055,0.8865108568813789,0.8991332107783598,0.8741718551516946,0.8774631724459516,0.8810101135956312,0.8693643902074102,0.8604988100059277,0.8381670829966905,0.8134861047925874,0.7735236155616081,0.7546866303595137,0.7958757052600494,0.8278805035131891,0.8509322079782857,0.8701515148363959,0.8692199423478202,0.8801703580694589,0.8272435680794212,0.7420685816557147,0.6510011642848481,0.5697733339106985,0.4822523906086704,0.3905336630678653,0.29879099414879096,0.20704838220949773,0.11580694066534214,0.03625793677384692,0.0,0.055723586415668436,0.1371265175985894,0.2228276972484471,0.3118935758529524,0.39209737828248215,0.4825568241097702,0.5678565008563321,0.6509711348815415,0.7382955523024328,0.8145141300646925,0.8656178566637196,0.8806323310550626,0.8812934828246644,0.880929863692115,0.8683348896368253,0.8516101705064674,0.8474750000182609,0.8313643090504221,0.8260982374386729,0.8397529110334354,0.8758371489810044,0.9041066660281618,0.9118855136308601,0.9105798352424597,0.902336364341193,0.9104946326864767,0.9008191587554235,0.9016294318318752,0.905167673573678,0.915563368422111,0.9152853987406269,0.9258882995230795,0.9228284122109021,0.9340087177929808,0.9209583952193132,0.8954509085636413,0.8831219236894292,0.9039698752497818,0.920467783509231,0.9258856504483022,0.9363412083035973,0.9208063150182981,0.8793133923310459,0.7961173388391354,0.7156630120185341,0.6270765874381621,0.5353461227405198,0.4436034538214455,0.3518633679134091,0.2618789813098399,0.18180223604024914,0.09740395796262424,0.06583202122007603,0.1171545167464596,0.20094046733808613,0.2889458130648941,0.36976343163792613,0.46069577248882143,0.5489680395639531,0.6296296068571283,0.7151206066956768,0.7919210968432158,0.8622669310082467,0.889423915690539,0.8755891935249396,0.8773064367993542,0.8677837753828472,0.8513752659625238,0.8401617951767102,0.8360004394265259,0.8223636533683909,0.8236951722006645,0.8085237953786899,0.8205149627783561,0.8638610172102379,0.8875342771822561,0.8964527704702518,0.896497265371418,0.8884674720156032,0.8759513871652531,0.8801259455991037,0.8809011724276805,0.8713971390236421,0.8752715527150989,0.9024625009558804,0.9309018175762247,0.9234133513696745,0.9321964382918095,0.9258469979550938,0.9120361026894022,0.8854496958846976,No
0.6647495922008098,0.7144551273949453,0.7343181109666803,0.7419684567520912,0.784385668468258,0.8143542773784569,0.7680857973266875,0.7995480441896969,0.7619935916225185,0.6195808238472953,0.5339778750346946,0.7089360092089265,0.8800983774601638,0.8991262638983271,0.7884395635051531,0.7101470327261135,0.7042314585167428,0.6633083933455621,0.5771452960972523,0.6104100046385339,0.6928946685869377,0.6912625101354344,0.7258339082168472,0.707440858549953,0.7034738991047211,0.6833680723997979,0.6908427579512431,0.6907574035640298,0.6756538968865744,0.6951702186160151,0.6942462037263866,0.7309432893775121,0.7451243716851499,0.7712109118123545,0.8011250643162784,0.7877898802728609,0.7494205498886366,0.6771840639092543,0.5880658620983521,0.453713995337913,0.34296542720865997,0.28423259102543597,0.3896025179890392,0.5061584335051208,0.6028387305024197,0.678790756207869,0.7311953002059299,0.7663551665719837,0.7848406276877107,0.76825718465025,0.7615606546223566,0.7398421464985114,0.7509027997002402,0.8648992637747996,0.9110686693868226,0.783047903003598,0.647848539902597,0.7306409561509932,0.9094230446231633,0.952331540000726,0.8126725533817716,0.7445432225058122,0.6921573585189158,0.6872222076097598,0.6331081192499344,0.593768737161307,0.6493049088654939,0.6887356960351978,0.7040711587829751,0.6792505095162307,0.6652333727104551,0.6733466443557337,0.675450957876305,0.6847291503736006,0.6902457896400733,0.7022207509857834,0.6966960561420574,0.7495420778951676,0.7627931995226591,0.7353762870100118,0.7029672144447812,0.648748261436495,0.5472631424666403,0.43419618923588565,0.2935066026455919,0.2142556486831877,0.30043162851422966,0.4201952936011786,0.5277628450694571,0.5971487433050493,0.6612568433981094,0.7016674252587114,0.7508652751976843,0.7396551918600087,0.7068367810539176,0.7296793420425276,0.7898572879469556,0.8841279205993713,0.8223929674257633,0.6678004080290494,0.6896871894910337,0.8654833166312219,1.0,0.9433575774143845,0.8807637176931102,0.8467166520002696,0.8239572089884799,0.789709662389984,0.7359721451984136,0.773618092106676,0.7539330423045545,0.7637929266794545,0.7568783650333044,0.7305943089598586,0.73163667277458,0.7408402385033774,0.7286181398337579,0.7286950703760322,0.7291835967115494,0.7405414599409896,0.7099116380819481,0.6890994997817446,0.6883281083547157,0.6804620578281018,0.6194101294841561,0.520863958458949,0.5387571875190869,0.5538207374310904,0.5507246160720554,0.5685724536165147,0.5576897480423231,0.5464641494660665,0.5534706773747793,0.5961187998294282,0.598599936754912,0.5864628941488208,0.6150042272841096,0.626513277554694,0.6123944155802716,0.6265865593893531,0.5670765780606031,0.5517319273671308,0.6430855628743224,0.6649344088433198,0.6894498435276786,0.7199798265529855,0.6564506148819875,0.4812161916713871,0.2755099687576248,0.1123668857441924,0.08985662596062127,0.24245940025000845,0.4247406743334965,0.6011441214736735,0.6171497126342569,0.5876956081344442,0.5523860981187214,0.5555076917107584,0.5482093739343972,0.5840446551829883,0.5813185168825274,0.5159478044999783,0.4597689323378784,0.38369980932835634,0.2796249925529759,0.15658836632165052,0.038778166399126235,0.070387323219407,0.14034739514873795,0.2856534280285894,0.4232796639648386,0.509375516249527,0.5735569311331314,0.6073224292827133,0.6048395085061742,0.5591684819763847,0.554824547444837,0.5465437429375557,0.5549631874847387,0.5321428620964745,0.5372826650145441,0.5491650893822237,0.534030120388449,0.5531194062543792,0.5657459561224085,0.5313957590178262,0.4800556451126141,0.4560992093967018,0.4466394421693698,0.5290414023660119,0.5172337758615262,0.4767364885564751,0.5804666344198246,0.5909594049350719,0.4531952401162771,0.24956610272337443,0.07981233724428094,0.04418398613957919,0.18085377600285746,0.36913008373953016,0.5585176748718021,0.6170513429868354,0.5731852775244706,0.5879700042745419,0.61348758715088,0.6444200384081293,0.6265125171884174,0.5698898518183819,0.503269879633514,0.40972907358512956,0.30532867943612985,0.17943613906034894,0.11237624588608064,0.15666077508763454,0.2676113938073046,0.39988474543708197,0.5223156728577827,0.579300994494778,0.6383856971914792,0.6305977865889547,0.625170980813806,0.5987386764197211,0.5656829196685269,0.5475968738781418,0.5588428830054664,0.5105705604155233,0.529047189873971,0.5623293896153347,0.5462090304812781,0.567165312837826,0.5682871257680553,0.5374160711009903,0.5152613728117696,0.46770028368381666,0.43502228570314205,0.4733198098437157,0.5526857037597983,0.5841839684377454,0.5796721720769185,0.6023804104030059,0.5138394061993834,0.32668737807844206,0.13784032984715022,0.0,0.07259421860501458,0.26521278630607625,0.4567681130127381,0.6065256365012566,0.6026871001865741,0.5871234746685188,0.6299887750068356,0.5998258023718837,0.580095182829087,0.5771946720573871,0.5326053441572665,No
0.9744973441781983,0.8950590224339208,0.8489306521851185,0.8544448586603273,0.898526724019785,0.9376052432929733,0.9403879274392599,0.9419769049132634,0.9424021639859261,0.9447773662693875,0.9470044573007805,0.9598809948369658,0.9538577044352561,0.9491136259191006,0.9457705087260031,0.9465612489194482,0.8917118016585315,0.8255646016072129,0.7481323638922555,0.6949771211765321,0.7181504307161486,0.7689811573195482,0.8348309662004896,0.8756482634841798,0.8937723775377995,0.8917294192593581,0.8512597526896046,0.756588826121027,0.6433751468667133,0.525680565120485,0.48355463798623477,0.5947361150126094,0.7165368023880845,0.8344309387163564,0.9237028165239325,0.9242388895077585,0.901732712390773,0.8430431479946385,0.7977196942456448,0.8226633092309164,0.8566504147102028,0.8836177629814053,0.8981173249158094,0.8719477806948301,0.8941929680323226,0.8853246224564604,0.8846568233757446,0.9035303657439857,0.8904419846561535,0.9419705586203722,0.9350834392555138,0.9120133006984643,0.9016978118902292,0.8584252516134994,0.7951414023293726,0.714542150149458,0.6653369559276125,0.7063983089244923,0.770272184195151,0.832563631701988,0.8738383499695295,0.8896191611450912,0.920132520496455,0.9111569146380596,0.8774987104180578,0.7920543588875812,0.6697496786474653,0.5616151276273973,0.585843088775436,0.6938458584186047,0.8116393443174297,0.9206470245627245,0.9356995373213262,0.9183994806070488,0.862927222220943,0.8380363585049735,0.8684909281333475,0.8965092018309084,0.9214787152921291,0.9347997260734253,0.9212841572739987,0.9238615151065273,0.9245522501392798,0.9202603357730679,0.9293771930742794,0.9366856524162284,0.9334771044357537,0.9130355602463984,0.880992727761734,0.8563144708763306,0.7772306858885836,0.7104536084900608,0.7409504053736624,0.8091647347613016,0.8650174092730278,0.9069250766935433,0.9305377351665358,0.9539966562307427,0.9475955614708407,0.9068538063745786,0.8240001292551802,0.7302880554283786,0.6094143218222645,0.4958350373407474,0.4825460294596646,0.6052271082236866,0.7281334439038032,0.8500601748451668,0.9579498847208407,1.0,0.9684780355214033,0.9050996003754621,0.9073652312090039,0.8961425914711492,0.9327474145156867,0.9611787233818219,0.9730594341928787,0.9490827437125215,0.9459440251981408,0.9457272703511701,0.9684982777392341,0.9122756803422538,0.8713897781788824,0.8723013106145943,0.8739522007206926,0.8721094530114017,0.8623900739288848,0.8509297028387239,0.8070635631164,0.7738449490630064,0.8064165955921712,0.8072761181903045,0.8750531268203661,0.9190049375431202,0.8569061437776848,0.7346664676586108,0.6159259922253288,0.48686298836453457,0.35414043657019967,0.2220999398860597,0.10277194222057373,0.014541579426180729,0.06302697355166531,0.1873412075059715,0.3066872795742479,0.43679128975136194,0.5553834798496831,0.6773122028639555,0.7750145114312739,0.8495155195404513,0.8659073287003083,0.8385115813717428,0.7978856795638207,0.7332893868700876,0.6648375147020613,0.6052000494919305,0.62939557549621,0.6952761023183993,0.7657165037037661,0.8169572781541925,0.8242299207042181,0.8344000075156752,0.8395447266204492,0.84244652154731,0.8359549194836662,0.8243145861807601,0.8241905092861566,0.832770552094463,0.8292850017118325,0.8224392672725434,0.7723032825144931,0.7309143047354025,0.758933133990729,0.7920603794350178,0.8365169291705299,0.8291187727388802,0.7172278051771612,0.596404739267979,0.4707306036397143,0.3506898358861972,0.2358069753568004,0.1932658340889155,0.284695647427196,0.40514360954962303,0.5257815668926606,0.6466876523549843,0.7573601859900876,0.8229743152669888,0.8201638089598067,0.8080941502592682,0.7637356643800048,0.7171015542619319,0.64868338139217,0.5888539994329345,0.5846628616591447,0.6549521031950762,0.7254799580876221,0.7834388717457417,0.8102269221159579,0.8105181609936718,0.8225035533724703,0.8200271071769172,0.8179946181099451,0.7981370484807067,0.8035467174361659,0.7983552328772907,0.7992204981997353,0.7998538681599321,0.7954278627881126,0.7486194119290772,0.7051459429115896,0.7240281897524516,0.7777434790300428,0.8199589284339983,0.7912686405899954,0.6690430031473533,0.5500089020831775,0.44030022329521623,0.3405304991427598,0.2149505331031336,0.09693362460371313,0.0,0.03605474921116292,0.14944836902880487,0.2759001267274095,0.4085736761109131,0.5392187306214722,0.6541955326768321,0.7589004935763044,0.8171788774442139,0.8232104258508004,0.8015155870235602,0.7619126752347132,0.7012427911009449,0.6421053175390825,0.5917420602227037,0.5657702072456474,0.6131224173127752,0.6982482145149578,0.7784174266485371,0.8336770381700753,0.8525888195255025,0.8776304825375703,0.8668725348121891,0.8439995874060635,0.8505970460014884,0.8367353119806249,0.8398062225065761,0.8470192131384096,0.8506068389308652,0.8438303275300214,0.8024555336945922,0.7688033082745016,0.7852827597678389,0.8253999482876102,No
0.9978284973269423,0.9986954697278475,0.9836489585594747,0.9386795596909349,0.8754527085547424,0.8059450936288536,0.7333975817928425,0.6620884718634551,0.5857944610654687,0.5086655327211435,0.4429313560363809,0.44941267697582876,0.5241581604700719,0.602545886400372,0.680936765055992,0.7592041432440192,0.8327607098035937,0.9056271921209232,0.9702444524681487,0.9870278442276835,0.9776495708938872,0.9478278114615556,0.9170273736371731,0.9303155527291839,0.958754850324039,0.96796794013309,0.968792774744971,0.9723279900609613,0.9662143287024464,0.9653299744650731,0.9590569831476873,0.9583784435605097,0.9626391314794137,0.959437324455425,0.961734043354361,0.9569580109778887,0.9733332342706079,0.9999999999999999,0.9916394828902367,0.9748754036439621,0.9782792086249196,0.9817061293379624,0.9790243868774927,0.9845533112652632,0.9641100916066977,0.9191932123664875,0.859342180397667,0.7897716495055372,0.7190461619320992,0.6427533448667156,0.5714105248324911,0.4958197451023819,0.4626376221291856,0.5263156773539476,0.6038237769617637,0.6751537513789588,0.7517245951163122,0.8300772658873324,0.9049050714979693,0.9584848170690284,0.9727191222722317,0.952522422981437,0.9119402794648698,0.9095570057982919,0.9339442243196733,0.9509425279767886,0.9521775396271569,0.9507914301221881,0.9512294943875629,0.9447008482511211,0.9451181989582315,0.9505753045815469,0.9541114113635817,0.9501763606178625,0.9438178295672325,0.9590773034747616,0.9784967694525958,0.9650984995062998,0.9521699187621208,0.9562322633135097,0.9645338913478213,0.9704111998453581,0.9728355565919996,0.9501375781661517,0.9049004981462273,0.8419656001484231,0.7701781022770414,0.6990988509373585,0.6220881039143257,0.5486820907050097,0.48475028393731356,0.5014224698693851,0.5753618099166583,0.6537282804740648,0.7321191591296853,0.8103655002920026,0.8835675250239258,0.9502631189602649,0.9825197693411026,0.9719247273308812,0.9382402933774149,0.9155665366411146,0.940327835051581,0.9735081399354754,0.9955190840268183,0.9969094527614045,0.9952966302388416,0.9879633082202749,0.9817241552868604,0.9808137061856342,0.9851860171209966,0.9834173691381304,0.9725171481704703,0.9478344107268456,0.9387157988315079,0.9506284715609464,0.9561020244229509,0.9484982819791749,0.9504930394137333,0.9580050428233403,0.9625982418153641,0.9652904312302318,0.9601536715143798,0.9575844577956755,0.9259660357149598,0.8953512363318904,0.8684344529666982,0.8925078992832786,0.9318151674746914,0.9420671907747326,0.8910953171446637,0.8209052263578184,0.7437871621509292,0.6693992081996091,0.5964591615127052,0.5182621590251838,0.44146151531050337,0.37210969434758157,0.30939940614963357,0.24657079426467876,0.17939122674668684,0.10600091551368984,0.02955961727171652,0.0,0.05548181105689398,0.1305151445557352,0.2071746216262621,0.27844005230628976,0.3559584053665702,0.4342935912499374,0.5089527249131313,0.5816568927042548,0.6589574322627193,0.7302104740301659,0.8027074659715506,0.8703992427473327,0.9235418972248189,0.9408961519673368,0.9392464763789005,0.9318245698730986,0.9240115394567349,0.9219667204367415,0.9382519371028982,0.9372423365570589,0.9173613376871422,0.9171152414744169,0.9197979228790975,0.9230079324824892,0.9125611005082647,0.9081957334070078,0.9126381736928856,0.9121436499164431,0.9171543680577535,0.9194336612565014,0.9107227866690625,0.889918240297571,0.8583187468022594,0.8696794747707627,0.9134298982041557,0.9373039629106935,0.9032057915327377,0.8328017917165628,0.7612080356440211,0.6854939341522174,0.6092596904719029,0.5377817505811423,0.4600355507618218,0.38265469895313753,0.3114205960569094,0.23457087812913135,0.16100239151169338,0.15017648537205452,0.21471194780259473,0.28686433858584326,0.36189500309965517,0.4401606267593673,0.5142069912040373,0.5874710254615826,0.6656141624701294,0.7393724543991137,0.8090979833280377,0.8750909733300788,0.9276334469706827,0.9508452566431634,0.9463525527639006,0.9462514613691119,0.9386335637928246,0.9421807109507804,0.9558192095749652,0.96480437932998,0.9372364500392184,0.9226169559208971,0.9329194721077053,0.927655845290788,0.930231837526129,0.9229843395681697,0.9250299478749585,0.9299394048765698,0.9344650239472582,0.9352647909057866,0.9372751627239896,0.9353210914423794,0.9154868697964488,0.8857449818913218,0.8688142615389208,0.9030083766597293,0.9353360071162261,0.926782367972817,0.8641676703979501,0.7889635249278001,0.717168053500283,0.6395052854696551,0.5668360916140011,0.49213742445283815,0.41406979267497557,0.34161650086106043,0.2666793229973067,0.1884084268638453,0.11441815932520805,0.05975900633555109,0.09010002199872602,0.16390816957374066,0.235215010098484,0.3118171355074083,0.3886939691429251,0.45992524472207774,0.5372694008873252,0.613236876933526,0.6848470108685875,0.7582257629514734,0.8172683916807376,0.8822666206925304,0.9410258505812178,0.9680914680709406,0.9717942372951353,No
0.922024146094633,0.858765061549535,0.7625509765338567,0.6568445613611547,0.574254723262331,0.6446763902664638,0.7509216750909642,0.8620677637171272,0.9383733076933665,0.9628734119449633,0.9567427050789614,0.9301333340785904,0.8721221731781841,0.8674395730631381,0.9019433726273707,0.9089215917777709,0.9038946593139008,0.8996955327909528,0.9130115754832742,0.9210556435150845,0.9145455142836798,0.9147072358563324,0.9121537717239205,0.8852819585843428,0.8732403843767871,0.9067001289035266,0.9256019622716833,0.957048100452196,0.9726143541514964,0.9908855847810469,0.9793384227233541,0.9912254623812398,0.981062992849598,0.9566717909919629,0.8721340247863723,0.7656941525123127,0.6771649874362569,0.730061512913202,0.840398934872957,0.9334332980235314,0.9689135062155041,0.9761967847267716,0.9449431384310556,0.8946570706640873,0.8766922274592239,0.9237854432222494,0.9668225837143469,0.9598438913452207,0.9569787501683804,0.941451007051407,0.9523215653343591,0.9571592477310265,0.950054387851526,0.9453280983842023,0.9427071595982588,0.9119467821235914,0.9117916081079549,0.9403730540578945,0.9690872724344624,0.9911591495075223,0.9757074127892176,0.9868828098685156,0.9912416517209015,0.9753046038255755,0.93681594794916,0.8527884958588239,0.7640585964538447,0.8143559818142927,0.9172052966769872,0.9791135501367163,0.9777342908892763,0.9624608108541757,0.9357506263935294,0.8827135037932747,0.8693770609139861,0.9131865090413018,0.9368894243494867,0.9333376432034106,0.9392969423919177,0.947081081536284,0.9434956873196725,0.9543735061684784,0.9471905484849554,0.9340115201808261,0.9277276879072802,0.9317119016416175,0.8947617004693187,0.9183514003374758,0.944759745079194,0.9722739493013102,0.9836768166481746,0.9866711872765406,0.9845104441856847,0.9999999999999998,0.9916173346424608,0.9326977067500752,0.8609265697850923,0.7698946429118345,0.6651380987071207,0.5521772961139024,0.5127621923833041,0.6157344391971737,0.724754491784916,0.8338598146292677,0.9321176317402624,0.9728450487669533,0.9602638555539198,0.9335239009247374,0.8873730238553723,0.8772548636269428,0.9151515467965952,0.9360331166303772,0.9001312748190402,0.8618163485515675,0.8268337504579286,0.7873751526920663,0.7930442932810047,0.8600553964061286,0.8958352703256411,0.8992438136806304,0.8273172149985693,0.7151966528376195,0.5955980261722511,0.47619380218574947,0.36602292194619523,0.2536899912345547,0.13516333022737537,0.03173511281474828,0.0,0.08643956561372979,0.2008052620195946,0.31990344024500383,0.4285298977475802,0.542521871355824,0.6553772252999879,0.7594388446503444,0.8488471682564429,0.9104964624800285,0.9226128291085713,0.9175672161389301,0.9180025731452679,0.9120743629890049,0.8842906539525026,0.8563627846840325,0.8387420774282603,0.8319394154300592,0.86003265183426,0.861279395230768,0.8820689833811806,0.8819978997688367,0.8817448151795564,0.8783620216772723,0.8605362909010463,0.871527703665995,0.8616130563319022,0.8212539310266196,0.7829422225447711,0.7574683372247446,0.8226726143060674,0.8843018195725778,0.9042838423188335,0.8722448016778264,0.7734329087061529,0.6626603712440129,0.5470019591200483,0.4396697436148307,0.32166663901386783,0.21328613195994772,0.10716864134935356,0.09888278450881027,0.20327592060204247,0.3113629567256522,0.42561730438187495,0.5294166697509033,0.6279603597814625,0.7344752274048492,0.8461030699120216,0.8969563080290499,0.9174267633220363,0.9147136507349234,0.914904273384124,0.9044928266347398,0.8918567371493664,0.8637506202565322,0.8441868977418967,0.8367946520974587,0.863638125568732,0.8808823045917189,0.8806943616528791,0.8895437650082678,0.8877515042058246,0.877363046013709,0.8889433011096328,0.8809467684815548,0.8473148475376713,0.8127691055525406,0.8336874762502415,0.882874278323188,0.9065928259266374,0.8800707464226114,0.788099472768373,0.6750004630502386,0.5658581672200975,0.45248709679363563,0.3369920606875956,0.22988699136705004,0.1373833530316071,0.1646714819662567,0.27839987431596547,0.39807971577344925,0.5176210007591571,0.629356234943715,0.7387937776395714,0.8411131626103534,0.8995459965830432,0.9180139140037189,0.918522325698526,0.908832866673108,0.8865817306121826,0.8738459020195302,0.8495772261024255,0.8202195679543183,0.8003628858698428,0.82682631677061,0.8446994520923601,0.8354148460886621,0.8521483200309119,0.8471869416665305,0.8326945954410501,0.8447210951083355,0.8407547873499805,0.8372662365339558,0.8141505979258576,0.7904607537343347,0.8202644740660185,0.8775481016674325,0.8908143062619158,0.894105676050249,0.8295907577380326,0.7209304267867178,0.6106737705877034,0.49876755650119775,0.38388246063252507,0.27599508099653813,0.15793734974234774,0.05471468470264362,0.019002937810123077,0.0989940188906393,0.21240582357079796,0.33196074897102545,0.44530347046169916,0.5545552917510153,0.6736718615015109,0.7819993518771204,0.8522061951906383,No
0.967121106757109,0.9411441679994064,0.9008093256802567,0.8578733954030122,0.8469085620698671,0.8800578684456037,0.9110742785043504,0.9293857801344791,0.9531830812455997,0.9610352548966934,0.9759714354925508,0.9365081383020764,0.8583406244323739,0.7866541887719152,0.7103611567823807,0.6327108841694233,0.6289767047584149,0.705947598864104,0.7966420709849158,0.888502104356951,0.9711182848023627,1.0,0.9724109819360272,0.9714465640927745,0.9380299769279472,0.9447610788898233,0.9550196085217881,0.962121344840718,0.943848864349119,0.9295059944485478,0.9303544782447615,0.952036121578471,0.9671810675871435,0.9641066290818059,0.9561995772166938,0.9294113256319063,0.8924707659288376,0.8484568601754763,0.8338959906593892,0.8676803971824096,0.9023688455592467,0.9220613331915115,0.937704129223623,0.9479242818952831,0.9577867109303257,0.913168483627365,0.8367505284087917,0.7488562843083877,0.6797290663409565,0.714449575754174,0.8042593781041332,0.8871247180379109,0.9625570405786452,0.9761034524520595,0.9529980670138429,0.9236236300449456,0.9220560423662354,0.9335539225092462,0.9324630498587454,0.9324257931229116,0.9258655986950148,0.9177213356838942,0.9106793737973242,0.9137192288484548,0.9299516552199787,0.9560668630305744,0.9606303904800306,0.9457266464275373,0.9116305109833585,0.8752559079909976,0.8468728507215433,0.8616483967249908,0.8968947220194234,0.9278662859526161,0.9465943271455881,0.9550055278728502,0.9676827846371925,0.9267518615495924,0.8517456383554363,0.7671367665718243,0.6844460331027447,0.5934515096483395,0.5015363910530286,0.42685334214037396,0.4668439618693918,0.5539465962696504,0.6376800470613042,0.7292088099695113,0.8211972169079327,0.911344267988901,0.9833337716300301,0.9963110963857207,0.9704980950364899,0.9460736846450555,0.91825741052932,0.9327978854777443,0.9487845275920379,0.9435914584073903,0.9435143679535489,0.9349289995731977,0.9260386151951288,0.929000586366278,0.9471821078901841,0.9661515660122939,0.9698480562000751,0.9671653265094022,0.9350591231229841,0.8893071151809919,0.8479042815025997,0.8368521928028101,0.872226261981571,0.9042071108630045,0.9338775968592588,0.9536702361258684,0.9644987872978379,0.9617745541448248,0.9311878002289844,0.90934392282391,0.8928745064140302,0.8742200992369478,0.8493859214559838,0.809751336526273,0.7812842812999623,0.7875540975445121,0.8292087195778208,0.8713775413842217,0.8927826251909408,0.9091268331759479,0.907154898284952,0.8982492763416596,0.884002063289838,0.88411884703069,0.8905156284834677,0.8879988172873947,0.8933569731399875,0.8937574201412914,0.8743267201170113,0.8677601227013398,0.8973453774964764,0.9164366460760793,0.8701966234265037,0.7859387152924022,0.7007267321267423,0.609014735303719,0.5223157347362541,0.43737201238081336,0.345608579900057,0.2537017629437368,0.1671295023698416,0.08210312603732572,0.0,0.006507696989676903,0.08356690054527571,0.17076026491159446,0.2609838381692029,0.343501833152033,0.4340316965795816,0.5259207432970607,0.6123431731179452,0.6975414048551378,0.787920973973171,0.8677762966766971,0.9093908114692977,0.90051189990186,0.8827763141390994,0.8548644638409679,0.8227658442978996,0.8014031690732741,0.8026753031384284,0.8389273370064139,0.8776216949040498,0.9042415515100388,0.9005664521920407,0.8901670442936709,0.8688608291265014,0.858582331160092,0.8676161561539142,0.8757912819372358,0.8852073249294583,0.883668083248168,0.8845027161473507,0.8633603624461172,0.8650790347694386,0.8937399910782058,0.9116055878847082,0.8591074428041261,0.7771788130003834,0.6864205095003655,0.6024114642641183,0.5146640940396825,0.42278131293924126,0.3356672755693322,0.25115168023005907,0.16616391107244866,0.1474756760197089,0.21871711253975534,0.305193431308894,0.39071478086483835,0.4767244723582347,0.5675144469424676,0.650165302938515,0.7397220001841474,0.8246204937158521,0.8921684593870411,0.8956483100618975,0.8816316990618542,0.8653694512521222,0.8347500697108003,0.7997893217294829,0.7779373480390399,0.7981666733122699,0.8403058912516821,0.8776988637918848,0.9003787584026357,0.9115236353309903,0.906364118119714,0.88924348584953,0.8762911420925441,0.8897475195887918,0.8997320934244,0.8945985499690923,0.9045074366666292,0.8874012073242237,0.8951554949944374,0.9130788369005658,0.8790035675723948,0.8016420107648399,0.7135469284797886,0.622989792631863,0.5404611207815868,0.450251070727516,0.3595404033357894,0.27696363300948357,0.18699431052495297,0.10823354462083223,0.12397593297145026,0.20267911042297992,0.2936364092380648,0.3791029009163971,0.4652530225142886,0.5569902228580466,0.6427278841098558,0.7283730891141402,0.8130513474174594,0.88731324999346,0.9131033843540397,0.8951090787489568,0.8807961793844914,0.855330923730063,0.8156521630051339,0.7790766475836781,0.7928357252025691,0.8310982801189293,0.8757557346123765,0.9116107499431387,No
