0,1,2,3,4,5,6,7,8,9,10,11,12,13,14,15,16,17,18,19,20,21,22,23,24,25,26,27,28,29,30,31,32,33,34,35,36,37,38,39,40,41,42,43,44,45,46,47,48,49,50,51,52,53,54,55,56,57,58,59,60,61,62,63,64,65,66,67,68,69,70,71,72,73,74,75,76,77,78,79,80,81,82,83,84,85,86,87,88,89,90,91,92,93,94,95,96,97,98,99,100,101,102,103,104,105,106,107,108,109,110,111,112,113,114,115,116,117,118,119,120,121,122,123,124,125,126,127,128,129,130,131,132,133,134,135,136,137,138,139,140,141,142,143,144,145,146,147,148,149,150,151,152,153,154,155,156,157,158,159,160,161,162,163,164,165,166,167,168,169,170,171,172,173,174,175,176,177,178,179,180,181,182,183,184,185,186,187,188,189,190,191,192,193,194,195,196,197,198,199,200,201,202,203,204,205,206,207,208,209,210,211,212,213,214,215,216,217,218,219,220,221,222,223,224,225,226,227,228,229,230,231,232,233,234,235,236,237,238,239,240,241,242,243,244,245,246,247,248,249,250,251,252,253,254,Target
0.8556554520261233,0.869308695685735,0.9139459980896238,0.9999999999999996,0.9460061522624255,0.8057841127122547,0.6606177206333039,0.5348204920706157,0.40893001627092573,0.4662084035858145,0.6109535989170554,0.7590878282081026,0.8824797213547626,0.9190891015523781,0.8716933402214155,0.7993452925201727,0.6954715642008296,0.6321138342661401,0.7138326708688103,0.8028728811793915,0.8574232175161707,0.8473618362157707,0.8328667345206346,0.8107853960772382,0.7845634329862432,0.7911032203603243,0.8061899728811635,0.8305513385437493,0.8072259385603897,0.7450699999951587,0.655177575399279,0.5644837227047539,0.4898183878409941,0.502729052427938,0.5843911691619579,0.6752795013802411,0.7603604304016267,0.818735783467945,0.8575335029314868,0.8914862583482335,0.9004599036129801,0.9456996078877471,0.970246764349695,0.854828160543581,0.6974182320165916,0.5376926636230905,0.41086574407463194,0.4600439757978698,0.6045209595213739,0.7526012327361014,0.866735976153556,0.8783980232930308,0.8335028768316457,0.7395054490403874,0.6185761585791991,0.5563392254800958,0.6413565193820197,0.7213247283469904,0.7670443251504677,0.7944793927001697,0.7766638045566228,0.743245703021278,0.7341013408717743,0.7603243599950429,0.7952860569181142,0.770974555629683,0.6923692120800782,0.5968329822396199,0.5055819109797848,0.4377466444380982,0.4660363198488793,0.5512619142094719,0.6573758076963458,0.7493269461134546,0.8141322098837369,0.8324304004797458,0.84944033426155,0.8694532105112991,0.9130509290025866,0.9114828311048542,0.7804694679060074,0.6245688686865352,0.4895230545204452,0.5035013623932003,0.6476489439349127,0.7852769275889848,0.8724153441196276,0.8724985179404627,0.8099070158064356,0.7108713967882299,0.6132141788750856,0.6440466237407652,0.7504801566791306,0.8270760176504623,0.8433097361197164,0.8267435315879776,0.8154564515609124,0.7851633656156736,0.7657842943001674,0.7732686700069524,0.7801103402928415,0.7601188431672918,0.6909099098783256,0.601498516744245,0.5014530860310953,0.4182720977102239,0.43561065430211343,0.5238616462389833,0.6162588104452427,0.6891085639597585,0.7388805355337791,0.7815026996540544,0.8177624411847462,0.8361374460129567,0.9056008220068077,0.877579425372975,0.7414404124547884,0.602146483670889,0.6056309040169796,0.7379995593443032,0.7280520445244871,0.5935557161982516,0.44628352626233614,0.2946868022565763,0.15056072982325386,0.016002617408799935,0.0,0.1091453646439855,0.24282504728532128,0.3850487881728184,0.5138846401151298,0.6549725947208804,0.7384037839628816,0.7422915103519903,0.7277102815242484,0.6899536285709726,0.6442064040985302,0.5747008397636892,0.48973367842851,0.399972665667256,0.326034742682781,0.3409497486039328,0.42774934940469844,0.5239953478252284,0.6149400129747278,0.6854553487745019,0.6986703698402401,0.686792264319509,0.6909040855379915,0.7094672628206187,0.7401026819147907,0.7545830136965437,0.7746213362729231,0.7534898789094,0.6764838977573979,0.565818055967203,0.5109541141365517,0.5619122910296976,0.6783205068727227,0.7656474982226777,0.7663193310750609,0.6485436365177755,0.4938129398821065,0.34657952129344194,0.1995645091626712,0.08465250534318436,0.09589526491220557,0.22611582122920382,0.38658732952045405,0.5374967898864202,0.6903107359622247,0.7840746594555319,0.7776883430868518,0.7552638289418132,0.7537726271906835,0.7099281220795906,0.628985051004582,0.5215895517593365,0.42979260968004507,0.3638326248857089,0.35167616506909116,0.423642214157526,0.5161559734977912,0.6142836959264804,0.6972525142934582,0.7230678395745627,0.6859132145676439,0.6522290823532808,0.665433769517914,0.6875689089153627,0.7150783689900946,0.694771658400688,0.6537769997914191,0.5614891069219881,0.4749807796827237,0.4480832582717422,0.5495656877311625,0.6776569747436678,0.768013221641767,0.7859521553328412,0.6937768461927152,0.5460437267309288,0.3964219039921879,0.24452777594497066,0.10280671644437378,0.018745046485905803,0.09283645861690903,0.2498985856529834,0.414160132958175,0.5784271740045064,0.7358190332016643,0.8047298479321627,0.8067022606309986,0.8052611544488291,0.7864443107620942,0.734810718090138,0.6696315381777738,0.5767299768338532,0.488707487881225,0.41719067844408375,0.39815167511081206,0.4599382422989109,0.5505561319848158,0.6395101472352391,0.7163444892618149,0.7509335099017256,0.7243904287936362,0.7170972389062333,0.7078174393309453,0.7288943983505618,0.7518533867354145,0.7765084754655618,0.7786756603470413,0.7347903257739166,0.6389738926300716,0.5466198522039387,0.5445778650478523,0.6471759328621882,0.7524748323871857,0.8239408719319234,0.8094486738385678,0.6858565312749847,0.530708968740567,0.3834054610948914,0.2228767742989728,0.08231964145835846,0.05016890960578424,0.16656896658822706,0.3266796668920118,0.47498113255725194,0.6337500575630339,0.7759774658141367,0.7958118973990387,0.7821360169640599,0.7740885985580901,No
0.6485079774385651,0.6871658178420792,0.7247725005280996,0.7447227626432698,0.721380845316351,0.6414035186777158,0.5440292182957283,0.4301971327655423,0.37566743903402555,0.48704119895606857,0.6117921988867732,0.7388628472346843,0.8397968127707864,0.8634938806861703,0.8390505276093387,0.7734714393047,0.6889515378671089,0.6499563159812429,0.7127884982710699,0.7733315323146099,0.7942074105909276,0.7828255238746609,0.7944384276505088,0.8051415148212886,0.8047891494149151,0.7669738164664581,0.7107080514242141,0.6401003812983896,0.6174523672873447,0.6648177501571149,0.7258439670191961,0.7820866089549705,0.8231388537395556,0.859607775871734,0.8774183039828758,0.8427497698634285,0.7643972695950039,0.661359958531603,0.5602794868130547,0.6118835400849729,0.7118039114687855,0.8327454951846978,0.9505822211764867,1.0,0.97228975569816,0.9195483248817671,0.8389917129653388,0.7606553429411518,0.7629945881671651,0.8301833855770853,0.878691238988683,0.8892138854872806,0.8949682180146521,0.8821968666855575,0.846033130618582,0.7838897438783423,0.712039467233887,0.6506240537124022,0.6702473011572758,0.73610103329528,0.7951108217038887,0.8428193482695714,0.8742802610502398,0.8904816780051559,0.8764918284111385,0.8116342688102178,0.7136785071073444,0.5994049174039384,0.5419368749652826,0.6457690046303748,0.7782993379757608,0.8937284673666444,0.9665314293565261,0.959550440774315,0.9069978098660516,0.8185758579742184,0.7403106423137897,0.7222670004064233,0.7843358894956918,0.8458196596325478,0.8381037166978471,0.8347124901619947,0.8412980913767618,0.820616750357194,0.7692916740465652,0.6996288527507191,0.6244263599925497,0.5924635472742561,0.6375222738601636,0.702849058246533,0.7490563764090883,0.7941534952603884,0.817090625418285,0.8355261206845652,0.8042331721199516,0.7315660267393924,0.6231297707669778,0.5039364072209902,0.5059319740198931,0.6355955294455948,0.7585379488439083,0.8672039111638346,0.9059874614333889,0.8780773208250157,0.8162164885192547,0.7306798859951757,0.6571279148717295,0.689216836151862,0.762539763853848,0.7899283585395427,0.7597430189494387,0.7421022401158202,0.7519725720466286,0.7559430365119031,0.75351709702454,0.7096119853350342,0.6552011690789348,0.6408115731034285,0.681704632448461,0.688510804875583,0.6907017923539502,0.6732338139629874,0.6842950670752579,0.7170288188628482,0.7012235842208776,0.6299446510240347,0.5773778539773091,0.6112453769390127,0.6945064664237739,0.7829083702012056,0.8250090110245996,0.7646263011425432,0.6435482325765474,0.5418573788192074,0.43151941005336525,0.3413554200811264,0.22477810244653096,0.09299996950970657,0.0,0.03066597878677202,0.12572702925493706,0.25494927799178857,0.38177733418663395,0.5120567680829207,0.6349408102297165,0.7263788304144154,0.7657529538763788,0.7477172347548549,0.7130717365632235,0.6711745529281017,0.6197840806824662,0.5553248706239389,0.5172464607753855,0.5530639956226073,0.6252515788601691,0.6929552591814101,0.750521428030686,0.7686324508856597,0.7662760425685344,0.7663261197812452,0.7558928080339049,0.6953129841909313,0.6386632874366973,0.6590477466391342,0.7314589799040774,0.826378111149245,0.8894945352520587,0.8767847904618553,0.7614729498799551,0.6359837123602463,0.5014180878351908,0.3762035009626503,0.24018848390213599,0.11801586231670846,0.052098984849359375,0.13415796551874992,0.2576116195379865,0.3890571260557145,0.5150058201660315,0.6382841852704804,0.7519413824839551,0.8192596299590518,0.8158903368431734,0.7997343124281495,0.7670135497434454,0.713138520171329,0.6532854513797437,0.5917951462815925,0.5734678544182059,0.6313757846365315,0.7075009693252174,0.7742341143926366,0.8194916859389552,0.8291518628700132,0.8203770538035835,0.8010246173832751,0.7399742930539719,0.6860813832606603,0.6726942294560474,0.7277807034053034,0.8117381497388902,0.8897848010375502,0.9176641009313204,0.8695420960261835,0.7513073921455726,0.6265746910433205,0.4920702785799844,0.35282077319245797,0.21482915782058853,0.1139545842798908,0.1525396264152099,0.2702962294613567,0.39480066432625227,0.5187899215885436,0.6404286174820508,0.7434688427156684,0.802503132797812,0.789483561505183,0.7719974615687972,0.7279640316536797,0.676676934491093,0.6133825089455627,0.5639363198039495,0.5421262609413628,0.5936811997881781,0.6692601648094838,0.7230197067704487,0.7435098202283834,0.7287743495272552,0.7232352182788615,0.7296760140068912,0.7077365596426022,0.6405799564714827,0.5794336192989711,0.5939135154949926,0.66593855196369,0.7516186146584243,0.7858308894488566,0.747001677610728,0.6345098099094142,0.5071146923829932,0.37721815008559956,0.24902243078251463,0.11877699152728338,0.018280680067554123,0.05941277081557628,0.17981100065471178,0.303969803153771,0.42759253837486666,0.5451787836806394,0.6403531298905021,0.6751336733799134,0.6560585937405126,0.6211267755163163,0.5713296014148908,No
0.9177707551513314,0.9130154522088161,0.9160544935772379,0.918727338896929,0.9292455601161647,0.9167775127541582,0.8898745999587769,0.8594631265313748,0.8502378361194272,0.8759788086190186,0.8845826943012212,0.9094434752193086,0.9317869341044089,0.9320189653514446,0.9457114893180074,0.9317986403660743,0.9294640703856556,0.8938324346329243,0.829445448463684,0.7359670444749085,0.6367850750487996,0.5280324542510868,0.4461631873119154,0.5062622015041083,0.6143011845314461,0.7125574083367006,0.8162975788911824,0.9068266509695879,0.9668785036623573,0.9700275522733597,0.9516563023515545,0.9214150993020891,0.8859084708079512,0.8844688662106608,0.9127547081268912,0.9182529113934861,0.8979256137311185,0.8898374410798657,0.8914397346231648,0.8935503402893266,0.8956560672584006,0.898656339189704,0.8973175415162562,0.8889218890752704,0.8721497505337099,0.8475021681542196,0.8699198603328344,0.9031679378790785,0.927766297624306,0.9498562627017224,0.964835510095867,0.965032048796225,0.9640149570113026,0.9508880437393297,0.8945417936397371,0.8131914530882625,0.7091723418462579,0.6122310668613877,0.5124674158632876,0.5217373599429174,0.6192937001266239,0.7197501354171363,0.8229271519263481,0.920946088629867,1.0000000000000002,0.996334631071816,0.9697929223813098,0.9434620763746941,0.9188602768811747,0.9147097209282145,0.9216684530551678,0.9106539865666592,0.9071693770787814,0.9082400334136682,0.9002094515807293,0.8864956962268915,0.8907006541598397,0.8890245379165582,0.9025017961145789,0.9013508213788095,0.8664140800463211,0.8408877045235428,0.854881088863116,0.882717779323184,0.9171874707040317,0.9267213804280356,0.9386702131496658,0.9463753128565144,0.9467091625641852,0.9425629371283686,0.9027689144087099,0.8426593416132879,0.7455188586356172,0.6477926078471847,0.5613584095105912,0.5971369792029482,0.7032799973039559,0.8008912118159259,0.9005869433226772,0.9721133275746656,0.9702026913593584,0.9490955342077758,0.9190584579057315,0.90391352482231,0.9001053555286431,0.9213708743986475,0.9261316581717665,0.9270056435033058,0.9149365400364518,0.9122008950434111,0.9089922169995954,0.9250973876299791,0.9273505370298218,0.9176827368267795,0.8867361147683821,0.8482054936106127,0.7966465685552626,0.8140082183087893,0.8454240686057488,0.8595571768603036,0.8586177105423294,0.8390972061740005,0.8530843666584211,0.8553060568797302,0.8543552095989126,0.8643656557142168,0.8596979198444876,0.830661904497161,0.8278090222593828,0.8628251401105016,0.8874826487774221,0.8899932963050687,0.8200763147608707,0.7154465189692336,0.617993568462228,0.5100453601424315,0.41030034829174933,0.307512676120558,0.19901213161014097,0.10104737633248306,0.015156904780905034,0.034564226755347205,0.13484520088862828,0.2440745799003745,0.3533253424396616,0.45851588746400407,0.5560559504564979,0.6555251928515797,0.7490909627223725,0.8318677471659577,0.8747237654081139,0.884275812833262,0.8823268889289688,0.8676345055637282,0.8612046470447969,0.8393123697774587,0.8215219196132055,0.7794551535135603,0.7661011534770708,0.7874513205869269,0.8211597726393791,0.8366933188119987,0.8268761998787493,0.8183252387311943,0.8143440764200809,0.8208939252686738,0.8285704738677995,0.8250495169826688,0.840529123014442,0.8469053406806093,0.8449396397186641,0.8355730567980582,0.8635787221857856,0.8861577332411359,0.8949594928572793,0.9235579235483498,0.8695202163893005,0.7711606005361291,0.6687582214242134,0.5697233344773471,0.4662286058527403,0.35707802986773873,0.2538004503466482,0.15457689715183265,0.05560593609098197,0.030611085130537452,0.11837096955186377,0.2274708774907992,0.3358474311473636,0.4335290060383892,0.5378218454079178,0.6351027917812104,0.7368483982285807,0.8232168664801212,0.8863321986762231,0.8994052666793506,0.9067824239034972,0.8951550378214874,0.875868957113646,0.8575859927811618,0.8329999177316167,0.7931169838169623,0.7761554442559071,0.8043769779511469,0.8252054694173945,0.83856338727201,0.8281275802657995,0.837937907483586,0.8361873062218439,0.826982191633401,0.8300006322866713,0.8417833160749184,0.8375563656453264,0.8367773616360921,0.8363496234189671,0.8142863456062128,0.8120347132970138,0.837442782327068,0.8740137066108697,0.8873321502497624,0.8629375440993126,0.7762522837186332,0.6694906233445577,0.5718494312377478,0.46655538129781227,0.36397076587139465,0.26404510402536263,0.1553240817496111,0.060018335450146454,0.0,0.02807412470162496,0.12884086792602112,0.2333876571529132,0.331610221877894,0.4397154437458568,0.5383258684782477,0.6399471605729803,0.7357594950102182,0.8241247442155355,0.8722791551432871,0.8800549676900504,0.877853758008049,0.8682440633730211,0.8438783553180407,0.8303172368236382,0.8093140465856747,0.7748364762463236,0.7954082453360269,0.8301103648836989,0.8526201585463833,0.8568439029566541,0.8533626789408737,0.8579261267887242,0.8429634642592048,0.8548438790918482,No
0.8723471458494698,0.8946553069234082,0.905799242407773,0.9184716909900614,0.9380758186745348,0.9532661094435202,0.9322181291660776,0.8865191911915664,0.8055197905489435,0.7073783875625055,0.6050450584213514,0.5050926069611572,0.39757648667570855,0.3381359476494348,0.414191457921528,0.5196037675274634,0.6251705053238208,0.7273875050372607,0.8388661167725107,0.9343774380276355,0.955756493935656,0.9252234042217444,0.886817642508201,0.8515329338369542,0.8349204753325878,0.8644472810117683,0.9028807032039885,0.9079557651548429,0.9086001573493969,0.9001385717156873,0.8883361115579649,0.8819361135574537,0.8857090652853303,0.8769055715346545,0.8725578741010223,0.8792682226508619,0.8733877940246422,0.8888102068448092,0.903905434015913,0.9049876065867566,0.9068185199171142,0.9092220951931087,0.8953392655330581,0.8755166790739777,0.8325786069881143,0.7853007151978502,0.7621965961311234,0.7997474422914359,0.8408288437503559,0.8673851211454933,0.8818810678151889,0.8622621922487728,0.861374173444692,0.886892142133886,0.9134247552604706,0.9030502628786361,0.8433054437185699,0.7532132608737894,0.6521632047654298,0.5492875712863281,0.4450648384253779,0.3635647615416806,0.427136122910027,0.5379935288077871,0.63926266118784,0.7459515304800095,0.8515395548727582,0.9290715426696368,0.9973348774002826,1.0,0.9772768609625029,0.9203877829176554,0.8782457863314508,0.8684001184988226,0.9052881243715274,0.9409497821468462,0.9441614712049486,0.9383409940379033,0.9346148176497624,0.9425990569086093,0.9235889422394674,0.9140943015317511,0.8900814661177452,0.8830921158747449,0.8790091827195732,0.8669943759896586,0.8726898358952915,0.8815694261302958,0.8996126542994842,0.9077336940350365,0.9166291574562644,0.9156850033342003,0.899404757789259,0.8801610464769931,0.832676783872325,0.791130619344397,0.8014057823746596,0.8433629615238991,0.8729065699590941,0.9062261202913584,0.930338490582753,0.9464289354901321,0.9601996043358207,0.9713126880625529,0.9598144402425923,0.9110974842373083,0.8194445832522006,0.7204358253927148,0.6145989905606881,0.5143078730057247,0.41638870954969853,0.42862602662020377,0.5350558507607426,0.6360100931349564,0.7236049614880544,0.8121899313178909,0.9155524023262345,0.97941435465561,0.957932791678862,0.9244815736194232,0.877627241375079,0.8647258147992152,0.8982014819601503,0.8773024199110089,0.786186042903454,0.7201222684840096,0.6512604624537577,0.5414997194495963,0.4426120980176047,0.3967327921959276,0.3054430987756307,0.19380286177037487,0.09152151352644622,0.02638032180354899,0.07177798702929072,0.16767235617382292,0.2751045512078574,0.3746171932022744,0.48373723392974144,0.5847392966511742,0.6889507171657994,0.7794978089694,0.8567285745390367,0.9074880074287264,0.914775976603309,0.9057473761035348,0.8839738920470572,0.8599542960013586,0.8317831199879775,0.7970494041881628,0.7567391207294154,0.7235263587937277,0.7390019418523814,0.7908194313821904,0.8296995032071113,0.8393997647368794,0.8486359980334286,0.852853618775955,0.8360625924211531,0.8223323837347167,0.8040391647956953,0.8051345558706369,0.8074631663730849,0.822882505516727,0.8347409717053087,0.8515592396266523,0.8559845076788295,0.8723270606362759,0.8814418908103607,0.8815760218321875,0.8836708970044604,0.8653507862283907,0.8297518663543713,0.8085849814999655,0.8301815061983402,0.8723672792093922,0.9214433389387438,0.9222303215253205,0.8551334540249269,0.7443073830466491,0.6323946827981817,0.5286785034037571,0.4246646074658176,0.3176537775260351,0.21688517309968347,0.11372648835443222,0.04225671591694247,0.08283569105804656,0.17810102556668683,0.28255201505649064,0.3827174904972912,0.48702053667645595,0.5797746122969376,0.6616186238921382,0.7620073665237079,0.8395224965694807,0.8570898989750204,0.8271443992954342,0.8042184750650008,0.8125314468486855,0.8234932168719373,0.8064800915259878,0.7723492051787431,0.725187598684093,0.7022234825057856,0.7313677357896249,0.7783857491241704,0.8188272409964932,0.8467279612429266,0.8573405734122757,0.8561615501430686,0.8519417928012945,0.8461944454671899,0.8310545703336034,0.825009371764668,0.8309209459633804,0.822381294299249,0.8193605425058945,0.8305690450915706,0.8323758862544888,0.8445904469110461,0.8494843055078034,0.8619631945483941,0.8605515507611945,0.8211678803422156,0.7802410283719134,0.7755469584629711,0.804939591053381,0.8470290843174051,0.8763323584508345,0.8242365116321833,0.7275911339967962,0.6201535459612151,0.5205291279488264,0.4109950952199628,0.31107836733896477,0.2024401338965074,0.09066933828008894,0.0,0.015707707077551536,0.1078035743582304,0.20967293766982564,0.3126436440419824,0.40506720308864264,0.491445280170566,0.5980462327417557,0.6977853497846218,0.7970117695167009,0.8702376942189987,0.8954441259782362,0.8767106316725002,0.8580461207942238,0.8479865930091286,0.8371993435272342,0.8133478667344414,No
0.7444386374881211,0.6669135627506249,0.588799317255029,0.5626625377724552,0.6382905135406967,0.7198178361454719,0.8060762090208695,0.8733972615637353,0.8696080908871204,0.8618910415694745,0.8502802277170423,0.8312221032643525,0.8083377838206367,0.8087795678711469,0.8130999504955891,0.798986956369649,0.8013704668324744,0.7939960238368062,0.7859557086042406,0.7875890244138484,0.7860497326250067,0.7868860817922214,0.7753710726767302,0.7564382988946199,0.7527192423288174,0.7860283047659156,0.8037287582092212,0.8253130196544158,0.849414240715594,0.8702045831618785,0.8840731337616727,0.8962533882213721,0.890930337501477,0.8555189365487736,0.7961818884978591,0.7210878738263915,0.6390508078727106,0.6134176799894986,0.6755759248685402,0.7449369252043798,0.8299150591197626,0.9013074957802778,0.916435238152443,0.8895305696010705,0.8562432145478285,0.824097715913441,0.8102537159469141,0.8271312524882393,0.8368127826787526,0.8341785110606921,0.8346959645748213,0.8518517356706163,0.8708575621425458,0.8794842387524118,0.8821953378594931,0.8823438477482415,0.8665523283071459,0.8486586401001279,0.8611309778781338,0.8859821543930999,0.8933885760899107,0.9024455710536454,0.8994160381810934,0.8978256133409528,0.8974946223533435,0.8878939465683504,0.853336330617291,0.8030374312817359,0.731018785901687,0.6494515037195043,0.5744399314870876,0.5787842838727959,0.6571331692800333,0.7422435547660133,0.8268480901627773,0.9041678506359876,0.9514992459591798,0.9458912609224779,0.9221445309802414,0.9086064771761531,0.8946586812820954,0.9213657170802532,0.96521858562165,1.0,0.9962063336196625,0.9777774007036224,0.9641510443365924,0.9553752050560234,0.9374620181605002,0.9162173744096851,0.8993822596487053,0.8933715742069808,0.8862491358628226,0.8650670549328519,0.85190063077677,0.8375615170097452,0.8191467621560444,0.7910697207929185,0.7616918136669804,0.7419039981968969,0.7231742706503357,0.7113450478248651,0.7118956701737056,0.6923541330560474,0.6248596772681714,0.5459943890562178,0.4876156754211216,0.5333842036470318,0.618389989875318,0.6901889154788723,0.7348521614131216,0.7695937868193314,0.7386675216164611,0.7056273252290075,0.6383017344192667,0.5486354076029689,0.46609658952461475,0.38977722755531685,0.3035304890245236,0.2145348642183713,0.13402870052037552,0.0481786518617946,0.0,0.047172160513258454,0.12629500346306122,0.2154651537031984,0.30134721130799,0.38320032425363193,0.4563537213742854,0.4960233887017633,0.5749230313086842,0.6437970612438912,0.6643884890303444,0.6733289988001694,0.6936121335024761,0.7065346523215217,0.7354733656844736,0.7624836063540292,0.7826861695424694,0.7965242371692249,0.802337950140235,0.8125932694650775,0.8399150760039382,0.8464018914724787,0.8594830648625713,0.8729498284898476,0.8959137724154589,0.9095364178719114,0.9218205112303468,0.9338419528145137,0.952482807111489,0.9431225240053811,0.8991123021915839,0.8535040933398981,0.8269173589620173,0.8477219381201246,0.8668947965970157,0.8857113320095937,0.8964424722362847,0.8388765628402295,0.7581900333926406,0.6720070860648666,0.5867602903392624,0.5040972295793986,0.41400896395295117,0.323642763712632,0.23442624979158522,0.1718887485289804,0.19783670001417408,0.27899264252664135,0.3687476174360864,0.4504460501348193,0.5360317667967927,0.6166026579149615,0.6957053484869768,0.7709433028786616,0.8252570694479311,0.8493947056798548,0.8483201977237504,0.8425624841080013,0.8574894412184362,0.8512896288799241,0.840813788200812,0.8283513885978735,0.8061047606842475,0.8043892986914845,0.825526474161248,0.8392555311804659,0.839993801441421,0.8336903600940384,0.8053109517366464,0.7904808732552486,0.7820863828412907,0.7861766260914127,0.7798053259262603,0.7624571026997735,0.759612053644668,0.7777713275404161,0.8057417659926362,0.8384744629952916,0.8642729018151694,0.8297210456536961,0.7486677552671468,0.6669647394894951,0.5808047743892053,0.4904736453454708,0.40010633068624246,0.30975389381856977,0.22278680829654363,0.16989705111253928,0.20852516013546207,0.29255368470843,0.3753223213816055,0.4603389413552248,0.5450873220752064,0.6273896858789543,0.7080127749756322,0.784610629534845,0.8404681726015886,0.8525654394906477,0.8432687341934186,0.832876176872051,0.8161815690519014,0.7918681895300463,0.7677146762186187,0.748040334394716,0.7318894606977162,0.7056569982936134,0.7091637046893764,0.7171510135158026,0.7277364885724316,0.7276513810447383,0.7294981071626201,0.7337271425426555,0.7439161009094866,0.7480958284167314,0.7511619743180602,0.7699730108839744,0.7628748017490197,0.7529738722547834,0.773029521838267,0.7994163494214899,0.8057362797496253,0.8069319236329764,0.8064397211493373,0.7463314816538573,0.6625504284178085,0.5810778853475391,0.49126317162122035,0.4041158411949146,0.32293782112295366,0.23331530764436614,0.15094224838520165,0.14063243239358503,0.20702692083835417,No
0.8706094367563781,0.8964701443210943,0.9026528606540156,0.8792233944918768,0.8158118651467972,0.7343363327788814,0.65161240025934,0.5653845916521891,0.5565594025080387,0.6393422121868908,0.7242442435744849,0.8103729225428784,0.8999440437790123,0.9575281777974116,0.9452481049429704,0.9167163168913193,0.8775535595756365,0.8236906071080634,0.7972415933049608,0.8312164279173706,0.8618607572718009,0.8761265616961167,0.8764773903576211,0.8683718040628927,0.8625772021688647,0.8633138431537288,0.8551200539387287,0.8517383850062132,0.8500249490215821,0.8441063418601242,0.834797202599147,0.8297143336431927,0.8240845021629157,0.8356135515235259,0.8509291523960785,0.8561700675464312,0.8267772914518277,0.7722630310232228,0.7088874404106484,0.654946510108041,0.6610962381940781,0.7144758187614357,0.7679301633298263,0.8188870030043731,0.8582157681917428,0.8841365148583813,0.907524340914369,0.9191663904611589,0.9118336377715386,0.8634656128926819,0.7833638832485479,0.7010531429698428,0.6122821307273512,0.547320719322949,0.6008035034073058,0.6892942146646515,0.7718187779277164,0.8557468590903701,0.9392044554327439,0.9999999999999998,0.9891733364265052,0.9644116797362827,0.9269484335265548,0.8710726179161727,0.8423982138769821,0.8744301581162219,0.9079839144704167,0.925512300491125,0.918664278090721,0.9118668596461961,0.9146692726506791,0.9086598007172471,0.8997728212333189,0.8974983253428948,0.8909294324557824,0.8810307437882312,0.8720331352457404,0.8651388776705338,0.8859702665611138,0.9027803140046047,0.8818678028100349,0.8381955652610877,0.7817353891329517,0.722279261056904,0.6969024552485321,0.7344607349220416,0.7906566020207608,0.8403664358542215,0.8767724162320254,0.9118976515519706,0.9259844597088376,0.9324999825695672,0.9140671789223507,0.8492026076774917,0.768627398011063,0.6795693594157359,0.5958063630019883,0.5620016367652778,0.6357470897176083,0.7187842378944427,0.8049651031961531,0.8872185766444323,0.9664921253709158,0.9911496776324629,0.9647198903620102,0.9339726361355238,0.8874180676186227,0.8463968933000423,0.8644496809022291,0.8941729904925058,0.9191382592353599,0.9193791056057321,0.897163907288838,0.8894034786915335,0.8771394927657086,0.8432238189603043,0.807362633421127,0.7989468508965416,0.8373433211764425,0.8870654391637143,0.9261473831875591,0.9242860203818786,0.8523245109286226,0.7614047246156663,0.6749006680477172,0.5903164463477562,0.49924163491528173,0.4104000986656082,0.3276187030607318,0.23712781425988405,0.14608436036348427,0.06432937969266872,0.03201423271781123,0.09080574846832468,0.17934862429608311,0.267207629193853,0.35062875114639924,0.44130792189505885,0.5265658198031224,0.6123496229126832,0.7024457285029868,0.7848675194832089,0.8633858804598145,0.8944806138504726,0.8924489667875244,0.8704440107849296,0.8332017360635144,0.7918400448534733,0.7398371821782843,0.6856531382599897,0.6579457605299144,0.6770905731775771,0.731220390222092,0.7903292729334563,0.8428990202992279,0.8599242240347458,0.8403571689345035,0.8256868221818143,0.8322245300398836,0.8429519006528001,0.8565785396548835,0.8624765443604738,0.8630118168526875,0.8684727528023817,0.8701992481051646,0.8719103702308209,0.8757760358667463,0.8824461020688144,0.8649530417785689,0.8247885193591251,0.7942141757982892,0.8164672523615257,0.8696975632226844,0.9180886231588736,0.9355325319232397,0.885579656278429,0.8044346550957988,0.7172920099033666,0.6348176864549913,0.5448215165371726,0.45409323149995795,0.37093873674606126,0.2827013790553088,0.19146472386296476,0.10488992099593464,0.023642733836481078,0.0,0.07433417967391565,0.15926374734767657,0.24520635972260063,0.33639763367881503,0.42401360271319866,0.5076386026860333,0.5984962752018999,0.6860557792901503,0.7688336149261681,0.8456497340643636,0.8762196487152061,0.8704813878689666,0.8504673681442425,0.8214184163683138,0.7793734458317809,0.7252798852112492,0.6705393077806705,0.6202136441392803,0.6021493695386635,0.6365756222943559,0.6956975551844518,0.7633763735740395,0.8089422534507009,0.8133441731984203,0.7961413438702254,0.7869827907675087,0.7937740344091684,0.7980324177334144,0.8048555629743044,0.8126913921079846,0.8165294465548625,0.8213989757967979,0.8241811907305274,0.8289536587026107,0.8334504768003261,0.8356427460793048,0.8378791374569861,0.8190732709303459,0.7811869129097277,0.7490705031675158,0.7732027197740561,0.8231534279847452,0.8720557251264136,0.898004300826653,0.8590308615554494,0.779398001442086,0.6961189417374607,0.6097809100589493,0.5187567560911595,0.43408611495821825,0.34768257325260166,0.2564295101114593,0.16509992760369085,0.07417575722143521,0.006488851187022027,0.03682765923299436,0.1223241395523551,0.20490388615820976,0.2951641721944951,0.3843701096730847,0.4669739418778811,0.55721402622224,0.6441139837007921,0.727671840397607,0.8079929494545219,0.8605057323263525,0.8599593690238643,0.8302283633072984,No
0.7943334676659215,0.7937540345821446,0.7945149465339485,0.7794440227414547,0.7929547488761455,0.7995124125195034,0.7925400688377735,0.7953965624775705,0.8041210552517701,0.8128742118889365,0.8017994320170656,0.789599891403665,0.804347673195132,0.8093711353404522,0.7917696656186743,0.7726528956559648,0.7688549955389345,0.7612854548687986,0.7876377028585346,0.8284151335834684,0.8745524461137877,0.8682290525256438,0.8509946958726315,0.8153891541033298,0.7624510463597649,0.6767358782008412,0.5875107586851724,0.49547291610104116,0.43198318142050685,0.465940077231231,0.5321852125047104,0.6028114871046193,0.6477097269287508,0.6942807347526667,0.7343813475396939,0.7591077014875447,0.7890482012747464,0.7867046767778403,0.8537471013471918,0.9656679135205253,1.0,0.9100264107287321,0.7832116496695654,0.6554438845238124,0.6017462832398888,0.7017622469447704,0.8224325820334699,0.9331208674235238,0.9766734771294159,0.9543319311887388,0.8742011503215306,0.7826232529625354,0.7415141607727183,0.7712464223515356,0.7901616713989021,0.780778882962696,0.8001448600359113,0.8172702391683653,0.8072481365364141,0.8203388887311185,0.8146587495580273,0.8205679786768885,0.8063005304316468,0.7998891869105185,0.7947536062266383,0.7868034312690004,0.7767900041435096,0.7575595550456793,0.7312592143133325,0.7607788970605034,0.7806278481519553,0.8257996237376908,0.8534268825314499,0.8263485604985896,0.7819020797542002,0.7410562918937482,0.6692388667014515,0.5848578623881422,0.49069571823516256,0.4094157428912646,0.3988787992028904,0.4601099000777209,0.5263262795839125,0.5937538819887762,0.6493336020525984,0.6568363592542363,0.6762993194002274,0.7034514062174742,0.7081743393133597,0.7079722261460866,0.7833806107976264,0.9010195869993343,0.9604498177149785,0.8780557288353377,0.7553367478694839,0.6192740339194307,0.5049035043763994,0.5178633812616429,0.6291750342869467,0.7526269959645719,0.8356094450471856,0.8507821444329178,0.8023618222026978,0.7132316263330911,0.6209402562421276,0.6085207237269463,0.6365858623351248,0.6912451945401084,0.6950164785668025,0.6876284738510936,0.6739606168778645,0.6596016118159831,0.6345189005771976,0.6332681214492095,0.6072983484665055,0.5615150545158576,0.4845932703084581,0.3572189637190508,0.21627032497205256,0.11304697885791803,0.1072678165896166,0.19264202583616274,0.3323214929596223,0.46214709598479287,0.5249533144444714,0.5266725284630187,0.44072271518379935,0.3034315353584174,0.16725602664478023,0.10245041820641676,0.11646105836055698,0.22276795462507737,0.36369674561349097,0.4816334269937914,0.5339553865951681,0.574494619028751,0.5809345868666389,0.6077739902005916,0.611674345852876,0.5933218594157874,0.5580073621426882,0.513769684403866,0.5303177005669597,0.6024025975817504,0.7077325608137501,0.7548575321928368,0.7354818682922097,0.6256060353743647,0.4999589135417901,0.36661255745360943,0.23945364914740797,0.11123304949246116,0.0028146373234143596,0.0,0.11012533726537432,0.2486644860493188,0.3837737050011176,0.5107250711564477,0.6492033769761094,0.7001451133821828,0.6264857566566584,0.634701462164641,0.6317682284806563,0.614542371078354,0.5885762763982876,0.5675759455560208,0.5273484621820792,0.4647485697462943,0.3947000076817009,0.33425140614441906,0.2942515213599064,0.31520430822886425,0.4035259847680246,0.4931097468395693,0.5909914133524938,0.6596914709167709,0.7144254963954473,0.7497073389566422,0.7561539703248363,0.7175614523383271,0.687259653421457,0.6637558214684232,0.6808117296542675,0.7043661663534326,0.7224223416840383,0.7277775806080724,0.7382099850515327,0.7302849714084507,0.7390294378443696,0.7434366395074679,0.7462003685125485,0.7445494937533472,0.7313453011072304,0.714370037185688,0.6960458014018038,0.7087901910709329,0.6942382485022756,0.662605282544769,0.6796204022020977,0.7557139040083483,0.855660541985614,0.8965243265353102,0.8316355138910541,0.7156187432290761,0.5876444639592302,0.44916893402817726,0.3244387584395896,0.1949958813756032,0.08432713001295156,0.09257061359101515,0.21951700661326745,0.3448537612758087,0.48233839203855977,0.6210234943032766,0.7397803414707647,0.7588132824828202,0.6942420519517212,0.7080321125268783,0.6880799408381599,0.6759012431618538,0.6482833900167089,0.5982722334257202,0.5617840055390131,0.49701525656705625,0.4273797501654628,0.3657825767623133,0.3321276217302218,0.3741952841766123,0.4599977991345763,0.552702302855443,0.6478374912968983,0.7198152043845987,0.7626564968003948,0.7934341516746808,0.7755420309614602,0.740862752957347,0.7020368699226278,0.6809879029924355,0.6859948275238361,0.7094685404822814,0.7167382713525754,0.7351219544780307,0.7157774947791902,0.7012047502563221,0.7247373611502819,0.7328748459850756,0.725630117788119,0.7142429256065865,0.7216819048586056,0.7341857811391579,0.7249327604553861,0.7156689585397924,0.7281776045426747,0.7304666890746443,0.7186546283717568,No
0.9263112863829951,0.9810400605195814,0.973216479904519,0.9006173137330119,0.8211196797706403,0.7400981854082144,0.654664671945777,0.5873406863886627,0.62466761936024,0.7088873880743477,0.7898426726273248,0.8691011625745434,0.9456411548416449,1.0,0.9768470014479139,0.9619263927640084,0.9442029345207271,0.9070501576585227,0.8872607345843936,0.9116243969905776,0.9348690187833198,0.9404603798010988,0.9434985105658887,0.9379073148924447,0.9325434019319895,0.9359083033479233,0.9244149659607798,0.9126089512097691,0.9120404286714098,0.9311599416110438,0.9359404796478578,0.9345468758670937,0.9212399779178274,0.8930803687091281,0.8471798267307765,0.8280444394685361,0.8459965062159686,0.8717567607699569,0.8851813542073387,0.8853992130177629,0.895176287908093,0.9066606391408348,0.9462171143170978,0.9193105482827607,0.8392978353433448,0.7614717062158752,0.6776374445866676,0.5922254286274983,0.5312346106724809,0.5803002548271315,0.665331268482452,0.7464047604880507,0.8258830316708702,0.9028484017053978,0.9492853595731346,0.9351025968094332,0.9247079484717581,0.9003428960983241,0.8614069247689881,0.8426814338533574,0.8844857086244026,0.9140881676448372,0.9220958307730535,0.9244499350031051,0.9237029823605704,0.9222656828065942,0.9105914619010668,0.9141358307684574,0.9031756738806279,0.8906910345229767,0.9104397461433872,0.9097731432130275,0.908537289331934,0.9111516917248265,0.8910070388395187,0.8491392352827988,0.8047078050843147,0.7841728828563722,0.8125669965717871,0.8377829826209368,0.8447139534802567,0.8576514918809893,0.8651043776127941,0.8807701526323223,0.9306788743975497,0.9598632547146361,0.9017284418926917,0.8235941400849943,0.7416367080154748,0.6560906874440363,0.5740887529641222,0.49769904259715714,0.4822455710570116,0.5597000184221449,0.6453141665535839,0.7309447890669883,0.8161804301666192,0.8933684497245015,0.9441127558236401,0.9415306128376794,0.9444742789589297,0.9102294681244035,0.8643225932669326,0.8465558942183679,0.8885850393282105,0.9065279226264041,0.8991064786286794,0.901842009406583,0.8919714551466763,0.8942985065047858,0.8750619087424082,0.8527195722116162,0.8482114107686455,0.8548784765444438,0.8507758638359947,0.8320793634689622,0.8132063145393372,0.8073208937583095,0.7992734000388534,0.8061233082306086,0.8285608292917673,0.8307965892937003,0.8448126257845124,0.8511460480265732,0.853809474958782,0.8606508832419945,0.8678186979582866,0.825964914513231,0.7977152710174212,0.8210929207590859,0.8647883655445935,0.8904709176424502,0.8911717051292408,0.8588110893810142,0.7812889087996903,0.6968881183452583,0.6190717272472749,0.5352110256639239,0.44958931251614953,0.36514295631376037,0.28734886575691976,0.2032999615982337,0.11813134518578727,0.04058736418604536,0.0,0.058051523632131063,0.1413780678563169,0.21919254074850525,0.303791560385131,0.38939973297281594,0.47186370670727007,0.5394598694773604,0.607992240865045,0.676422203792647,0.7447442840290833,0.8095417971972022,0.8255883415132216,0.8092427838440238,0.8072172086711499,0.7967726270934551,0.7853716674850099,0.756415413097348,0.7461420495569059,0.770917681692297,0.8205760136613357,0.8556738897158139,0.8644491084092244,0.8715720100499439,0.8605152965410073,0.8575937923302445,0.8569368383619446,0.8621513198091167,0.8700429379983204,0.8780516872012677,0.8790416672538378,0.878952565443852,0.8791528273108496,0.8798313790952054,0.8520529049275322,0.8045479775351133,0.7979524386951932,0.8390554744040278,0.8735069702782435,0.8908270954087137,0.8852034548346065,0.8354583584093446,0.7636456379796824,0.6846605206666566,0.6030670334658667,0.5184226924402878,0.44055809757665687,0.35683358658824804,0.27121078946060295,0.1862164929358564,0.10807177658159894,0.033774291039240234,0.03161834039654665,0.10659394449163717,0.18493320023129833,0.2677364859012771,0.3533400722956256,0.437294967123523,0.515100207950934,0.5996298351174513,0.6852585226409867,0.770708784601449,0.8399937856258007,0.8507799496987015,0.8390076426321537,0.837866456323373,0.8245418726634385,0.7968191001792967,0.7780318982595026,0.7930007237240081,0.8417727617560887,0.881359407553579,0.8978108977547424,0.8951168536949016,0.8833167554472995,0.8707904539892736,0.8690089997232643,0.8833098564333767,0.8927783619986779,0.8923845568798466,0.8895702483809506,0.8843626532114651,0.8875636439538613,0.8717093480758592,0.8371327708145645,0.8352522531238179,0.8765014323087011,0.9117702725156654,0.9241346345687808,0.8823925252292074,0.8030624019623306,0.7252908420349838,0.6414379898886787,0.5558321829734295,0.4728814801487816,0.39457374408948265,0.30953166609412996,0.22435509042642166,0.14597175788877215,0.08398320024527373,0.11361754965995252,0.19132387336838852,0.2712587243108503,0.35667060307379816,0.4385130479930647,0.5176615577007236,0.6029981143234914,0.6885682797275513,0.7700889106252312,0.8440458034581465,0.8627206703029578,No
0.7535751650572118,0.6970201797917619,0.6288859118961445,0.5855764287994389,0.6125444180898632,0.6694484663243039,0.7209369797102301,0.7636017831871975,0.8032481910311866,0.8093966835338386,0.8141740972745277,0.7904891404575431,0.7388262456549193,0.6583684871812079,0.5696222324857951,0.476368361413136,0.3739930605722106,0.31217754822570076,0.3809272747587966,0.4905966845876788,0.5908983261224778,0.69076081318429,0.7846572147128168,0.8621810543897157,0.8662941597398393,0.8191180551311261,0.7877943358946637,0.7375245214707216,0.6865028787182024,0.7054780446273619,0.7360977222180145,0.7627214956473185,0.7668737422764067,0.7668801820182625,0.7636063646650391,0.7512778908631439,0.741729507068815,0.7363459373460894,0.7246345921328492,0.74101973015397,0.7436619762861756,0.7534587124772665,0.7547553419975885,0.7177776767483601,0.6596200436800375,0.5943279979852798,0.593287436257788,0.6654375655014249,0.7265105222467938,0.7755585345537621,0.8215192110875853,0.8477643892640516,0.8608888989059864,0.8597359368921802,0.8275819275549943,0.7611696105251402,0.676082568710137,0.5880576654568908,0.4977004771646143,0.39465612228193137,0.34772435340037133,0.4335705493766453,0.5344524591479674,0.6434108702139445,0.7435428675145894,0.8375012614301893,0.9196855719327177,0.94545728875849,0.9159798021555992,0.8804302935255877,0.8173452145265767,0.7757469100096104,0.7896407788459003,0.8373588225913744,0.8568562955024388,0.8479799649430537,0.8319528647732681,0.8229531650917752,0.8259405249371803,0.8173063424539804,0.8054156553215328,0.794911782499774,0.7937300637323645,0.7888611502942309,0.8028689104773947,0.7870353078568535,0.748696202764475,0.7005855879321514,0.6354227266844334,0.5702836444395827,0.5741429140993712,0.6270119439176212,0.6898301455799343,0.7406431298690224,0.773359770056419,0.7931747989631333,0.8061077942840622,0.795588724266574,0.7542621172266768,0.67491536766801,0.5842343117773579,0.49736444433851923,0.408007961943577,0.3216927413553148,0.34256165879822986,0.4435900515398197,0.5493858372374361,0.6533508314030725,0.7567501296061458,0.8520283900119858,0.949208571906422,0.9999999999999998,0.9700504024902517,0.925443023545711,0.8745723040716313,0.8247899244534771,0.824014976574879,0.86699093774919,0.8867117118225993,0.8823831218334666,0.8771403546465713,0.8488748296894608,0.8065825156119992,0.8221672178462589,0.8171496392416218,0.8259054852407226,0.8066670210955309,0.7647709428047695,0.7618746644550971,0.7959296139800001,0.8547874772343909,0.9046181523843366,0.8908002100146104,0.8008036935573413,0.7028182303698449,0.6105791129596339,0.5079464349040903,0.40395391997572294,0.29791641448825845,0.19395078000814414,0.081781708092447,0.0,0.0322662812972756,0.1264818202227913,0.22523430085086615,0.3229861726123773,0.4183277418198357,0.5086390021225877,0.606189829802559,0.6919662891782046,0.7423709483977736,0.7458286770919476,0.7336982528364924,0.710643997705598,0.6675354088335841,0.605446318093285,0.548969738572678,0.4987144534840946,0.493736570425906,0.5536444184286411,0.6159413885315141,0.6787663324182314,0.7238979240231564,0.7392301726868051,0.7328760551243338,0.7363958044538694,0.7339007853653154,0.7493524844047215,0.7654485050338595,0.7745219825923899,0.7706664403768329,0.7862189264437471,0.7821642639828392,0.7770495792278271,0.7370166922601087,0.7090453773754051,0.7229175618845398,0.7772455269359047,0.8379825089773074,0.8652249781132693,0.8218203105589479,0.7333762783864632,0.6346056720039679,0.5281336105498358,0.42459603720922945,0.3182292394817996,0.21862611100951734,0.1393774721536125,0.09356104089948425,0.1660631908579664,0.26232854850382226,0.3599947662418639,0.4560218408050909,0.5469972870700037,0.6348034839364611,0.7210390624902037,0.7875543416764506,0.80804759403816,0.8020205102782223,0.77744851005957,0.7277240611552516,0.6772444832950921,0.6191099641941873,0.5421635048710256,0.5050500376024816,0.5368663673966776,0.6068544398137876,0.6647535912193738,0.6957512289497021,0.6898309528857538,0.682256629046684,0.6741280936610472,0.6667509093105635,0.6829227792770973,0.6875750588298402,0.7000263870021943,0.7050915352061493,0.7067010041578403,0.7118845326135743,0.7166342571437203,0.7045251128744099,0.6690004623428332,0.6391495935903893,0.6396392524143348,0.6905371988857552,0.738083771651618,0.7546375891053179,0.7626450365060726,0.6850306714227419,0.5854498815711493,0.47998677454353067,0.37646992182161365,0.2664754645235907,0.16649534026400903,0.08632036352695205,0.10440935295707132,0.19937639522847062,0.2994847327589534,0.38048605361257937,0.45991318204264187,0.5516699783207366,0.6385818913596337,0.716884039643422,0.7615380948187289,0.7568536934636512,0.7477775823479351,0.7160544318912312,0.672853953823086,0.618961718863192,0.5638215309537558,0.509171676398313,0.5105103893908505,0.5572946979398228,0.6222284173634962,0.6884599245031626,No
0.9416113841221719,0.9073146650066927,0.9018143059809537,0.9285514547067265,0.9357823926649963,0.9260565418715622,0.9177304467039088,0.9097452097378796,0.911142032879873,0.9137508187783948,0.9042132350812321,0.8884758884948519,0.8816956031758322,0.8936051191758344,0.9029776532907609,0.9199073946204764,0.9204184030093793,0.9056122258692613,0.8753178337550777,0.8258904306689575,0.7640349027725909,0.6996273801970182,0.6460732478802439,0.6409389142925818,0.6895744784629662,0.7412217076955373,0.7868369072441072,0.8267386083306124,0.857108668026228,0.8812375376679832,0.8946505661490683,0.8939929978491575,0.8636440050256048,0.8107106804957277,0.7486595883788499,0.680485672091199,0.6046305163198938,0.5333433122464203,0.4609198672394442,0.38713547489475253,0.3758437799636848,0.4403804508029717,0.5168957937332795,0.5936985332740433,0.6662325641020089,0.7374205337726344,0.8141090424561922,0.8906681331639849,0.9592070048002282,1.0,0.9803765958501022,0.9613763667064955,0.952357750996112,0.9170983424012485,0.8979729838529124,0.9269236754371707,0.9370852155430079,0.9321327623110617,0.9317964221171028,0.9280788352034518,0.9261457384935782,0.9222297125432991,0.9128014665026954,0.9055441948954012,0.8981119142578066,0.8917155407483771,0.8936477200865266,0.9160752048301207,0.9306288189267632,0.9313238783016103,0.9191653813121617,0.8849529447502781,0.840735936836439,0.7838081367379938,0.7207749028355489,0.6589229792625454,0.6374191906526349,0.6762318447862549,0.7269762899199587,0.7801652062281442,0.825489444900296,0.8601135528174065,0.8908337967612397,0.9098723706512944,0.914610652761172,0.8899318824761685,0.836302315700905,0.7773954726401108,0.7105012909147638,0.6403494641829236,0.5671508323281068,0.4912610654211159,0.44697121255506655,0.49268636202406324,0.5650390028956794,0.6418464568657004,0.7180354857582364,0.7875412818308379,0.8610296782030405,0.9292956154213975,0.9884706103595607,0.9941734603954507,0.9794661668931933,0.9642077584474874,0.9350550493821105,0.9009999606118021,0.9128199299611633,0.9405002325738653,0.9533169133258598,0.9416503735364768,0.9429975688238278,0.9372996350304091,0.9311803662266699,0.9254653198638861,0.9180167933025528,0.9068394045972145,0.8952102266820908,0.8852991214697498,0.8611387127285494,0.8556540464245753,0.8710560915627922,0.8815870001059888,0.8876731512271919,0.891069680698379,0.898272191952964,0.9051990437908767,0.9046323283484622,0.9110648565628122,0.9156825747280853,0.8901660393964014,0.8596587872872054,0.8728063899333917,0.9090715952963541,0.9350522087754162,0.9435452027284709,0.9182342885932938,0.8466417035596213,0.7698338689779628,0.6968458333871185,0.6260761342771942,0.549444372490345,0.4728000789659056,0.4019716625308768,0.3290537432921189,0.25225857755226067,0.17849574336805685,0.1083806585785052,0.034758253615721824,0.0,0.04499989634261026,0.11816712938665641,0.1893227635318958,0.26186148112853147,0.3384172034207732,0.409154500431708,0.482177230701195,0.5583626914911154,0.6279463974054557,0.7024086389172081,0.7740935190272477,0.8319079071514291,0.8735354303482804,0.8779375183667216,0.8647878534570198,0.8334028887060209,0.7961938873903597,0.7514676593082846,0.7009417967716888,0.6474063626651921,0.6046263997786095,0.5941243782369515,0.639277525562333,0.6953774969774708,0.7560720704793847,0.8159938089714803,0.8636326166228464,0.891743688572492,0.8964135790249513,0.8871499180618155,0.8655315403620297,0.8616274070871103,0.8628714594149077,0.8677161342564911,0.8772102676174921,0.884518873407932,0.8929116578755364,0.893863270427926,0.899465793042835,0.899295507799004,0.9001724830564973,0.8971341348097618,0.86550520286886,0.8592365230654982,0.8851871317020897,0.919169413841182,0.9313166781735972,0.9245428110642772,0.8676724915653188,0.7978658306511724,0.7242988392281001,0.6488725210132887,0.5807803921991973,0.5190940162565888,0.44957827662234007,0.3917101067111709,0.3393581203013606,0.26842638851562917,0.19161067438848944,0.11473749489427043,0.03940573948654813,0.0001261636804306132,0.04479255875951782,0.11320829706051538,0.1885714872012897,0.2581269346960099,0.3327068603763662,0.40910978733239023,0.47904381316739164,0.5530538445419412,0.6288544655270972,0.6979941579908707,0.7674505592140662,0.8272405605955141,0.8599211741656555,0.8550310816630126,0.8307688997945767,0.8000325524225197,0.7583704884205548,0.7140171100955718,0.6650282791361334,0.6134180529772514,0.5814548760533743,0.6049107574751463,0.6625081104328642,0.7228025539462247,0.7835148075408315,0.838562035724245,0.8755121108011698,0.8891590328910574,0.8795745392014344,0.8637135379816424,0.8509013371422453,0.8496101188081621,0.8624008529549997,0.8742346265199837,0.8797967893185458,0.8774354376425687,0.8787754283273362,0.8863077036110428,0.8892065980526628,0.9013685555748755,0.8953130291321102,0.866140078232439,0.8589675386903083,0.8871098238498728,No
0.8739453136390388,0.8302041517985922,0.7684854296167923,0.6958498311788025,0.6178733206229589,0.5370085521848355,0.4585568527058709,0.37964937314426084,0.3780871742762161,0.45438567178558087,0.5388932365169569,0.6226675308053761,0.7001460892479673,0.7814251622050982,0.8587056412171544,0.9366959258598185,0.9628168743957161,0.9396023494863196,0.9288035654495924,0.894589574016487,0.8555333038123579,0.861468051891611,0.8677081143474396,0.8554093349287125,0.8541958210269202,0.8807958757441375,0.9311774196208501,0.9720628248968785,0.9760514736901672,0.9684357625193701,0.9768274251788666,0.9888001832747152,0.9785839062871554,0.9396605874844258,0.884302083202214,0.8280530762967792,0.802415621371881,0.8346159671656627,0.881191321059612,0.9258241140239215,0.9614962948338294,0.9787975330900959,0.9719025490860093,0.9391496793218889,0.8875582520871442,0.8247352539857759,0.7456504698345189,0.6611833419200782,0.5788378582615236,0.5103352373221669,0.5261091647626727,0.6024986018767796,0.6867823321504846,0.767800584731558,0.8457645465851612,0.9225152750678064,0.9896713125217739,0.9968144393079473,0.972747628216524,0.9632756553219072,0.931466329811414,0.9011126469679277,0.9219048275845921,0.9446324163768528,0.95123388471556,0.9526659464636499,0.9580004322743262,0.9597020542247029,0.951569545762636,0.9340977071737312,0.9279513763901076,0.9399799957744418,0.9532791102689019,0.9461324934339218,0.9003882106844573,0.8475087963701834,0.8102723541157081,0.832882268426821,0.8716891131247076,0.9111712298930023,0.9351724319195126,0.9439558476244646,0.9396032496144725,0.908027607295428,0.8544182675328039,0.7821047012382677,0.7000430710389899,0.6225566191154327,0.5391028393119511,0.46066709962826125,0.3794858989017583,0.309367295714977,0.3421888277753945,0.42548762234602167,0.5085376850811553,0.5858854410928828,0.6693906809300821,0.7534117527108554,0.8311931390047372,0.910041584696838,0.9787840622347904,0.9999999999999999,0.9714812135153984,0.9761199529797592,0.9581509196705781,0.9324011137065774,0.9545700584601134,0.9811881798733771,0.990658695295456,0.9869967244613694,0.970294828976613,0.9431326350434382,0.9369095689017838,0.9433599116611352,0.9300021301960671,0.9303079559437287,0.9386137006005731,0.9294041703302213,0.907871989462152,0.8967757672391513,0.9011414046556453,0.9138850536404296,0.9011879461663547,0.909518251106083,0.9363742723893044,0.9582297251734787,0.9569894260926907,0.9408893841767257,0.9043472784792682,0.8969799234639738,0.9248885199151274,0.938405647885347,0.9415990656513299,0.9064331544392673,0.8296806834414884,0.7487344867354445,0.6702073024150351,0.5859296006510074,0.5017522947832361,0.4236081116232179,0.34200664250515744,0.2584598395059833,0.18110978131091293,0.1017149851398107,0.0628448215151276,0.11213385783804608,0.19518079289498103,0.27975730763574946,0.3641891344073521,0.4436745449010292,0.5237429941478137,0.6064536853849004,0.6836792774459123,0.7616241377333938,0.8318737408173748,0.886106399510861,0.9132167526700529,0.9087078812811294,0.887877756679932,0.8518492489530075,0.8106951895960025,0.7780068415661624,0.7815443420104423,0.8267084123445753,0.8826071888494741,0.9229087262009205,0.9218390737413916,0.9057423170349747,0.9038012955439402,0.9080935507156317,0.9211429483047945,0.9286984055804656,0.9243019868754813,0.9201161183757546,0.9170799119634535,0.9060473554086091,0.871703940723925,0.8675293029940429,0.9018745226358599,0.9348973716670476,0.9454034380843604,0.9280727503392375,0.8606476194179681,0.7795866231045311,0.7022441813337442,0.619261285478082,0.534708009640707,0.45269422429197703,0.37484314840693045,0.29079303155621694,0.20689655338189616,0.12964630033477953,0.07115451807440021,0.1084783951668632,0.1907356014055117,0.26842751679377286,0.3506918305646666,0.4349353992553163,0.5133933153723299,0.5945908408905572,0.6764529159239966,0.7536908624976052,0.8280329806849366,0.8875788594895783,0.9340378939544828,0.948431631617649,0.9329298265527263,0.8975157582164116,0.8535542113955256,0.8069189143291332,0.7719119796833634,0.7686873274504832,0.8141446132861377,0.8729402755729724,0.9294960192684621,0.9560754188205726,0.950111933553255,0.9437645150312771,0.9379628244848243,0.9444224393756916,0.9127420247215888,0.8616869292999246,0.829198442233838,0.8196126446964945,0.8249359211454409,0.8371376532971154,0.8224202574805538,0.8293588354704114,0.8724612965584008,0.9020856509510663,0.9045148284671004,0.8830150514141347,0.8244052225897153,0.7500311402264933,0.6665541597185684,0.5869423278228328,0.5069901919558729,0.42252190437094506,0.33794352706188013,0.25336514975281466,0.16879603891163575,0.08618573898075677,0.014099786990231733,0.0,0.06383087671427634,0.1460455148562393,0.22663733773748673,0.3056250954108538,0.38996820875843163,0.4716846815705328,0.5497178648930657,0.6308220422667957,0.7075880136033664,0.7785563714297675,0.8354455033401861,No
0.7807705990688159,0.7996698754913751,0.8158329889386771,0.7987807562114435,0.7381090290559356,0.6531938974950275,0.5660085753165953,0.503977166590555,0.5380430735718802,0.6152892966211803,0.6768954295963598,0.7189782173249397,0.7517394648420628,0.7962597648239855,0.8625859489001075,0.8244100817989208,0.6927418693507623,0.5545986851538456,0.40876114272041253,0.3648060679046732,0.4872140118908206,0.6243105751829994,0.7547346303334268,0.8579395842523323,0.8563697774852446,0.8222606867874811,0.7693211701914753,0.7193245624874209,0.7503136943059885,0.8075140346350116,0.8181778426381179,0.8326908083863822,0.8469872764038966,0.8719743019595052,0.8808542805819348,0.8587477653279416,0.8003228158998668,0.7233115882113759,0.6479234093910438,0.6294453597798788,0.6883913354386935,0.7572924547930118,0.8145239646267068,0.8562863668792762,0.8857406112003567,0.9241753227908904,0.9999999999999996,0.9456435897623048,0.813258682105094,0.6797310176986251,0.5650364736607183,0.46444687993030875,0.5586470881573828,0.6947969887056966,0.8249802087123923,0.9388454140641378,0.9531309202026716,0.916668182635672,0.8492002998293566,0.7749084929842667,0.7089239480542555,0.68318049509889,0.6791234341809189,0.6809616212573615,0.7031056391274437,0.7365564347625657,0.7451001640955166,0.7123770038079336,0.6536782520954496,0.5750710963590442,0.5107458976693056,0.5422474278250098,0.6158795671978718,0.6883848024145864,0.7403675241741228,0.7720252243948087,0.7904108459001629,0.7918724440576366,0.8201976030645843,0.7244398058490527,0.5890830448265487,0.4507314589382023,0.3115302994945277,0.3138361861571015,0.44678016929921016,0.5915138570688487,0.7091878126827802,0.7325282437740053,0.7028242247226926,0.6510787377422322,0.5991175944990816,0.6227686219868986,0.6759793375409728,0.7011213157739498,0.7039687311008365,0.7212287513233062,0.7379194226868719,0.7478343563673011,0.7263649826806131,0.6602869833904377,0.5873460856161419,0.5168208149516209,0.5486878256676455,0.6157370078438293,0.6788909431440007,0.7210778616504832,0.7436152668170863,0.7414179660981799,0.800361539607827,0.8145311282846706,0.7018962836718474,0.5644731451074105,0.41762512339668945,0.3347868734949917,0.4418033550953737,0.5746337060285875,0.6735066815058408,0.7614796473650824,0.7826417917359141,0.7412582020748779,0.6914108352769635,0.6282421290851059,0.5518439826698334,0.4587395151394067,0.3124298535707948,0.16316114346345367,0.0972886836097957,0.13739017822543254,0.2768752313326899,0.42898269895285646,0.5260744578268137,0.6050167099698145,0.6617444935555996,0.6721997705372122,0.5698612566317314,0.4355622680780473,0.298588986006298,0.1589283205629477,0.05454409578260533,0.08857953048750167,0.2152736894447851,0.35400135541895983,0.4993081472844203,0.6292842479993146,0.6668480294418937,0.638179858616081,0.6614582750444749,0.6296613567741947,0.57832741037251,0.5068401065458081,0.4486425991383203,0.45610304556830483,0.5215781843259135,0.6012199457503193,0.6730263711813707,0.6893279383065396,0.6691040274026685,0.6428917156113014,0.6445253798923098,0.6373198469023449,0.6109625121990439,0.5478133023363898,0.49801192020848095,0.5382919318459676,0.5985764899889512,0.6375244884142628,0.5878872250599332,0.4658463051650297,0.3321232562973524,0.18449031457528076,0.05027016072972179,0.0,0.09603999944044839,0.23034947197216216,0.37799061784849464,0.5163090837370388,0.6234655926603958,0.6684603116269483,0.7076859340683357,0.6754529439561185,0.6284128855108406,0.559234277117032,0.4885007009586233,0.44288935200496704,0.4600568773996363,0.5316878079432756,0.6134491228614012,0.6630629619332806,0.6652062587270611,0.6361192131914812,0.6124491078953782,0.6010998379390569,0.6118838282326053,0.6251990099263729,0.6582165464016154,0.7303492155286357,0.8104042065252237,0.8675314235141864,0.8223403126626052,0.697351392511953,0.5498332373980515,0.398043605149744,0.2635125068877109,0.18097087791784894,0.24767847772226448,0.37308697322298867,0.5125331153164967,0.6513855036146121,0.792668973344977,0.8336187547405265,0.8139858064079166,0.7722636090790269,0.7212481439565699,0.6539636316173842,0.5882722227806232,0.5566269135969395,0.580517066950963,0.6605581746237643,0.7411265307098938,0.7885916634795316,0.8024182350119453,0.7870840463968989,0.7663818808042744,0.7621028363299085,0.748467578929144,0.6941240021032913,0.6431472315619722,0.6434950788884573,0.7106503295598645,0.7637576299502724,0.7641785653664019,0.6504512586678315,0.5119760599286569,0.37396972302758424,0.23254898236394395,0.121398753632179,0.1386480747180281,0.25606791149876784,0.39324837610825325,0.5480560779828152,0.6885474516439123,0.7152838569695903,0.6836209605261416,0.6469827572389368,0.5997250258910962,0.5303913472234778,0.45252043646250995,0.4407855248549448,0.47815264963866655,0.5625402824593873,0.6539991029242027,0.7203411329077642,0.7482838327203303,0.7268412692724393,0.7161733917411435,No
0.9590468259351588,0.8950346954383144,0.8106335071113353,0.7160862799051517,0.6095526963591587,0.5007757659776817,0.5306749485614017,0.6549121630403025,0.7712510123141523,0.8892038498158139,0.9640794989144457,0.9454514070816709,0.8885094836008882,0.8081346091661858,0.7173974255174413,0.6744576566939133,0.7292290712432385,0.802799477428433,0.8726340168283269,0.8752756234857766,0.8775688724794275,0.8801847715290867,0.8681839203512021,0.8732660516856563,0.8633705145864394,0.8431696370782227,0.8310798239455277,0.8262865970573521,0.8264371161984072,0.8315416951663104,0.8492655104953886,0.8715674896310577,0.8679989863764077,0.8356709571004286,0.8136601261063294,0.8099421554596558,0.8554294503100754,0.8915294231099185,0.9122087424723859,0.922164657505959,0.9178778133882979,0.9012391103239037,0.8583148619721173,0.7833910740572771,0.6897995896819062,0.5795940140629794,0.4695601349401066,0.507817039690384,0.6303508109950813,0.7440172841047112,0.8524380187983365,0.9141722755648178,0.8958944067713168,0.8316848589883672,0.746249302205015,0.6642970482735828,0.6131297379923359,0.6763317597779421,0.7551407295033288,0.8158113152932467,0.8453588722522305,0.8462573312539954,0.8533405631811943,0.8526443041528977,0.8750146831108099,0.907944030270845,0.908899362134775,0.9245219792432584,0.9229302926576901,0.9353012940494518,0.9504200919039931,0.9406669726373553,0.9381055453406559,0.9068048958928849,0.8601813778877294,0.8472548633596539,0.8787542499196674,0.919683188559584,0.9443136539299011,0.9718646886172739,0.9726690342984732,0.9746518268938589,0.9541718123541623,0.8946056662684914,0.8002351025097822,0.7030550841106411,0.611543058815641,0.5492432013245452,0.631438648484854,0.7485098858455617,0.8587477240364083,0.9670708851389831,1.0,0.9591284361406385,0.8874258817527427,0.8010642164743746,0.713982017651583,0.6832992923950418,0.7507337070043754,0.8172062176125512,0.8884117408455312,0.8998028518964079,0.8920111246844988,0.9149528940433131,0.906015174585407,0.8831395851838981,0.8670520517676179,0.8493185928881135,0.8530581098550911,0.869868127966055,0.8922034577802771,0.8914947487660605,0.8737813355939186,0.8623317108133137,0.8218934512769285,0.8491592940204109,0.8750609380832977,0.9066041368507931,0.934570452188785,0.897499593069019,0.840725805472355,0.8051699128053897,0.7548637047356501,0.7404627693999566,0.7450211208095947,0.7723594376048526,0.8037120394879733,0.8133336429419318,0.8112382574482035,0.7801969633728123,0.7804382406752057,0.7793454238338304,0.7903556997673582,0.8078427172021834,0.8054558208631653,0.8173137512431894,0.8163990216498376,0.8194773953145469,0.7839755511118955,0.7201434001322293,0.6407566212427023,0.5871780083620592,0.6195123624026406,0.7077474659087235,0.7922606585565859,0.8668931146153516,0.8615506745973751,0.7649125026330492,0.6529713847211163,0.5313232573820335,0.4154666783006471,0.28850971573859185,0.17217757946507195,0.07363666234727884,0.09220151111677932,0.19896622337214653,0.32261969942843693,0.43714841115997194,0.5619336055325137,0.6762719572456937,0.7884953481322095,0.8694841766069978,0.8943412453532771,0.8923377628041296,0.8654744351865356,0.859984425332998,0.8208590974079577,0.798562994732956,0.7686957279089981,0.7689863767293734,0.7900772785617516,0.8258467177544282,0.8484232704154899,0.8691293947515883,0.8388124369133987,0.8446492389550992,0.843863854163649,0.8268258325465929,0.8158771418354127,0.7814442183669517,0.7598306629634113,0.7560984924470526,0.7748042468797189,0.7443697895410946,0.6811684987637214,0.6049229448274671,0.5367415169733256,0.548715432880519,0.6275450369838289,0.7086288685716182,0.7934369918419599,0.8271682292235556,0.7435453594624875,0.6270481450488585,0.5097055595564477,0.38677354495565774,0.2710612351192023,0.14862810640214352,0.03819181175267872,0.0,0.09301903447142124,0.21356462617153538,0.3392353625020492,0.4536690944685038,0.5737753974299995,0.6826761176703413,0.7715576819156267,0.8299510789567419,0.828824243895034,0.8483512573918057,0.8506050320987342,0.8211347019770319,0.7891241051132956,0.7588422592607378,0.7295690944200568,0.7177886300315914,0.7425035704981005,0.7563999281377223,0.7852346821281229,0.7613098896632549,0.7616659048369283,0.7565705481915472,0.754718987232474,0.7546731158097746,0.7636737733426031,0.7763267002094487,0.7873911744564905,0.8081973382669339,0.7893966492199596,0.8090149335203574,0.8036955270213144,0.7930221268567839,0.7461259868400805,0.678743798838418,0.5992175427450714,0.5977197113500967,0.6537257307570914,0.741698663947981,0.8209177314043972,0.8664023267758174,0.8011661648330279,0.6759484295864451,0.54773193417441,0.4242799244235713,0.30863443664217316,0.18638410113973292,0.09347756808671459,0.11031436813788664,0.2142737308752798,0.3395997479504995,0.4556833020435396,0.5745249195285917,0.6822487089586553,0.7808413921896333,0.8602007670064058,No
0.9268447627448357,0.8758842787603434,0.7882451116676998,0.6950222070568028,0.6050971454963348,0.5143706384466853,0.42562299091096745,0.3411660201286477,0.35476282767044065,0.4501726294773616,0.5415263464600943,0.6372817993068389,0.7337954399092568,0.8242060924427266,0.9142341088051453,0.9775591876126914,0.9719606238876692,0.9282797067121757,0.8783505717077622,0.8959394143312616,0.9407572344225503,0.9485327519330911,0.9430822354688457,0.9462615014792242,0.9461727263153192,0.9413302323893284,0.9429334086072143,0.9381826741430874,0.9254841754050598,0.9279027416001697,0.9374913069980577,0.9497333488418964,0.9692701346700288,0.9747969110699155,0.9631599030927571,0.9254759510261525,0.8662179085501722,0.7941940995751795,0.7231566124386706,0.6695079544323379,0.681826774532464,0.7423537513915963,0.8002629646957182,0.8572942802364829,0.900593159201514,0.9323721352829848,0.9556974311615662,0.9549292722582798,0.9237769636746935,0.8467136237221684,0.756872917327335,0.6645993418206175,0.5714827565270386,0.4842761332185457,0.4853046229696798,0.5710658810269396,0.6698588764388258,0.7657177040981866,0.8553600013082407,0.9421399548205609,1.0,0.9821571594898488,0.9436825482489262,0.8899487952228111,0.889358555623585,0.9311935567053267,0.9506780656735438,0.9562310762147037,0.9504209031311266,0.9469038712264961,0.9495587330172657,0.9436285673246876,0.937726987469595,0.9378079481749961,0.9431040989784347,0.9379800586560796,0.9336996022258637,0.9451497003264864,0.9628717055994662,0.9710996674498555,0.9485598553049308,0.9068316551488596,0.8407620491725512,0.7736340369819457,0.7088994674989002,0.6759292515596245,0.7195769154033085,0.7785014085616881,0.830092321650719,0.8685195935343741,0.8968363172874629,0.9191250547297223,0.9216358505573963,0.904112839008842,0.831637352797741,0.742577559597619,0.6446831905554022,0.5471796038910695,0.4576546374669377,0.3817315865359219,0.41578294866646925,0.5129514861606923,0.6043263215620813,0.6998534540334875,0.7925250641502362,0.8836885813680335,0.9613989529692426,0.973800352172479,0.9429038968125552,0.886760873255688,0.8560934241643712,0.895667214994476,0.9330050422202971,0.9375817151083021,0.9376412268051642,0.9413101020236119,0.944209239184786,0.924522078048156,0.9036019992729036,0.9008447609451196,0.897743381494188,0.9051756584775092,0.8982008174900495,0.8603062642719546,0.8170042200934287,0.8129796755620244,0.8641707541401877,0.9148819447931076,0.8964648368000128,0.8119925492841631,0.7220550648067279,0.625026009854887,0.5313393908529704,0.43813988428619566,0.3387152336945354,0.2403629632201394,0.15008210950796008,0.057961262983659445,0.03305015465592742,0.10318258124934765,0.20004932702043776,0.2854360592587528,0.3666950834453644,0.4578639825755608,0.5485151913014181,0.6391622151158294,0.7317906356393042,0.8191092785826268,0.8732700902220332,0.8733836300670652,0.8528357444006427,0.8218717244878051,0.7763595708607689,0.7150964804617337,0.658879118112015,0.6243183913776291,0.6505922739671988,0.7122043546766574,0.7827991605600075,0.8515216267172647,0.9034183860310598,0.9271708026547176,0.9192207876065024,0.9017190710748153,0.8958131293559233,0.9023694418850208,0.8989179827985465,0.8979160684693621,0.8957715485389546,0.8955139377601209,0.9071569954744128,0.9107919143832253,0.9040348254175354,0.9085582092197635,0.9098297473160821,0.907199876523372,0.8767882299911172,0.8331785464852413,0.8212413585371232,0.8724846259487906,0.9254448413418261,0.9176054956342963,0.8374996455749133,0.7429288368814078,0.6519431941636313,0.5530067212994401,0.45638929867413536,0.365642085211316,0.2667972430490011,0.1689357213011573,0.07890632225615035,0.0,0.02428040082459093,0.11063718133245537,0.20439253281686764,0.2965841198929233,0.38983616693892187,0.4809090203012265,0.5711034037028657,0.6665139937381905,0.7571333035046262,0.8468926038404736,0.9026503610242544,0.9149584559174291,0.8901449008240716,0.8542691727751035,0.8058298069883683,0.7452805503569848,0.6853543828729867,0.6318081595405909,0.6147718178600201,0.6554863535155044,0.7260566310044403,0.7988898313479205,0.8635311855982306,0.9164461981400644,0.9393671205567213,0.9309730085624714,0.9119345881858152,0.9021326880714442,0.8938534969775853,0.884377307758426,0.8915703190887907,0.891112761371994,0.8938588531183762,0.9047632452139633,0.9030045381726168,0.899582128949608,0.9021842556080673,0.8989951379418213,0.8566100566476655,0.8205121750655056,0.8375593438544882,0.8970897787480205,0.9350674143149678,0.8895922380387575,0.793246736916478,0.7025126469207414,0.6058663100180564,0.5080937979382227,0.41786982328452127,0.31967957416325743,0.22022219395557263,0.12675623929690283,0.044203413724801965,0.04136705760142534,0.12130068282090889,0.2119606096542206,0.306169223165744,0.3973539891994562,0.4874313727967232,0.5803652946532347,0.6793949352205992,0.7710402978724689,0.8499597334061697,No
0.9623560659247425,0.9567196508746998,0.9760281870322365,0.9499707465617269,0.8695744712656637,0.7546511187344789,0.6244554327764551,0.489020526273263,0.3580125648473651,0.2947609629564092,0.40915503235413575,0.5525303507043551,0.6893115479053493,0.810738010701207,0.9184095217229522,0.9760531331313229,0.9411175024833864,0.8639128507763927,0.8165792929916178,0.8599804290155031,0.9014127798680811,0.9167016821688441,0.9029423168367618,0.8967514485789174,0.900566537067206,0.924020281109103,0.9162551086833826,0.9122990799316024,0.8922039919593663,0.8303524894836347,0.8020113847024992,0.8441356459464295,0.9107164193597639,0.9222385119181011,0.9633403890896199,0.9677932821986153,0.9697685112631358,0.9372743432019786,0.8783530482824278,0.7585941486824914,0.622415700709712,0.4839224289814441,0.4188073476969951,0.5179623034593936,0.6507233856726031,0.7773180618340663,0.8962293474991314,0.9720570314391799,0.9418449920793883,0.8752537831770628,0.8195104688297608,0.8191019896253866,0.868817153569877,0.9001643066655294,0.8644296420957447,0.8693718259626697,0.8638976505907887,0.8720764614495133,0.8830108773065055,0.8635313342935718,0.8459921882198926,0.7929244732755201,0.7920233922292759,0.8521728649472033,0.9110792106307384,0.9674204725592122,0.9781319187785014,0.9708076103535517,0.9616860453882443,0.9099106734295026,0.795944029449051,0.6672631345119575,0.5536461844792371,0.6077006885734597,0.739992081384701,0.8697707793108196,0.9678299165747577,1.0000000000000002,0.9714571425595901,0.891615215699461,0.829262257368369,0.8356061111770698,0.9193829486931262,0.926540124428797,0.9064338387172721,0.9052701239251004,0.9076488336310067,0.9216870819032461,0.9034857789310864,0.885253938370931,0.8626057770027808,0.8023201386076086,0.7955466635268909,0.8522673552386528,0.8929325621207107,0.9118513175176302,0.9604417610018559,0.9387137148611593,0.9356001893853103,0.8768181284252272,0.7539215920474309,0.6213769794513515,0.4949925880503321,0.46349738940200935,0.5766849704980264,0.7099026267038255,0.8326358007112533,0.9263546729941663,0.9428756916626979,0.9044383953034483,0.8289146143192216,0.80105468299255,0.8003021263742076,0.7135082736686538,0.6014258714028793,0.4641795729565994,0.3921647890589923,0.44527864827953967,0.5766214377780992,0.638930246386767,0.601307285357515,0.47198405483293393,0.39251171398707263,0.427222537131452,0.5553452283210076,0.6669189832043194,0.726616208717261,0.8177360368041262,0.8638256142483545,0.8116421634348769,0.6916984758882305,0.5598961405502532,0.4271745094391777,0.2945229749074969,0.16415363847164843,0.058157734276015116,0.0881545193222033,0.21295208361385787,0.34954605829669316,0.49129549331305067,0.6223313967531621,0.7505710673486432,0.8275642102892717,0.8290170992510417,0.8041104677513105,0.8408868041161528,0.8067661240459312,0.8040570718240276,0.7646825836783078,0.7045659636771735,0.718731056598837,0.7699019324169238,0.7978395289910496,0.8126286727456622,0.8288366124441924,0.813415018310568,0.8228562104708075,0.8318938107309932,0.8176248907923414,0.7648400846895183,0.7154692208463114,0.7543063047722536,0.820676489952225,0.9013003206064878,0.8942057354225257,0.7965732538813308,0.6669453786849828,0.5331417064312405,0.4018945114536223,0.26931063286451695,0.14100886622344366,0.10885051470679041,0.21620174792181124,0.3501736254815804,0.48255992484372334,0.6166488643449723,0.7469545833683713,0.8498526167102332,0.8966721130420214,0.9028279851044287,0.8904735103658761,0.8575925661936565,0.795305162665014,0.777085162611449,0.7186583786971095,0.7029383514130794,0.7634920204900306,0.7942453998506676,0.7852854621548888,0.781095316959991,0.7806814437044316,0.7533119918313897,0.7451655517266274,0.8001360117875389,0.7932679934636113,0.7326590378014706,0.6858313738372581,0.7394089115678957,0.804600423023351,0.8630401143192648,0.8756382901283433,0.7681669720923578,0.6295639814839922,0.49846792044771004,0.36665473789396574,0.22977057602415019,0.09769253976640568,0.0,0.04594791915434193,0.1704326459784642,0.308225744418096,0.439779143099303,0.5816283314354298,0.7244586507481177,0.8390468860827542,0.8647612474021729,0.8577305355069409,0.8399242827880575,0.8535669376065764,0.8296264489327465,0.8194063477237352,0.7444282447464772,0.7027929286416532,0.7274262538439855,0.7945237741037083,0.8090349417677449,0.8237467656850954,0.8376969620717378,0.8110776285482542,0.8151172605727177,0.8309013374605707,0.8225658768792565,0.7694477364285757,0.7229059683319388,0.7628097678158949,0.8283189662599806,0.8783286500910161,0.8045066147858384,0.6820072587661155,0.5509626971219668,0.4152253711050993,0.28158939810641814,0.1489627490499814,0.03562502243115895,0.05377222182819885,0.17423190008750367,0.3076729724522973,0.4405309668537336,0.5716515092020436,0.7050510843656606,0.8233272510294782,0.8765631578463478,0.8317704396903067,0.8394861792854946,0.8436464538619168,No
0.7548358345320643,0.7957860723934282,0.8337352638535047,0.85140067325958,0.9398700154213082,0.9666141970013373,0.8553916297792381,0.691639621063477,0.5276506942936297,0.37951176258463315,0.28085483069800166,0.3819323037525053,0.524529958654536,0.6570557036366558,0.7409587562568611,0.7462819048979781,0.746157579112261,0.7026868407291418,0.6727189758658203,0.7311760918762951,0.7936289713173443,0.8250583542205123,0.8520260836528997,0.8521457652132232,0.8473425001062806,0.8266312659229063,0.8311261864170079,0.8363607700643256,0.8566096461081476,0.838615155221643,0.8126591251213005,0.7733280959715025,0.6907752535765304,0.5832355455359903,0.4813607983525592,0.4368206926115321,0.5225827964735354,0.6162759116101459,0.6994449843103063,0.7729366426634336,0.8326491308053074,0.879519677145725,0.8517764329244844,0.856564887429919,0.946038064009652,0.9559238977028319,0.8360119858299586,0.6894436724706243,0.5418642259623474,0.43018093375464206,0.5318153797393399,0.6752079143384555,0.8122226715890384,0.9213110292168047,0.9209139520625285,0.8986956502594974,0.8500912758022516,0.8232252748331681,0.8652674353925778,0.9115134522897477,0.9330751175976943,0.9080467782910238,0.8649161054401158,0.820591228626808,0.7812596489276644,0.7629977372721961,0.781900141896902,0.7775653708319141,0.7902956208453058,0.7807595732947425,0.7357729227138337,0.6486854189043121,0.5513929702077465,0.45994501179473213,0.46897788009727703,0.554426386056297,0.6409501990114621,0.7221648394317639,0.7721343834973502,0.8211126655295273,0.8596041986201723,0.8729416936888028,0.9372753787855497,0.9271999531906396,0.7996594518583335,0.6500331311445593,0.5030038168834206,0.4173011392829653,0.5422687493905598,0.6850272713170846,0.8157568488142215,0.9042281928353462,0.907982663495384,0.8851750039358524,0.8437948572579574,0.8013248208996733,0.829460767923901,0.888229092806601,0.9139669454007682,0.9005033399397502,0.891350483967059,0.8978499577934032,0.8989303587057713,0.8899054775873334,0.8675663060554863,0.8367737827464246,0.7950900329611179,0.7269900874515067,0.687214041582886,0.6056500690075377,0.6074101091686903,0.6841199675959753,0.7698108709757849,0.8178812969923368,0.8594726138864401,0.8849199989571734,0.8846650556351316,0.9072103606933459,1.0000000000000004,0.9785011665295502,0.8485837887312928,0.6820856747478845,0.5266060188839901,0.4013522407075736,0.25983488217140005,0.14249881795243047,0.04991100186572783,0.01240122812992217,0.06510142354933635,0.21906492643539988,0.38482845528963283,0.49006843242144926,0.5799111448062413,0.7308925675312588,0.7963549012846918,0.7878815295783501,0.797659535003445,0.7642545391697904,0.7253659188251338,0.6634042053836917,0.5708783161509046,0.504581445580961,0.5054493605886097,0.5676918128572876,0.6200090180668174,0.6934977431377738,0.7477124588838806,0.7790953835280638,0.8081096843637332,0.8125235496095464,0.8084370857407861,0.8239172713528098,0.8282561227862382,0.8422589714616602,0.8316407432848423,0.7780679287104237,0.7207245084603442,0.7141802855112336,0.7621206409022903,0.8034199071291597,0.8056950078400855,0.7091057059329802,0.5681130120603464,0.417603271768868,0.2606640018283022,0.12027222450334873,0.06369815522772537,0.16235469109874856,0.30609462700440426,0.4575390859928583,0.6055578619149888,0.7435238654590317,0.7814730622061572,0.7924362838053303,0.7623699379578146,0.7085020330420702,0.6504441681883306,0.5705579661245124,0.4852701254694698,0.39762663768587947,0.3439217747962453,0.37918717261030155,0.47181379336016827,0.5742823443395237,0.6620064893642721,0.703955869421685,0.6966756252993389,0.6956640417498154,0.6912535664900372,0.6879755763306608,0.7207667797661252,0.7594510162321604,0.8042382845571221,0.8335653893192014,0.8271519142082506,0.7829254852504994,0.7405920108538528,0.74619877213904,0.79880588788768,0.8410592319323178,0.8127459889040209,0.7064081710325829,0.5544101044357093,0.3902846094411623,0.24338003685765486,0.13432148708903302,0.17592169369130772,0.30314755063361387,0.4557333656000879,0.6040253924723609,0.7466554304708315,0.7744107884440328,0.7601487033210792,0.7837887528941878,0.7448362365216501,0.6779127239320046,0.6001964083176143,0.5145214451307774,0.421258742776383,0.3391734568065834,0.3489135713993208,0.4403101279788122,0.5547067770920271,0.6531159780777602,0.7167859119950317,0.7450270305654016,0.7673234207261692,0.7499128834620881,0.7402179888587015,0.7368723564247008,0.7706903903858744,0.7744851265186639,0.750421046426522,0.7139512486020041,0.665556933763543,0.5944169892299498,0.5792166794585873,0.6299334952682423,0.6624572403344868,0.6442278330235962,0.5303780707469259,0.3904617712164389,0.24912588246289502,0.09809977888079224,0.0,0.06697005308237669,0.21183871775363095,0.36003989174640116,0.5166132442733464,0.6697153160475504,0.7460482174131147,0.740082153516973,0.7391427719702937,0.7041518318142104,0.6506601318900347,No
0.8688209757967065,0.8904333547855816,0.9405328503610804,0.9466084533126953,0.9262156638002095,0.9009426283656956,0.908608255020102,0.943250598045029,0.9501128252149562,0.9389034115472685,0.9055764782770122,0.8358283031271805,0.7490403893315944,0.6665701663646835,0.6141600985362516,0.6427523144690928,0.7133145096627245,0.79294032688715,0.8317227360452453,0.8691028055296623,0.8941635567332082,0.8943533311115783,0.8336606062678,0.7327138270967253,0.61942946960174,0.4925904771358609,0.35506558234447905,0.23004340530872724,0.18329614935267502,0.30229502370728056,0.4293293626020511,0.5681350474787488,0.6954747171567552,0.8030310608714863,0.9190800623776738,0.9754822943679557,0.9343418506305992,0.9054609286543349,0.8558744401932388,0.7822610311313123,0.7183459065679116,0.7531775873960407,0.8180100430101174,0.8279635335134317,0.8219565622732512,0.8143066546036692,0.8368149368375795,0.8792334417567518,0.8938945009690502,0.9298424713816238,0.8999514625961327,0.8531671005982346,0.7738752492732868,0.6992631587409002,0.6228038835236882,0.6181854592055203,0.6831257584696089,0.7603286824347597,0.8218152236810288,0.868672799527269,0.9133183870665533,0.9222765126697037,0.8951329721138768,0.8391071006220368,0.7503698442914892,0.6374153731203851,0.5121584220965709,0.372269631157081,0.2477367914745856,0.23233187121289545,0.3496855341755696,0.4851065502429246,0.6248204512937052,0.7519417113761904,0.8826002694125465,0.9589976940993474,0.9473153202961435,0.9194968424975998,0.8658719572567928,0.8145662603744923,0.8332683116826693,0.8823288971761327,0.9072566296073377,0.9084566868988513,0.8903153805112427,0.8972973274233405,0.9240992448264493,0.9427314852854534,0.9379638930406458,0.8911157327471995,0.8098006774867801,0.7301702797153866,0.6489545060895887,0.6219921303044251,0.6839663422309346,0.7570128549659274,0.8155967597695479,0.8678045146167501,0.9207103346759764,0.9490189770352684,0.9324884896813055,0.8663697665015819,0.7696472145749209,0.6751194855152085,0.5639869262044495,0.4263832845196407,0.29871903457351046,0.23623759311511439,0.3436177894571264,0.47134469758334685,0.6106596718280453,0.738313047872889,0.8689918180844036,0.9810057738318707,1.0,0.9665468589625545,0.9519728353114982,0.8862565607392736,0.8038922110741953,0.7561950482690354,0.8057520807892451,0.8575632919018186,0.8722979357208516,0.8590739750051002,0.8382358420996301,0.8678696118117517,0.8528675866291073,0.7985927780987128,0.7702119360249848,0.7822858245921629,0.8013520557668303,0.8045596608405301,0.7536078310089644,0.6871047708202482,0.6887073568742466,0.7533559918441881,0.8423349355007219,0.9003268072124424,0.9077295123967373,0.8569542810742528,0.7289309696469575,0.5985230001960109,0.46475410227710423,0.3253667598866805,0.19832683326753253,0.06553468239425042,0.0,0.0762251797351472,0.20419049411820378,0.33084416704071895,0.45872527360065574,0.5799486349777818,0.6981536959253245,0.8074123059949487,0.8733702981027682,0.8725539785122876,0.8229367312051985,0.7661308315596127,0.7122120466561292,0.6373950221099847,0.5690030068797411,0.539809931529704,0.5866078007808269,0.6724196055914349,0.7598170545036904,0.8325100414028035,0.8765446228708726,0.8564448614600173,0.8375454699594678,0.8145291786320024,0.8233630450705118,0.8377775590977019,0.8261844605704876,0.7806209070242036,0.7337347048722123,0.754220357270456,0.8146109503835275,0.8606499949155486,0.8934045194768907,0.8604734971226184,0.7340070646085977,0.6007690160357719,0.46989809507552893,0.33045799903545925,0.20340464534314195,0.07575311339307067,0.020693141389513947,0.10299853718318142,0.22869499515849423,0.3319889880404441,0.44924377129265736,0.5728500944602257,0.6901046122562815,0.7858124646651437,0.8342431221671349,0.8347764692424087,0.8054250699390102,0.7549628080623934,0.6894675689875371,0.6184626752096403,0.5518296628810364,0.5458219789169867,0.6073080547502112,0.6866820264750264,0.7707700671065632,0.8275838179968469,0.829842555749106,0.8036047505997521,0.7682615749205848,0.75077027531314,0.7555100226843572,0.7530475460350763,0.7239165408160062,0.6605211666700699,0.6408595507025039,0.7006781902980088,0.7821249149678633,0.8390517343598556,0.8680764535079493,0.8580450449004879,0.761750379184964,0.6443214300922371,0.5143379847984901,0.3758567316966914,0.24872877751459121,0.11380315604987201,0.03838903416280193,0.10170354757736311,0.2261931118493723,0.3551015738568526,0.4811610247871574,0.6004887853043446,0.7142722196270119,0.8085843477837047,0.8257739884016924,0.7925444979012424,0.7617518499514215,0.7175776435677181,0.6387743137686464,0.5712758872971793,0.5322951960395255,0.5426546195528283,0.6225722591776104,0.706745640693994,0.7952563802330781,0.8529854995011976,0.8752892988869374,0.8658538736788373,0.8354232670891646,0.8356041915880832,0.8669050712840378,0.8784669777083995,0.8722196099050299,0.821132725540894,0.7753084452028385,No
0.8486921248515418,0.8633163428647865,0.864456950813957,0.8600081785370435,0.8365650654345962,0.8024861148699176,0.7359983792302427,0.6615820752380235,0.6517741764695968,0.7161125541193827,0.7811871705231295,0.8384571049095562,0.9060258097991944,0.9602856576225816,0.9440061493109781,0.8768425368459885,0.7770221783997586,0.6693567245064389,0.5468638180194807,0.4490856856196479,0.5074024317636234,0.6293514335722556,0.7448213232057417,0.8597936545983349,0.9613797892917741,1.0,0.9837029122378884,0.9413346675687446,0.889444077470559,0.8927709335669243,0.9191450820195537,0.9112557084451054,0.9024503583183558,0.8947181648342402,0.8906060861723035,0.8639981384376609,0.8207369776516837,0.7554020109131505,0.7064310217889553,0.7289615782870191,0.7889217674872144,0.8463248999903978,0.8662981576006756,0.8749986955404583,0.8319022515013437,0.7467470622595282,0.6358053672199655,0.5156906866740445,0.4009732154040475,0.34402380026928814,0.43948959827656964,0.556324843570883,0.6739145613329689,0.7852042718040719,0.8784732418412262,0.8929728245486923,0.8748406620559486,0.8307135537475023,0.7733362890906679,0.7867462573914037,0.8166497432981972,0.8095228851097152,0.8187768950987508,0.8202828781793072,0.8213209474266927,0.8011904270884354,0.7439761732000858,0.6787827531622841,0.6942122185137145,0.7564967259031863,0.8211662767762298,0.8646323363755299,0.8895501283538407,0.8678170800049552,0.7804647424964926,0.6764124377464715,0.5701601181124745,0.4554992565794578,0.35497674191121087,0.38741687794952373,0.500854287034159,0.6218227734859423,0.7271751341909867,0.8280131019183385,0.9311838496067413,0.9684772805544379,0.9478943485163445,0.9087199918734883,0.8597180284646866,0.8542054697765704,0.890648695518987,0.908839745897029,0.9142229405947777,0.8989717123807335,0.8833043573171366,0.8482104396592471,0.7801844002408589,0.7061396007865435,0.6983289462380324,0.7587033997955328,0.8189294903960698,0.8606898705532342,0.8915783101797121,0.879588382801074,0.8200366327419051,0.7229925710701295,0.6129600845231313,0.48904685749520516,0.3729740918425106,0.27281021342810763,0.3252013789606618,0.4443215819724675,0.5622681145319759,0.6802520679348825,0.7946724843509068,0.9002024531095851,0.9449163570008823,0.9170709701330861,0.8847837545494337,0.8326273948477763,0.8519391188079708,0.8716796287855715,0.8144234694571599,0.7069684640081944,0.5917064360188666,0.471605690150696,0.3559913783765163,0.23109321499236657,0.1133283581117035,0.006944355946119751,0.0,0.10979193111870966,0.2258096330740207,0.34336923677198605,0.4603996174063565,0.5752938328521493,0.6842992134591617,0.7813699906644995,0.8286893687552683,0.8125195346675977,0.7717157997558264,0.704402126672024,0.6449457147595061,0.6301931998938168,0.6845479336354088,0.7639492573440476,0.8223696960973608,0.841172245125466,0.849184135498497,0.8424983785535711,0.8315699851907086,0.7896276447504795,0.7889075571070521,0.832327556941082,0.8822330622622125,0.8752488452301783,0.8003120171940683,0.7038353932803396,0.5830370538044769,0.4606769330166607,0.3437875930063883,0.220236421402765,0.10526585390914356,0.023314302137149134,0.07965319377548652,0.19249636820705995,0.30967696542901857,0.42455693029993835,0.5398000649804526,0.6584986824093169,0.7630914116430274,0.8252256774648066,0.810871715792818,0.7685614075970917,0.699551559458373,0.6309937308917966,0.6024618261651504,0.638697578019003,0.7162993427973796,0.7679298001894841,0.7581096382201764,0.7542960057712391,0.7780032359220033,0.764730808195154,0.7506639699523099,0.7563758406826651,0.7267909316098202,0.6903576413408845,0.7387114889816604,0.7968814767045242,0.830873116063596,0.7992002658738664,0.694102697097998,0.5800601235178564,0.47115643777074556,0.37324178884530257,0.2739386757257294,0.16341543997866625,0.046781937228751236,0.017289171376538404,0.11225066044832821,0.23615993952460812,0.3513541977335599,0.4667734889829682,0.5812526174452062,0.6905577645659524,0.7816459258377764,0.8160865051609729,0.795531391988491,0.7490299924606845,0.6897953080371955,0.6337888510244563,0.629510917496201,0.694456761584445,0.7624284644628445,0.8062017514559123,0.8293158146564585,0.8362111462944708,0.8441480528275336,0.8506200138632378,0.8466444569409513,0.8217529758555893,0.8270583229957191,0.8808986858540457,0.925263661195515,0.9167179945464596,0.8332253924167028,0.719242507527281,0.6013795825436126,0.4820081032393406,0.36371043435716066,0.24393150461138124,0.13015285571639534,0.07678321967141954,0.15944295605259784,0.2808596951385507,0.3968651205661522,0.5158240945171051,0.6289388042463866,0.7368934604247372,0.838938210119355,0.8926142139537854,0.8511217178155039,0.7888352109399808,0.7312883468039173,0.6633036884405406,0.6023296338475954,0.574911069917357,0.6264834453295709,0.7058735303555208,0.7664336044213074,0.7980902463590955,0.8104471914462312,0.808074848935068,0.7943386657617273,No
0.806471095075231,0.8318965791783373,0.8612093072904279,0.8614869623847654,0.8685668711497088,0.8582346668160619,0.8518365740845684,0.8526443900596079,0.7923589353111375,0.7448886926131721,0.7575822101897445,0.7386790701415289,0.7509375077566411,0.7697825810425232,0.8441853634450394,0.8847894262277296,0.9113238018095742,0.91437688170334,0.9342326102569527,0.9118676695813668,0.8936859969596873,0.8606078448974235,0.794239438546867,0.7299182153677273,0.6949983705250946,0.7276785506596197,0.7242185554437994,0.7393137074534697,0.7597618639951809,0.7517641164415232,0.761175469227592,0.7845190311682182,0.8041016029772714,0.8161257282299901,0.8368865197459159,0.8652933233018598,0.8067026364760346,0.7043616427443502,0.6082084970146187,0.5943264859317918,0.7056907785176576,0.8326207277794508,0.9009002084477777,0.9522642002182482,0.9798568213092715,0.9999999999999996,0.9964881706104154,0.9563539808537844,0.9032228271552145,0.8756543007233275,0.8757299478884728,0.9272046275371655,0.9276953570729058,0.8987570494352108,0.889763238368046,0.8620989562318901,0.849548013410995,0.8020363404203867,0.8148625794104647,0.8149797407854842,0.8097476536119532,0.8115660555826172,0.8128262592861897,0.8566531190272815,0.8290079123092515,0.8417311560107952,0.8338645027639804,0.8121485594312623,0.7620738646335385,0.7127345891084818,0.699871122489736,0.7206105728792509,0.7173573580933987,0.7371321517283547,0.762667361024771,0.7888995536885548,0.8249104885625713,0.821256238829752,0.8160645357694878,0.8163303116588758,0.8332577248886994,0.8621227440693056,0.815562688513388,0.7093410010970325,0.6278970852417518,0.7037177063606523,0.8136385052987669,0.8675866951060978,0.8826321830387394,0.9165238302149441,0.8989266348684368,0.8750182439919478,0.8424827067325338,0.8011851782874548,0.7908199508408624,0.8260095049288076,0.8643906619063135,0.8594015816179099,0.8691183366803119,0.8592323269295652,0.8683245877926544,0.8625559056217571,0.9055469728258685,0.9096371234096741,0.8973404391336604,0.8833684755312645,0.8952834350020402,0.9235920231357206,0.9410942689070017,0.9453163856517226,0.9474061655603916,0.9383983645902618,0.9202305382364142,0.8880375989875158,0.819763580512467,0.7688997995406806,0.7977655232036809,0.804620073230558,0.8217544737612887,0.8429168772354578,0.8566271722617649,0.8007545585139586,0.7567797066064528,0.7311990974786293,0.7007378110642173,0.6811001891672279,0.6714445135947655,0.7007624006676036,0.7680316663934019,0.8160032404345885,0.8405948692532816,0.8568869245778692,0.837091275296602,0.8219594802035224,0.7914643732964568,0.7842333391576637,0.7673260504883115,0.8018567553387279,0.8049881609739127,0.7885920380173492,0.764041229493126,0.7707738305330687,0.7421784338601936,0.7801049646641371,0.7690774896169184,0.7665546150305214,0.7428188934229092,0.6977376136893674,0.6754925267456371,0.7035750118236428,0.7496062310838849,0.7811989199927063,0.803403677551167,0.7949953356156407,0.7609245265388522,0.7068691824741333,0.6042473243624511,0.4845370188166034,0.3544082605970913,0.2274129885053333,0.08625934565100346,0.0,0.05918432434179888,0.18995275418207047,0.31254402265909453,0.45208589998870474,0.57462047004045,0.6987195791715943,0.7308221150665557,0.7099540950536976,0.7231143496459533,0.7170780284912728,0.71486717989074,0.6995290496885356,0.6760138250659904,0.6616930134183376,0.6373862044669187,0.6009643238298445,0.6026296659639763,0.5697299074218729,0.597116214635435,0.6496604346824202,0.697445273866601,0.7324125129246783,0.7579985413776069,0.7256722407420413,0.7039560150774933,0.7097867469779122,0.7114994529142264,0.7139920801058781,0.700930790699481,0.7196254387457723,0.711721141114857,0.7327924152905525,0.7607226984170397,0.7830107282724525,0.7763534431459562,0.7770101995174197,0.8182835630116521,0.7856229745467993,0.7710183948997291,0.7725517797271269,0.7993287178551554,0.8521856852910932,0.8954582352980665,0.8985807148680691,0.8716181728807473,0.8487581104018846,0.791767490071297,0.6997502577770836,0.5853407005212445,0.4611774844904031,0.33378680698932195,0.19166840416598685,0.07409399626803204,0.07255380577550374,0.1786309212667021,0.31291078170488307,0.4392171617042586,0.5710560382511489,0.6909300693336005,0.7336513829039641,0.7055432335306606,0.7037358668005909,0.6818441133461524,0.6904264386668832,0.6585337488005769,0.6482902227186966,0.6604305173361982,0.6440647660021166,0.6319044716746869,0.6117398108474563,0.5957849193301681,0.6250473400935772,0.6765353602827191,0.744004967424257,0.7824408763750097,0.8096511752340505,0.8213115116726777,0.805551815460571,0.7903321120800517,0.7243146724877305,0.6716009812568653,0.6583539633032918,0.6526888706554268,0.6572027949896131,0.6519141521038114,0.6566054610866616,0.7018619257233323,0.7632838651439973,0.7637827900600453,0.7684084642284854,0.7658006440598677,0.7463493677856152,0.7254493428879809,No
0.7102299401631811,0.7618456829438385,0.7910186228866101,0.7985603801718915,0.7865717045965352,0.7233067329162344,0.6488375602971308,0.5225899615803637,0.3735712226320258,0.23709246889184588,0.27344059382616503,0.43448146442522617,0.5899720818720882,0.7599785656185531,0.8643737975482866,0.8311659033912031,0.7912057776465602,0.776692059519732,0.7181272480512826,0.6130028286207772,0.5025961829625318,0.5209219754102419,0.6155012452230624,0.7076692120582715,0.765652783204759,0.7663009259064708,0.7458566267811371,0.7436641852398029,0.7345722863360375,0.7040049845281464,0.7043362778275801,0.7272530155970633,0.7609246894739465,0.785432300982932,0.800697246660464,0.812344621371607,0.7815260297254829,0.7291523434200204,0.632264553201022,0.5136882521604349,0.3978709856499991,0.30385339627235464,0.34948727067783647,0.45942526429260777,0.556578380829376,0.6542251097259832,0.7386545339793642,0.7925074986404841,0.8411059496092506,0.8682506026730392,0.8711063942434034,0.8739953913156899,0.8327856646213903,0.7720051695484633,0.6487417561840303,0.5020471044065831,0.37005616555485243,0.41538306433120464,0.5648002119711828,0.7335674711578033,0.8879946472001894,1.0,0.959203796272182,0.911034014615625,0.8926066967700388,0.8131226434201846,0.704233240772159,0.609753187770127,0.6418340379439416,0.7265977838537756,0.8066037808400335,0.8357761525924152,0.8263183774350233,0.8261637232114838,0.8261580246810079,0.8234921550298413,0.8165712773913034,0.7978250344249309,0.7856962987250062,0.771000104662023,0.7418316762511292,0.6878850884306598,0.6288746615126044,0.5260210892769033,0.41409693936066017,0.2970921173627543,0.2188821934185281,0.28253205063810416,0.39748934636954214,0.5086922577398694,0.6087680205366572,0.6965653205344804,0.772439710527892,0.8286811274534074,0.8851058256739242,0.8840237789605352,0.8757343615234765,0.8367390418449148,0.7650205492259392,0.6469702880242654,0.49855124012289576,0.38021434116729314,0.4620892844269262,0.6286145661010751,0.7812540393103005,0.9276595015192353,0.9795556310007649,0.9573308459889907,0.9264114434109567,0.862698054379301,0.7540644088489676,0.6393635388278271,0.6013879190320912,0.6488989639968148,0.7258385874362636,0.7740178112265443,0.7756561511768458,0.7621718768027215,0.7698951142109083,0.7645350404431719,0.7404354990171313,0.718469907938629,0.716511929527746,0.7299151647391859,0.734365446078793,0.6852786014290713,0.6414221712034403,0.650098134133823,0.6450722650092802,0.6322899071788592,0.6498188781813621,0.667960061205128,0.6776646454971091,0.6777676866504532,0.6813002790488092,0.6846898881341312,0.6153947505400641,0.5440898072663112,0.4934688370589537,0.5373899120885284,0.6406830937571284,0.7617840131147524,0.8389778868476467,0.8653176208605604,0.8186121944989253,0.6664183099195125,0.5119632969995322,0.3411605251648355,0.1876821796280943,0.05315568704654483,0.06046034707443937,0.18850554592440805,0.35393816234974906,0.504725146916309,0.6427226060361875,0.7317660431708353,0.7833434280589318,0.7872509790319286,0.7635927242009162,0.7064152175066214,0.6355976495949589,0.5461247304164241,0.4428217964408647,0.3307073699520915,0.22833094677577126,0.13337199627129115,0.11941383439272846,0.20348679064268627,0.3174534475413804,0.43860403808018145,0.541609330367745,0.6108622556419885,0.6621471200017623,0.6805355711797292,0.7034516549602561,0.7217177198029017,0.7282320407902105,0.7460836955351162,0.7341792238821299,0.7434829017510918,0.7500623235968193,0.7522372902164394,0.7122094801839589,0.6304667064116778,0.5461629814658338,0.49706842434424203,0.5332561792777311,0.6237010634530211,0.724691465165332,0.8053545923149183,0.8263283049895191,0.824855433057011,0.7012800418262151,0.5328788876653139,0.3729528624443139,0.2149543262660787,0.08750088243820997,0.09052747957156004,0.212371276936401,0.36608447248791,0.527111692716641,0.6608505673072793,0.7422236655029399,0.7842435166620252,0.7864643618196805,0.7573174999161072,0.705038930580459,0.6430856768773747,0.5494853359356657,0.4540426578512635,0.3512984701243411,0.24955577219954428,0.17701355961363774,0.21196345934173255,0.3074857294078548,0.4295563882329949,0.5582749105010283,0.6508608238725868,0.706433659791128,0.7244422683780245,0.698259782764211,0.6718835844055331,0.6323736058626626,0.6115231552005627,0.6133737078639347,0.6422771025048668,0.6596373044444697,0.6688891670587616,0.6708231084495804,0.6712540365172623,0.6108568342309839,0.516959138615321,0.41543558827855787,0.38545206767062457,0.45735118827682797,0.5683570257166872,0.6642915665173428,0.7026662500334115,0.7102047484174445,0.6339708315880834,0.47325633900130715,0.3202662394453286,0.15484538318806207,0.015534930542045355,0.0,0.12166046617462412,0.26825362257210017,0.42047410837801813,0.5635086399307543,0.6558427323149658,0.7039845058434393,0.7179886882399966,0.7022901343346089,0.6613554070545726,0.5982497622602807,No
0.9747183160421338,0.9367407751147874,0.9050196765885814,0.9190525199327242,0.9505384214606567,0.9519653550300953,0.9423915895293429,0.9357809372900301,0.9354903036370772,0.9356393216921806,0.9401100191552243,0.9363703761486921,0.9116552806298841,0.8634631302235898,0.8174760249258748,0.8063006980640288,0.833547192900405,0.8722038868973812,0.8921363730363279,0.8918199889929017,0.857104385044922,0.7948064646479567,0.7248221292491279,0.6530779398023943,0.5763652656026452,0.49988310330501196,0.44345838638409907,0.47918559651078674,0.5501595599918583,0.6312603696325287,0.7070890390836013,0.7865720667328939,0.8615181369865561,0.9175065365583985,0.908599561769803,0.8939720785826335,0.8528532455370141,0.8404662544765529,0.8697174095443327,0.8851021210671828,0.8782146063395464,0.8896266383724571,0.8850723196712653,0.8924736359922358,0.9125862623506791,0.9176305510844429,0.9111347679773745,0.8795209655856557,0.8337065834536643,0.7915842508120103,0.8094429936668057,0.8500997492206182,0.8884412621671718,0.9109705179867409,0.9295379889209099,0.9136040187061629,0.8669793500977976,0.8014854407505538,0.7361881067858134,0.6588290312868001,0.5766868996801005,0.5155190802709408,0.5499494311096451,0.6276255579071561,0.7098520472606171,0.7871873519034607,0.865407739034094,0.9369745510192442,0.9633065081710752,0.9347984814101391,0.9004013438303158,0.8811725004191544,0.9113532120700594,0.9403348392240167,0.9389573021149278,0.9349004235397687,0.9317011599128449,0.9205394438205097,0.9295116137257031,0.929313861273823,0.9434377829512273,0.9390035577043194,0.9078033552366456,0.8688258933067361,0.8209144065313465,0.8243518684995625,0.8660037821216189,0.9099784088080103,0.9377208303422597,0.9528600048660567,0.9320569389478741,0.8804218485178299,0.8168529988325957,0.7624847281466531,0.6915031098886415,0.6157525855750277,0.5417308783735906,0.5534304317305689,0.6326671891567539,0.7120337719899237,0.7889618566736296,0.8711332270887497,0.9493701837221338,1.0,0.985719231057459,0.9601683158842265,0.9483613740902974,0.9183950437605701,0.938697468108217,0.9664672032363899,0.9637465864729442,0.9516659151841804,0.9501539733830267,0.930321209661038,0.9023156421606446,0.9119412403423901,0.9167750175170364,0.9265032108949709,0.9048431120157487,0.8770777985663416,0.8864274607380047,0.9027120385744347,0.9347509322218568,0.9400863906058776,0.8727318912207649,0.7967309968726088,0.7152567060527624,0.6387905560085854,0.5588488616336025,0.4781222789219335,0.40212669124888767,0.320380917396505,0.23786665324998346,0.1555940069070757,0.09361514332947696,0.1253327628687898,0.2012896993360075,0.2790727255226807,0.3614390255921748,0.4425189330526629,0.5183987426170684,0.5988686975482695,0.674660130196979,0.750325001629583,0.8123027063734791,0.8711979387335567,0.9140766840398094,0.9089244257302211,0.8860511542750826,0.8534772465534879,0.8069520079191728,0.7688674557550828,0.781172735092208,0.8260913718664562,0.8715092779521152,0.8965099803094339,0.9019194930721166,0.8876108308363964,0.8810201171908429,0.8837535875502169,0.8872177681540858,0.8900061688215637,0.8819317179361941,0.8474305116206973,0.8313815606443462,0.8649228778053297,0.8942326785984542,0.8824907983372299,0.811842867516813,0.7327783529165817,0.6557529325129965,0.5735377962252131,0.49374092679470527,0.4171493471379015,0.33516016791138337,0.25722068608576076,0.1789642811021782,0.09703788293988858,0.02641185086731823,0.025739707587339455,0.10112239007274482,0.18361469720684087,0.26585837194508255,0.3428889399080045,0.42163446233844826,0.49790164160795425,0.5767568839921271,0.652368546924579,0.7260280801739023,0.791040957195186,0.8560371699720379,0.8776101320996348,0.8625526975870716,0.8284660152844938,0.7830242610381002,0.7448348660440096,0.7517673353732091,0.7952566884473202,0.8410110704302856,0.8670616660217634,0.8740196972345065,0.8589128885922901,0.8438521167379438,0.8437765807576478,0.8413125460442861,0.8434023799723323,0.8446661165185378,0.8095949694430613,0.7873471434267303,0.8188812313922984,0.8537314243619472,0.8386626245164519,0.7691733318365763,0.6889197704351613,0.610974932944814,0.5327370958886579,0.45059951392091047,0.3737819124898054,0.3022139087871142,0.23608276769941572,0.17016392564503857,0.09208558379424425,0.014652376356016128,0.0,0.06605973385804675,0.14295811921055257,0.22519800007571777,0.30570128000477914,0.381819069342493,0.46369194317994733,0.5461988735420829,0.6270211449515652,0.6989969115863726,0.7639480269863173,0.8256701202402397,0.8597222590196385,0.8512512150120852,0.826231535164206,0.789065303426439,0.756002747620655,0.7560676520290932,0.8060660109930651,0.8544207249384705,0.8913605223571708,0.9043220919362573,0.8943487469801954,0.8827368674927967,0.8875467952552261,0.8953050568764964,0.9021018561335354,0.9089146110672985,0.8903196488764804,0.8655983131118796,0.8859827721744864,0.9167111763902991,No
1.0,0.988469158672991,0.9572798651729997,0.9038523906165394,0.8417198576776992,0.7757359499484897,0.7082842448246602,0.6365705614386972,0.5686027928138391,0.4957614122647626,0.4229071212222099,0.39392938395563576,0.45140863310673324,0.5209248027123854,0.5947252776624503,0.6686739967729995,0.7421020642428937,0.8102905266892384,0.8779494058310096,0.9365148243122698,0.9601210172697285,0.9395530566881869,0.8970640974923869,0.861275978963034,0.8796898076370396,0.9190787680107957,0.9391453346087324,0.9332592020394328,0.9301797043259756,0.9265227157393703,0.9194872663530131,0.9165347890661462,0.9121085551529007,0.9108406062053438,0.9093481811254618,0.9299766543033456,0.9603403679333173,0.9868817995910306,0.9867087655586406,0.9842845121315857,0.9807678447287151,0.9744331002771223,0.9552600131950146,0.9115214261327407,0.8531623056217921,0.7879839026224389,0.7202276225604451,0.6493785534616017,0.5807016205915061,0.5073032270156002,0.45530715530929694,0.4934747076048667,0.5656546591481364,0.6376576651517716,0.7059393966291259,0.779307538576473,0.8495769001356399,0.9104920748438352,0.936206037127622,0.9179895644700884,0.8772395083115447,0.8478237436604299,0.8758991082625525,0.9144259126196066,0.9389602905480483,0.9496587709554591,0.9446360993060972,0.9417779290747266,0.9376663017833662,0.9355084991927376,0.9308360926850903,0.9210302682127915,0.9364317863141187,0.9688774181770357,0.9805827256614135,0.9759895825758045,0.9783592580642191,0.9708261509559086,0.9718192182370535,0.953226455415755,0.9147354472259741,0.8591212505654646,0.7951983520591961,0.726248836271201,0.6573444867552618,0.5863873892213811,0.5128754734914287,0.46215406688638344,0.5030935599973378,0.5729724557252307,0.6425082431424392,0.7163030730043252,0.7894817936714298,0.8567045208383384,0.9187014062992629,0.9518531845676712,0.9406617394688417,0.9015348925829982,0.8705169442260339,0.8958491399720319,0.9343190639710186,0.9580939058130096,0.9597251579404686,0.9549244745677656,0.946523766510244,0.93832352065534,0.9345085922893741,0.9336667821797218,0.9319565455838006,0.926740335294516,0.9086534575773997,0.9075628692213364,0.9110455289981834,0.9098135523701232,0.9164556560403843,0.9239156309596188,0.9331928407996015,0.9393423440756952,0.921103598714589,0.8812783007328888,0.8409123860210896,0.8224915628190692,0.8602437321188989,0.9055040886712673,0.9201157402551283,0.8714218508218157,0.8057527343798896,0.7353768169076762,0.6673839363212368,0.594924707049471,0.5250077667595032,0.4575296862244486,0.3955773466985159,0.32696772074391106,0.25745947518352147,0.183665618977558,0.10971691727994898,0.03702231469591438,0.0025374636004491524,0.0525982711572211,0.12428743715090179,0.18724000061596852,0.24066434211532123,0.3045125336311116,0.3645686951487767,0.42105423321013286,0.4883308818346381,0.561949148526975,0.6311765131378875,0.7015801480251398,0.7699447729612987,0.8361596053172056,0.8941015644616912,0.9336025214082175,0.9450701012935456,0.9455612530140216,0.9506523067288701,0.9534146686093061,0.9442824350973218,0.913904920039776,0.895971125856353,0.8987841008881887,0.9047089564057167,0.9097089764137285,0.9105311923869421,0.9143953456121505,0.9180276257840034,0.9217431423976274,0.9159883591018643,0.8882368900436619,0.8460200572247503,0.8077442251139335,0.8187783464045981,0.8631668011106901,0.9007918928198659,0.8875126175043238,0.8257525489360711,0.7591134431705913,0.6890176075476788,0.618741273422887,0.5491206863487768,0.4753376511345588,0.40374027481594327,0.335171259245643,0.26160244185665044,0.18765339215067495,0.1137049810728023,0.04091025226060563,0.0017095604203027914,0.04467740813991633,0.11385429341487113,0.187685114802917,0.26127089366384665,0.32988243298771175,0.40142183021249395,0.4753472592416617,0.5490393994492202,0.6179992940401513,0.688700450934637,0.7510156810966715,0.8097004606751277,0.8724134577890594,0.925763425241628,0.9505008198148723,0.9571755195956584,0.9630639962736642,0.9646207420658983,0.9541629020006859,0.9222484996792739,0.8961306922814702,0.8820644379195908,0.8834108822944311,0.8852534897419004,0.8918854277611039,0.8985841842533351,0.9025506807387282,0.9070459717585062,0.9128065439814124,0.9060131393506661,0.8691589733744896,0.8309409589554233,0.8218883923777227,0.8606837654527857,0.9061763772964548,0.917988703158652,0.86775254999367,0.8001392438489174,0.731757036171899,0.6607799612707255,0.5921242391792019,0.5206994912507237,0.4487490994292688,0.3804510315275685,0.3069990062272268,0.23308887339937684,0.1620314845128465,0.09303869509837565,0.021638541606829265,0.0,0.05758414998496275,0.1263031612879199,0.19996416327111216,0.2727925110405159,0.3407504365331367,0.4136824966559642,0.48709914084728473,0.5553633690128392,0.6273692688011681,0.6964528536718562,0.7470263406831832,0.7964094056955457,0.8546583851216316,0.9162172369910686,0.959601821226749,0.9721945269322914,No
0.8144745130377795,0.7207959909888797,0.5892873660533011,0.5045306243566285,0.6075205157913794,0.7477649372956008,0.8696642843844837,0.9443747456015257,0.9750468923002136,0.9634434153005276,0.9148561597111322,0.826391343753444,0.7768066709739752,0.8107316196367766,0.8717572892134533,0.8771073866305588,0.8658318170037371,0.8567247327949281,0.8410521366238144,0.8333916661570382,0.830844332182815,0.8170572588272385,0.7901289087699612,0.7294463287148667,0.6775305641850466,0.6625124466712862,0.7129699585823315,0.7830359525727881,0.8450549442490618,0.8910601409782779,0.906526967282264,0.911632254186935,0.9151228105650762,0.8792185576423743,0.784274322944754,0.6696668470436173,0.5819319364845619,0.6631216415656067,0.7971144231981966,0.875946156059642,0.9106771068331212,0.9028489382274114,0.878224834495763,0.812992274618646,0.7447225916149267,0.7381679670253134,0.8112296314392169,0.8754981967212401,0.8870760321039382,0.8599111595160749,0.8753694089852462,0.8903080972486177,0.8707643969934149,0.8891223677944864,0.9058467122233833,0.8920251583526295,0.8493769442794901,0.780204311297322,0.7110294456838013,0.7248380367498037,0.7878738616467076,0.8481270486393666,0.8976803659199679,0.9297150915519565,0.9147254204453454,0.8937735093252708,0.8624537516745518,0.7752200625300065,0.6628482613826168,0.5600496748163826,0.4413509805115261,0.4873823490057947,0.6264532387734936,0.7729701607961101,0.8752633324498507,0.9243788727065785,0.9343896087051973,0.9192894033447279,0.8531961758222315,0.7568225212245054,0.7156035900509905,0.7755548228096942,0.8703280497462047,0.9180297590034274,0.9077243203548853,0.9161830952159282,0.9250734795811524,0.9294515146723108,0.9444547482769274,0.962420618378069,0.9462011001191502,0.924037158757836,0.8621239745419031,0.7818637510422026,0.7297167447133242,0.7504278772741473,0.8179879349226051,0.8864353914931677,0.9408002563170794,0.9731143245952283,0.9906949939120273,0.9774077690390874,0.9183799255915495,0.820647529219031,0.7052800163410899,0.5822590268699219,0.5485979237889307,0.6825182668345726,0.8202494451452913,0.9340737456147568,0.9999999999999996,0.9869586528409848,0.9760736266182728,0.9232054608913534,0.8458911472750335,0.7836046955218179,0.8182062805718373,0.9074802905388375,0.9297370708786805,0.875703850972045,0.8093008575498044,0.7224877575076243,0.6878617886353608,0.7245183515267946,0.7953678545885334,0.8725135883749746,0.9040401828941511,0.8744002695629072,0.7516228932476934,0.6106798976005035,0.45400236879363076,0.31050502333179075,0.15835790091789326,0.06622465258521437,0.138899967216493,0.28182053137902585,0.4222002368719253,0.5566040161885386,0.690847006944439,0.8119663298726452,0.8759723251712432,0.9028094718961843,0.8978506973474851,0.851202166898203,0.7898399197712656,0.713668628072782,0.6542980793082043,0.6381800504115938,0.6810435167987152,0.757611063817492,0.8286089221492197,0.8673938300396951,0.8771367041269049,0.8559836373660299,0.8379085282092871,0.8399804840403422,0.8333872959020989,0.8366105931425563,0.8096541326892255,0.7166483904906733,0.6472512979661764,0.6365159915379937,0.699620629420608,0.7848929326627112,0.8421104841500067,0.8548352542043536,0.797116001192054,0.6883737554858622,0.5411589142153903,0.39757326605935495,0.23756936964504005,0.08261874421001414,0.020491699147068942,0.11562830939083035,0.2489250441138222,0.3835050962976081,0.5215505355346606,0.6543024017486037,0.7618667473759424,0.8056854037675962,0.8138796355713516,0.8223569061151861,0.7952426251123961,0.7282381375887907,0.6689108815637534,0.6159818429229511,0.6237438586092021,0.6866631560716336,0.7683335139708842,0.8144790727334494,0.8153746883438528,0.7908956537638674,0.804245113067005,0.7994762051793463,0.7827783759421112,0.799428810402008,0.7898088714378688,0.7125214675770217,0.6430193147515362,0.6408627968833742,0.7152769570903454,0.7921531941228372,0.8279741126770053,0.8110297298877414,0.7249412661352559,0.5806809858410618,0.4381391704205897,0.27992525184990846,0.13634314433609962,0.0,0.00021402176561613473,0.12672540394557386,0.26508844925772435,0.40700958309233704,0.5449374596421626,0.6662316217545587,0.76999116763526,0.834174565421169,0.8358848757942039,0.8105322931413679,0.7714701419197003,0.7175047787861684,0.6400984205288265,0.5832900868652113,0.5718043791449987,0.6000947710079338,0.6631979823469747,0.720578490020761,0.7374398692157311,0.7453178186353386,0.7636354336000273,0.7694318318940101,0.7686122114278606,0.7826842893614105,0.8019905503681373,0.7863268926672098,0.7178355436314559,0.683867207456871,0.708491066450557,0.7845031919261429,0.8688423759824899,0.8917849743750934,0.8511923874065315,0.7493794434220686,0.6057049935752592,0.46095220343477505,0.3078571798210472,0.16370248491766004,0.02149473435313487,0.008196747381318037,0.13031076131328456,0.2836088902619949,0.43115926789352166,0.5648865097757989,0.6782983781974754,No
0.8514705311281467,0.8043466102234,0.7495141194049135,0.7065081399400266,0.7216457199574213,0.7656860367549059,0.806654419926172,0.8317632470057799,0.8634436454511549,0.8947290603690274,0.960533697357913,0.9786100979478327,0.9062871495310083,0.8087612285501264,0.7114709723989368,0.6077866998762871,0.5120272127140355,0.4326008197896902,0.4885140408365818,0.5933516348016505,0.6900269560943779,0.7911992945866384,0.8732520522539353,0.9000018151716476,0.8719008471719527,0.8123869452777486,0.7896144301495074,0.8322604948875729,0.857875850809994,0.8692842350618495,0.8452205518863658,0.8333295713303905,0.8269997987382416,0.8416528463951733,0.8766094952996819,0.89415414669085,0.8999933802874711,0.8660606346634854,0.8246171479752853,0.7792846441562657,0.7743968613747043,0.807345726094336,0.8485623258540147,0.8654848404298754,0.8717596130081415,0.9059074151444224,0.9716933417537392,1.0,0.9355309077637481,0.8430941457632097,0.7433579470554252,0.6414219871011615,0.6301019805856729,0.7197670232442723,0.8137639001198145,0.8944090592319629,0.9147946003776841,0.8832368524521801,0.8333042838360893,0.7822052460316486,0.78522701266068,0.8311666374107185,0.8388016792536184,0.838061036860974,0.8377201234343046,0.8249890851923345,0.8230144983066214,0.8386483160765232,0.8639266097082325,0.8678512435425225,0.8475454969977334,0.7980239970257972,0.752919046700748,0.7377030594976386,0.7673345033066532,0.8089308501293049,0.8403700485709922,0.8657946988365244,0.8821346488412427,0.9223832748454543,0.9898469584373086,0.9800117904870214,0.8985747306932739,0.8015503410012563,0.705693957310205,0.6006761585588878,0.5028765421816601,0.516609739322921,0.6171347992595955,0.7129500211443212,0.8127153117198938,0.8937402114697637,0.9128181071496528,0.9012137833037572,0.8650055794247682,0.8120914192990205,0.7960757524112538,0.8368168118322039,0.8566177708254661,0.8519654243892658,0.8525036529442009,0.8526230986700254,0.8443118228103521,0.8373778372952576,0.8516280145145085,0.8660152143992694,0.8618097711428292,0.8490253491518458,0.8056370808667985,0.7516058723380099,0.7138407985021247,0.7321081179258879,0.7733933812083897,0.8096768770463587,0.8470705690137312,0.8622049252982955,0.8869082765602112,0.9261513998879876,0.9144556049763972,0.8572936357388592,0.8185140547690017,0.8004464336069677,0.7765836972627502,0.7454060616963085,0.7028457930247667,0.6631912184450766,0.6602901424660788,0.703025649114454,0.7566844076117261,0.7929949973079644,0.8113540968406947,0.8073714381844996,0.7954271341902093,0.7879778025902975,0.7973524251777047,0.803632939720798,0.7999536666506124,0.8002886415933674,0.7743389993477892,0.7292617123027552,0.736275218703331,0.7882214486066013,0.8380414913068179,0.8368845133253631,0.7713673364428861,0.6779139571940811,0.5824877381082953,0.4779860730129344,0.3731978522126649,0.2772941917583631,0.17322323293245834,0.08887659089686895,0.11779964820717104,0.21848245363968788,0.3183156605421724,0.41742106844345095,0.5235129125386435,0.6253230475559421,0.7226621511015447,0.8261409390068843,0.8726427622723327,0.841241582041758,0.8203712742878451,0.7916066830810489,0.7549311101107214,0.7173965068919119,0.6859484199106567,0.6721651389860708,0.7128898334711669,0.7637186929266373,0.7941340685923395,0.8055926378312779,0.7919279705380413,0.7673483152107776,0.7615297574979647,0.765366039971739,0.7750628450059218,0.7850593815363114,0.7863578037540746,0.759646597196503,0.7240894149724304,0.7194702722998421,0.7696469232356611,0.8268813223127918,0.8538695285502964,0.7943622428297528,0.700698014521826,0.6030932995851566,0.4973825703836374,0.39873358637971923,0.2986325759578905,0.20427221909425586,0.11782033775248091,0.04626517229351035,0.08926317920977689,0.18749144638921122,0.28605196791493936,0.3917654414338374,0.4895873347267101,0.5908139338340002,0.6959828834182495,0.7920460233258586,0.8807826958163028,0.8718017068397126,0.8329556980809101,0.8185810945272083,0.8081702737874799,0.7707350060445011,0.728873857298276,0.7069317708200771,0.7203303918667436,0.7615767196350993,0.8100853510112231,0.8350425902481788,0.8233521343722607,0.7938518272033304,0.7729772155609806,0.7726336073005968,0.7931488886696831,0.7972637438783066,0.7831777066170655,0.7413396489438568,0.7177186293578104,0.755763849057332,0.8072875963787518,0.8420598955128091,0.7911021291975548,0.6996776692356743,0.5999555231623206,0.5019259584487599,0.3969492251471245,0.3007594265347282,0.19728934751319183,0.09110236228058821,0.0,0.009495437209356528,0.1041793811716456,0.2041488796273816,0.30302460493342,0.4090462960455701,0.5095499303789981,0.6080073823200656,0.710929249047326,0.8059901178051811,0.8587597850897302,0.8258424614358137,0.7940594201039839,0.7737351087854667,0.7429074581811168,0.6964648188605578,0.6525019976343174,0.6494854726018424,0.6877731655345172,0.7422366440081425,0.7921348871978968,No
